{
  "AcquisitionMatrixPE": 88,
  "AcquisitionNumber": 1,
  "AcquisitionTime": "15:44:30.707500",
  "BandwidthPerPixelPhaseEncode": 19.592,
  "BaseResolution": 88,
  "BodyPartExamined": "BRAIN",
  "ConsistencyInfo": "N4_VE11C_LATEST_20160120",
  "ConversionSoftware": "dcm2niix",
  "ConversionSoftwareVersion": "v1.0.20190902",
  "DerivedVendorReportedEchoSpacing": 0.000580014,
  "DeviceSerialNumber": "67050",
  "DwellTime": 2.6e-06,
  "EchoTime": 0.033,
  "EchoTrainLength": 88,
  "EffectiveEchoSpacing": 0.000580014,
  "FlipAngle": 62,
  "ImageOrientationPatientDICOM": [0.999658, -0.00406811, 0.0258422, 0.0041874, 0.999981, -0.0045636],
  "ImageType": [
    "ORIGINAL",
    "PRIMARY",
    "M",
    "ND",
    "MOSAIC"
],
  "ImagingFrequency": 123.251,
  "InPlanePhaseEncodingDirectionDICOM": "COL",
  "InstitutionAddress": "Olive_Street_60_Providence_RI_US_02912",
  "InstitutionName": "BROWN_UNIVERSITY_MRF",
  "InstitutionalDepartmentName": "Department",
  "MRAcquisitionType": "2D",
  "MagneticFieldStrength": 3,
  "Manufacturer": "Siemens",
  "ManufacturersModelName": "Prisma_fit",
  "Modality": "MR",
  "MultibandAccelerationFactor": 4,
  "PartialFourier": 1,
  "PatientPosition": "HFS",
  "PercentPhaseFOV": 100,
  "PhaseEncodingDirection": "j-",
  "PhaseEncodingSteps": 88,
  "PhaseResolution": 1,
  "PixelBandwidth": 2185,
  "ProcedureStepDescription": "ASHENHAV_1222",
  "ProtocolName": "func-bold_task-RDMmotion_run-05",
  "PulseSequenceDetails": "%SiemensSeq%_ep2d_bold",
  "ReceiveCoilActiveElements": "HC1-7",
  "ReceiveCoilName": "HeadNeck_64",
  "ReconMatrixPE": 88,
  "RefLinesPE": 8,
  "RepetitionTime": 1.2,
  "SAR": 0.0480101,
  "ScanOptions": "FS",
  "ScanningSequence": "EP",
  "SequenceName": "_epfid2d1_88",
  "SequenceVariant": "SK",
  "SeriesDescription": "func-bold_task-RDMmotion_run-05",
  "SeriesNumber": 15,
  "ShimSetting": [1768, -9114, 4433, 519, -29, -230, 4, 0],
  "SliceThickness": 2.4,
  "SliceTiming": [0.55, 0, 0.63, 0.0775, 0.7075, 0.1575, 0.7875, 0.235, 0.865, 0.315, 0.9425, 0.3925, 1.0225, 0.4725, 1.1, 0.55, 0, 0.63, 0.0775, 0.7075, 0.1575, 0.7875, 0.235, 0.865, 0.315, 0.9425, 0.3925, 1.0225, 0.4725, 1.1, 0.55, 0, 0.63, 0.0775, 0.7075, 0.1575, 0.7875, 0.235, 0.865, 0.315, 0.9425, 0.3925, 1.0225, 0.4725, 1.1, 0.55, 0, 0.63, 0.0775, 0.7075, 0.1575, 0.7875, 0.235, 0.865, 0.315, 0.9425, 0.3925, 1.0225, 0.4725, 1.1],
  "SoftwareVersions": "syngo_MR_E11",
  "SpacingBetweenSlices": 2.4,
  "StationName": "AWP67050",
  "TaskName": "RDMmotion",
  "TotalReadoutTime": 0.0504612,
  "TxRefAmp": 219.229,
  "dcmmeta_affine": [
    [-2.396906614303589, 0.010040231980383396, 0.06197550147771835, 104.0329818725586],
    [0.009754210710525513, 2.39768123626709, -0.01120859757065773, -100.57337951660156],
    [0.061962515115737915, 0.010942266322672367, 2.3991734981536865, -56.580989837646484],
    [0.0, 0.0, 0.0, 1.0]
],
  "dcmmeta_reorient_transform": [
    [0.0, -1.0, 0.0, 87.0],
    [1.0, 0.0, 0.0, 0.0],
    [0.0, 0.0, 1.0, 0.0],
    [0.0, 0.0, 0.0, 1.0]
],
  "dcmmeta_shape": [88, 88, 60, 125],
  "dcmmeta_slice_dim": 2,
  "dcmmeta_version": 0.6,
  "global": {
    "const": {
      "AcquisitionMatrix": [88, 0, 0, 88],
      "AngioFlag": "N",
      "BitsAllocated": 16,
      "BitsStored": 12,
      "BodyPartExamined": "BRAIN",
      "Columns": 704,
      "DeidentificationMethodCodeSequence": [
        {
          "CodeMeaning": "XNAT DicomEdit 6 Script",
          "CodeValue": "3",
          "CodingSchemeDesignator": "XNAT",
          "CodingSchemeVersion": "1.0"}
],
      "EchoNumbers": 1,
      "EchoTime": 33.0,
      "EchoTrainLength": 88,
      "FlipAngle": 62.0,
      "HighBit": 11,
      "ImageOrientationPatient": [0.9996577573688, -0.0040681067745, 0.02584218720729, 0.00418739523859, 0.99998081945733, -0.0045635992983],
      "ImagePositionPatient": [-846.2461236264, -843.50642141628, -71.34324897397],
      "ImageType": [
        "ORIGINAL",
        "PRIMARY",
        "M",
        "ND",
        "MOSAIC"
],
      "ImagedNucleus": "1H",
      "ImagingFrequency": 123.250738,
      "InPlanePhaseEncodingDirection": "COL",
      "MRAcquisitionType": "2D",
      "MagneticFieldStrength": 3.0,
      "Manufacturer": "SIEMENS",
      "ManufacturerModelName": "Prisma_fit",
      "Modality": "MR",
      "NumberOfAverages": 1.0,
      "NumberOfPhaseEncodingSteps": 88,
      "PercentPhaseFieldOfView": 100.0,
      "PercentSampling": 100.0,
      "PerformedProcedureStepStartTime": "144005.217000",
      "PhotometricInterpretation": "MONOCHROME2",
      "PixelBandwidth": 2185.0,
      "PixelRepresentation": 0,
      "PixelSpacing": [2.3977272510529, 2.3977272510529],
      "ProtocolName": "func-bold_task-RDMmotion_run-05",
      "RepetitionTime": 1200.0,
      "Rows": 704,
      "SAR": 0.048010065415,
      "SamplesPerPixel": 1,
      "ScanOptions": "FS",
      "ScanningSequence": "EP",
      "SequenceName": "*epfid2d1_88",
      "SequenceVariant": "SK",
      "SeriesDescription": "func-bold_task-RDMmotion_run-05",
      "SeriesNumber": 15,
      "SeriesTime": "154458.706000",
      "SliceLocation": -53.405344027115,
      "SliceThickness": 2.4000000953674,
      "SmallestImagePixelValue": 0,
      "SoftwareVersions": "syngo MR E11",
      "SpacingBetweenSlices": 2.3999999943822,
      "SpecificCharacterSet": "ISO_IR 100",
      "StudyID": "1",
      "StudyTime": "144005.085000",
      "TransmitCoilName": "Body",
      "VariableFlipAngleFlag": "N",
      "WindowCenterWidthExplanation": "Algo1",
      "dBdt": 0.0},
    "slices": {}
  },
  "time": {
    "samples": {
      "AcquisitionNumber": [1, 2, 3, 4, 5, 6, 7, 8, 9, 10, 11, 12, 13, 14, 15, 16, 17, 18, 19, 20, 21, 22, 23, 24, 25, 26, 27, 28, 29, 30, 31, 32, 33, 34, 35, 36, 37, 38, 39, 40, 41, 42, 43, 44, 45, 46, 47, 48, 49, 50, 51, 52, 53, 54, 55, 56, 57, 58, 59, 60, 61, 62, 63, 64, 65, 66, 67, 68, 69, 70, 71, 72, 73, 74, 75, 76, 77, 78, 79, 80, 81, 82, 83, 84, 85, 86, 87, 88, 89, 90, 91, 92, 93, 94, 95, 96, 97, 98, 99, 100, 101, 102, 103, 104, 105, 106, 107, 108, 109, 110, 111, 112, 113, 114, 115, 116, 117, 118, 119, 120, 121, 122, 123, 124, 125],
      "AcquisitionTime": ["154430.707500", "154431.907500", "154433.107500", "154434.307500", "154435.507500", "154436.707500", "154437.907500", "154439.107500", "154440.307500", "154441.507500", "154442.707500", "154443.907500", "154445.107500", "154446.307500", "154447.507500", "154448.707500", "154449.907500", "154451.107500", "154452.307500", "154453.507500", "154454.707500", "154455.907500", "154457.107500", "154458.307500", "154459.507500", "154500.707500", "154501.907500", "154503.107500", "154504.307500", "154505.507500", "154506.707500", "154507.907500", "154509.107500", "154510.307500", "154511.507500", "154512.707500", "154513.907500", "154515.107500", "154516.307500", "154517.507500", "154518.707500", "154519.907500", "154521.107500", "154522.307500", "154523.507500", "154524.707500", "154525.907500", "154527.107500", "154528.307500", "154529.507500", "154530.707500", "154531.907500", "154533.107500", "154534.307500", "154535.507500", "154536.707500", "154537.907500", "154539.107500", "154540.307500", "154541.507500", "154542.707500", "154543.907500", "154545.107500", "154546.307500", "154547.507500", "154548.707500", "154549.907500", "154551.107500", "154552.307500", "154553.507500", "154554.707500", "154555.907500", "154557.107500", "154558.307500", "154559.507500", "154600.707500", "154601.907500", "154603.107500", "154604.307500", "154605.507500", "154606.707500", "154607.907500", "154609.107500", "154610.307500", "154611.507500", "154612.707500", "154613.907500", "154615.107500", "154616.307500", "154617.507500", "154618.707500", "154619.907500", "154621.107500", "154622.307500", "154623.507500", "154624.707500", "154625.907500", "154627.107500", "154628.307500", "154629.507500", "154630.707500", "154631.907500", "154633.107500", "154634.307500", "154635.507500", "154636.707500", "154637.907500", "154639.107500", "154640.307500", "154641.507500", "154642.707500", "154643.907500", "154645.107500", "154646.307500", "154647.507500", "154648.707500", "154649.907500", "154651.107500", "154652.307500", "154653.507500", "154654.707500", "154655.907500", "154657.107500", "154658.307500", "154659.507500"],
      "ContentTime": ["154458.710000", "154458.713000", "154458.726000", "154458.728000", "154458.731000", "154458.733000", "154458.736000", "154458.738000", "154458.741000", "154458.743000", "154458.746000", "154458.748000", "154458.751000", "154458.754000", "154458.756000", "154458.759000", "154458.765000", "154458.768000", "154458.771000", "154458.773000", "154458.776000", "154458.778000", "154538.705000", "154538.708000", "154538.717000", "154538.720000", "154538.722000", "154538.725000", "154538.728000", "154538.731000", "154538.733000", "154538.736000", "154538.738000", "154538.741000", "154538.743000", "154538.746000", "154538.748000", "154538.751000", "154538.753000", "154538.757000", "154538.759000", "154538.762000", "154538.764000", "154538.767000", "154538.769000", "154538.772000", "154538.774000", "154538.777000", "154538.782000", "154538.785000", "154538.787000", "154538.790000", "154538.793000", "154538.795000", "154538.798000", "154538.800000", "154618.705000", "154618.709000", "154618.711000", "154618.714000", "154618.716000", "154618.719000", "154618.721000", "154618.724000", "154618.727000", "154618.729000", "154618.732000", "154618.734000", "154618.737000", "154618.739000", "154618.742000", "154618.745000", "154618.747000", "154618.750000", "154618.752000", "154618.755000", "154618.757000", "154618.760000", "154618.762000", "154618.765000", "154618.767000", "154618.770000", "154618.773000", "154618.775000", "154618.778000", "154618.780000", "154618.783000", "154618.785000", "154618.788000", "154658.706000", "154658.708000", "154658.711000", "154658.714000", "154658.716000", "154658.719000", "154658.721000", "154658.736000", "154658.738000", "154658.741000", "154658.744000", "154658.746000", "154658.749000", "154658.751000", "154658.754000", "154658.756000", "154658.759000", "154658.761000", "154658.764000", "154658.767000", "154658.769000", "154658.772000", "154658.774000", "154658.777000", "154658.779000", "154658.782000", "154658.785000", "154658.787000", "154658.811000", "154658.813000", "154658.890000", "154658.893000", "154658.896000", "154701.398000", "154701.401000", "154701.403000"],
      "InstanceCreationTime": ["154458.710000", "154458.713000", "154458.726000", "154458.728000", "154458.731000", "154458.733000", "154458.736000", "154458.738000", "154458.741000", "154458.743000", "154458.746000", "154458.748000", "154458.751000", "154458.754000", "154458.756000", "154458.759000", "154458.765000", "154458.768000", "154458.771000", "154458.773000", "154458.776000", "154458.778000", "154538.705000", "154538.708000", "154538.717000", "154538.720000", "154538.722000", "154538.725000", "154538.728000", "154538.731000", "154538.733000", "154538.736000", "154538.738000", "154538.741000", "154538.743000", "154538.746000", "154538.748000", "154538.751000", "154538.753000", "154538.757000", "154538.759000", "154538.762000", "154538.764000", "154538.767000", "154538.769000", "154538.772000", "154538.774000", "154538.777000", "154538.782000", "154538.785000", "154538.787000", "154538.790000", "154538.793000", "154538.795000", "154538.798000", "154538.800000", "154618.705000", "154618.709000", "154618.711000", "154618.714000", "154618.716000", "154618.719000", "154618.721000", "154618.724000", "154618.727000", "154618.729000", "154618.732000", "154618.734000", "154618.737000", "154618.739000", "154618.742000", "154618.745000", "154618.747000", "154618.750000", "154618.752000", "154618.755000", "154618.757000", "154618.760000", "154618.762000", "154618.765000", "154618.767000", "154618.770000", "154618.773000", "154618.775000", "154618.778000", "154618.780000", "154618.783000", "154618.785000", "154618.788000", "154658.706000", "154658.708000", "154658.711000", "154658.714000", "154658.716000", "154658.719000", "154658.721000", "154658.736000", "154658.738000", "154658.741000", "154658.744000", "154658.746000", "154658.749000", "154658.751000", "154658.754000", "154658.756000", "154658.759000", "154658.761000", "154658.764000", "154658.767000", "154658.769000", "154658.772000", "154658.774000", "154658.777000", "154658.779000", "154658.782000", "154658.785000", "154658.787000", "154658.811000", "154658.813000", "154658.890000", "154658.893000", "154658.896000", "154701.398000", "154701.401000", "154701.403000"],
      "InstanceNumber": [1, 2, 3, 4, 5, 6, 7, 8, 9, 10, 11, 12, 13, 14, 15, 16, 17, 18, 19, 20, 21, 22, 23, 24, 25, 26, 27, 28, 29, 30, 31, 32, 33, 34, 35, 36, 37, 38, 39, 40, 41, 42, 43, 44, 45, 46, 47, 48, 49, 50, 51, 52, 53, 54, 55, 56, 57, 58, 59, 60, 61, 62, 63, 64, 65, 66, 67, 68, 69, 70, 71, 72, 73, 74, 75, 76, 77, 78, 79, 80, 81, 82, 83, 84, 85, 86, 87, 88, 89, 90, 91, 92, 93, 94, 95, 96, 97, 98, 99, 100, 101, 102, 103, 104, 105, 106, 107, 108, 109, 110, 111, 112, 113, 114, 115, 116, 117, 118, 119, 120, 121, 122, 123, 124, 125],
      "LargestImagePixelValue": [2147, 2067, 2036, 1998, 2012, 2006, 1979, 2000, 1998, 1971, 1982, 1986, 1968, 1985, 2004, 1976, 1995, 2001, 1979, 1983, 1990, 1998, 1973, 2001, 2009, 1970, 1977, 1987, 1963, 1974, 1989, 1975, 1991, 1962, 1979, 1983, 1951, 1971, 1975, 1988, 1991, 1973, 2009, 1993, 2009, 2033, 2000, 2014, 1987, 2007, 2017, 1995, 2010, 1980, 2002, 2015, 1996, 2000, 2001, 1978, 1995, 1961, 1987, 1976, 1990, 1982, 1993, 2009, 2011, 2028, 2004, 2030, 1986, 2005, 2028, 2011, 2016, 1995, 2040, 2007, 2038, 1999, 2021, 2023, 1991, 1969, 1993, 1958, 1984, 2011, 1978, 1988, 1960, 1967, 1979, 1963, 1990, 1976, 1970, 1963, 1974, 1956, 2003, 2003, 1992, 2000, 1995, 1965, 1986, 1971, 1974, 1960, 1967, 1956, 1955, 1991, 1959, 1968, 2007, 1999, 1953, 1962, 1972, 1981, 1985],
      "WindowCenter": [615.0, 612.0, 609.0, 608.0, 608.0, 607.0, 606.0, 607.0, 607.0, 606.0, 607.0, 606.0, 605.0, 606.0, 607.0, 607.0, 607.0, 607.0, 606.0, 605.0, 605.0, 605.0, 605.0, 605.0, 605.0, 605.0, 605.0, 606.0, 606.0, 607.0, 607.0, 607.0, 607.0, 606.0, 606.0, 606.0, 605.0, 605.0, 605.0, 606.0, 605.0, 605.0, 606.0, 607.0, 607.0, 607.0, 607.0, 606.0, 606.0, 606.0, 606.0, 606.0, 606.0, 605.0, 606.0, 606.0, 606.0, 606.0, 606.0, 605.0, 605.0, 605.0, 606.0, 606.0, 606.0, 606.0, 607.0, 606.0, 607.0, 606.0, 606.0, 606.0, 606.0, 607.0, 606.0, 607.0, 607.0, 607.0, 607.0, 608.0, 608.0, 608.0, 608.0, 607.0, 606.0, 605.0, 606.0, 606.0, 607.0, 607.0, 606.0, 606.0, 605.0, 605.0, 605.0, 605.0, 606.0, 605.0, 605.0, 605.0, 606.0, 605.0, 606.0, 607.0, 606.0, 606.0, 606.0, 605.0, 605.0, 606.0, 606.0, 606.0, 606.0, 606.0, 605.0, 605.0, 605.0, 605.0, 605.0, 604.0, 604.0, 604.0, 605.0, 606.0, 606.0],
      "WindowWidth": [1311.0, 1303.0, 1298.0, 1294.0, 1295.0, 1292.0, 1291.0, 1292.0, 1292.0, 1291.0, 1291.0, 1290.0, 1289.0, 1290.0, 1292.0, 1293.0, 1292.0, 1291.0, 1290.0, 1288.0, 1287.0, 1287.0, 1287.0, 1286.0, 1288.0, 1288.0, 1288.0, 1289.0, 1290.0, 1291.0, 1291.0, 1291.0, 1291.0, 1290.0, 1290.0, 1290.0, 1288.0, 1287.0, 1287.0, 1288.0, 1288.0, 1288.0, 1290.0, 1291.0, 1291.0, 1292.0, 1291.0, 1290.0, 1290.0, 1289.0, 1289.0, 1289.0, 1290.0, 1288.0, 1289.0, 1290.0, 1290.0, 1289.0, 1289.0, 1287.0, 1287.0, 1288.0, 1289.0, 1289.0, 1289.0, 1290.0, 1291.0, 1290.0, 1291.0, 1290.0, 1289.0, 1289.0, 1289.0, 1291.0, 1291.0, 1291.0, 1292.0, 1291.0, 1293.0, 1293.0, 1294.0, 1294.0, 1293.0, 1291.0, 1288.0, 1287.0, 1290.0, 1290.0, 1291.0, 1291.0, 1291.0, 1289.0, 1289.0, 1289.0, 1288.0, 1287.0, 1289.0, 1288.0, 1288.0, 1288.0, 1289.0, 1289.0, 1290.0, 1291.0, 1290.0, 1289.0, 1289.0, 1287.0, 1288.0, 1290.0, 1291.0, 1290.0, 1290.0, 1289.0, 1287.0, 1287.0, 1287.0, 1287.0, 1287.0, 1286.0, 1284.0, 1285.0, 1287.0, 1289.0, 1289.0]
    },
    "slices": {}
  }
}