{
  "AcquisitionMatrixPE": 88,
  "AcquisitionNumber": 1,
  "AcquisitionTime": "14:57:5.837500",
  "BandwidthPerPixelPhaseEncode": 19.592,
  "BaseResolution": 88,
  "BodyPartExamined": "BRAIN",
  "ConsistencyInfo": "N4_VE11C_LATEST_20160120",
  "ConversionSoftware": "dcm2niix",
  "ConversionSoftwareVersion": "v1.0.20190902",
  "DerivedVendorReportedEchoSpacing": 0.000580014,
  "DeviceSerialNumber": "67050",
  "DwellTime": 2.6e-06,
  "EchoTime": 0.033,
  "EchoTrainLength": 88,
  "EffectiveEchoSpacing": 0.000580014,
  "FlipAngle": 62,
  "ImageOrientationPatientDICOM": [0.999658, -0.00406811, 0.0258422, 0.0041874, 0.999981, -0.0045636],
  "ImageType": [
    "ORIGINAL",
    "PRIMARY",
    "M",
    "ND",
    "MOSAIC"
],
  "ImagingFrequency": 123.251,
  "InPlanePhaseEncodingDirectionDICOM": "COL",
  "InstitutionAddress": "Olive_Street_60_Providence_RI_US_02912",
  "InstitutionName": "BROWN_UNIVERSITY_MRF",
  "InstitutionalDepartmentName": "Department",
  "MRAcquisitionType": "2D",
  "MagneticFieldStrength": 3,
  "Manufacturer": "Siemens",
  "ManufacturersModelName": "Prisma_fit",
  "Modality": "MR",
  "MultibandAccelerationFactor": 4,
  "PartialFourier": 1,
  "PatientPosition": "HFS",
  "PercentPhaseFOV": 100,
  "PhaseEncodingDirection": "j-",
  "PhaseEncodingSteps": 88,
  "PhaseResolution": 1,
  "PixelBandwidth": 2185,
  "ProcedureStepDescription": "ASHENHAV_1222",
  "ProtocolName": "func-bold_task-RDMmotion_run-01",
  "PulseSequenceDetails": "%SiemensSeq%_ep2d_bold",
  "ReceiveCoilActiveElements": "HC1-7",
  "ReceiveCoilName": "HeadNeck_64",
  "ReconMatrixPE": 88,
  "RefLinesPE": 8,
  "RepetitionTime": 1.2,
  "SAR": 0.0480101,
  "ScanOptions": "FS",
  "ScanningSequence": "EP",
  "SequenceName": "_epfid2d1_88",
  "SequenceVariant": "SK",
  "SeriesDescription": "func-bold_task-RDMmotion_run-01",
  "SeriesNumber": 7,
  "ShimSetting": [1768, -9114, 4433, 519, -29, -230, 4, 0],
  "SliceThickness": 2.4,
  "SliceTiming": [0.55, 0, 0.63, 0.08, 0.7075, 0.1575, 0.7875, 0.2375, 0.865, 0.315, 0.945, 0.395, 1.0225, 0.4725, 1.1025, 0.55, 0, 0.63, 0.08, 0.7075, 0.1575, 0.7875, 0.2375, 0.865, 0.315, 0.945, 0.395, 1.0225, 0.4725, 1.1025, 0.55, 0, 0.63, 0.08, 0.7075, 0.1575, 0.7875, 0.2375, 0.865, 0.315, 0.945, 0.395, 1.0225, 0.4725, 1.1025, 0.55, 0, 0.63, 0.08, 0.7075, 0.1575, 0.7875, 0.2375, 0.865, 0.315, 0.945, 0.395, 1.0225, 0.4725, 1.1025],
  "SoftwareVersions": "syngo_MR_E11",
  "SpacingBetweenSlices": 2.4,
  "StationName": "AWP67050",
  "TaskName": "RDMmotion",
  "TotalReadoutTime": 0.0504612,
  "TxRefAmp": 219.229,
  "dcmmeta_affine": [
    [-2.396906614303589, 0.010040231980383396, 0.06197550147771835, 104.0329818725586],
    [0.009754210710525513, 2.39768123626709, -0.01120859757065773, -100.57337951660156],
    [0.061962515115737915, 0.010942266322672367, 2.3991734981536865, -56.580989837646484],
    [0.0, 0.0, 0.0, 1.0]
],
  "dcmmeta_reorient_transform": [
    [0.0, -1.0, 0.0, 87.0],
    [1.0, 0.0, 0.0, 0.0],
    [0.0, 0.0, 1.0, 0.0],
    [0.0, 0.0, 0.0, 1.0]
],
  "dcmmeta_shape": [88, 88, 60, 125],
  "dcmmeta_slice_dim": 2,
  "dcmmeta_version": 0.6,
  "global": {
    "const": {
      "AcquisitionMatrix": [88, 0, 0, 88],
      "AngioFlag": "N",
      "BitsAllocated": 16,
      "BitsStored": 12,
      "BodyPartExamined": "BRAIN",
      "Columns": 704,
      "DeidentificationMethodCodeSequence": [
        {
          "CodeMeaning": "XNAT DicomEdit 6 Script",
          "CodeValue": "3",
          "CodingSchemeDesignator": "XNAT",
          "CodingSchemeVersion": "1.0"}
],
      "EchoNumbers": 1,
      "EchoTime": 33.0,
      "EchoTrainLength": 88,
      "FlipAngle": 62.0,
      "HighBit": 11,
      "ImageOrientationPatient": [0.9996577573688, -0.0040681067745, 0.02584218720729, 0.00418739523859, 0.99998081945733, -0.0045635992983],
      "ImagePositionPatient": [-846.2461236264, -843.50642141628, -71.34324897397],
      "ImageType": [
        "ORIGINAL",
        "PRIMARY",
        "M",
        "ND",
        "MOSAIC"
],
      "ImagedNucleus": "1H",
      "ImagingFrequency": 123.250731,
      "InPlanePhaseEncodingDirection": "COL",
      "MRAcquisitionType": "2D",
      "MagneticFieldStrength": 3.0,
      "Manufacturer": "SIEMENS",
      "ManufacturerModelName": "Prisma_fit",
      "Modality": "MR",
      "NumberOfAverages": 1.0,
      "NumberOfPhaseEncodingSteps": 88,
      "PercentPhaseFieldOfView": 100.0,
      "PercentSampling": 100.0,
      "PerformedProcedureStepStartTime": "144005.217000",
      "PhotometricInterpretation": "MONOCHROME2",
      "PixelBandwidth": 2185.0,
      "PixelRepresentation": 0,
      "PixelSpacing": [2.3977272510529, 2.3977272510529],
      "ProtocolName": "func-bold_task-RDMmotion_run-01",
      "RepetitionTime": 1200.0,
      "Rows": 704,
      "SAR": 0.048010065415,
      "SamplesPerPixel": 1,
      "ScanOptions": "FS",
      "ScanningSequence": "EP",
      "SequenceName": "*epfid2d1_88",
      "SequenceVariant": "SK",
      "SeriesDescription": "func-bold_task-RDMmotion_run-01",
      "SeriesNumber": 7,
      "SeriesTime": "145738.583000",
      "SliceLocation": -53.405344027115,
      "SliceThickness": 2.4000000953674,
      "SmallestImagePixelValue": 0,
      "SoftwareVersions": "syngo MR E11",
      "SpacingBetweenSlices": 2.3999999943822,
      "SpecificCharacterSet": "ISO_IR 100",
      "StudyID": "1",
      "StudyTime": "144005.085000",
      "TransmitCoilName": "Body",
      "VariableFlipAngleFlag": "N",
      "WindowCenterWidthExplanation": "Algo1",
      "dBdt": 0.0},
    "slices": {}
  },
  "time": {
    "samples": {
      "AcquisitionNumber": [1, 2, 3, 4, 5, 6, 7, 8, 9, 10, 11, 12, 13, 14, 15, 16, 17, 18, 19, 20, 21, 22, 23, 24, 25, 26, 27, 28, 29, 30, 31, 32, 33, 34, 35, 36, 37, 38, 39, 40, 41, 42, 43, 44, 45, 46, 47, 48, 49, 50, 51, 52, 53, 54, 55, 56, 57, 58, 59, 60, 61, 62, 63, 64, 65, 66, 67, 68, 69, 70, 71, 72, 73, 74, 75, 76, 77, 78, 79, 80, 81, 82, 83, 84, 85, 86, 87, 88, 89, 90, 91, 92, 93, 94, 95, 96, 97, 98, 99, 100, 101, 102, 103, 104, 105, 106, 107, 108, 109, 110, 111, 112, 113, 114, 115, 116, 117, 118, 119, 120, 121, 122, 123, 124, 125],
      "AcquisitionTime": ["145705.837500", "145707.037500", "145708.237500", "145709.437500", "145710.637500", "145711.837500", "145713.037500", "145714.237500", "145715.437500", "145716.637500", "145717.837500", "145719.037500", "145720.237500", "145721.437500", "145722.637500", "145723.837500", "145725.037500", "145726.237500", "145727.437500", "145728.637500", "145729.837500", "145731.037500", "145732.237500", "145733.437500", "145734.637500", "145735.837500", "145737.037500", "145738.237500", "145739.437500", "145740.637500", "145741.837500", "145743.037500", "145744.237500", "145745.437500", "145746.637500", "145747.837500", "145749.037500", "145750.237500", "145751.437500", "145752.637500", "145753.837500", "145755.037500", "145756.237500", "145757.437500", "145758.637500", "145759.837500", "145801.037500", "145802.237500", "145803.437500", "145804.637500", "145805.837500", "145807.037500", "145808.237500", "145809.437500", "145810.637500", "145811.837500", "145813.037500", "145814.237500", "145815.437500", "145816.637500", "145817.837500", "145819.037500", "145820.237500", "145821.437500", "145822.637500", "145823.837500", "145825.037500", "145826.237500", "145827.437500", "145828.637500", "145829.837500", "145831.037500", "145832.237500", "145833.437500", "145834.637500", "145835.837500", "145837.037500", "145838.237500", "145839.437500", "145840.637500", "145841.837500", "145843.037500", "145844.237500", "145845.437500", "145846.637500", "145847.837500", "145849.037500", "145850.237500", "145851.437500", "145852.637500", "145853.837500", "145855.037500", "145856.237500", "145857.437500", "145858.637500", "145859.837500", "145901.037500", "145902.237500", "145903.437500", "145904.637500", "145905.837500", "145907.037500", "145908.237500", "145909.437500", "145910.637500", "145911.837500", "145913.037500", "145914.237500", "145915.437500", "145916.637500", "145917.837500", "145919.037500", "145920.237500", "145921.437500", "145922.637500", "145923.837500", "145925.037500", "145926.237500", "145927.437500", "145928.637500", "145929.837500", "145931.037500", "145932.237500", "145933.437500", "145934.637500"],
      "ContentTime": ["145738.586000", "145738.589000", "145738.592000", "145738.594000", "145738.604000", "145738.606000", "145738.609000", "145738.611000", "145738.614000", "145738.617000", "145738.619000", "145738.622000", "145738.624000", "145738.628000", "145738.630000", "145738.633000", "145738.635000", "145738.641000", "145738.643000", "145738.646000", "145738.648000", "145738.651000", "145738.654000", "145738.656000", "145738.659000", "145738.661000", "145738.664000", "145818.581000", "145818.584000", "145818.587000", "145818.589000", "145818.592000", "145818.594000", "145818.597000", "145818.600000", "145818.602000", "145818.605000", "145818.607000", "145818.610000", "145818.613000", "145818.615000", "145818.618000", "145818.621000", "145818.623000", "145818.626000", "145818.628000", "145818.639000", "145818.641000", "145818.644000", "145818.646000", "145818.649000", "145818.652000", "145818.654000", "145818.657000", "145818.659000", "145818.662000", "145818.664000", "145818.667000", "145818.669000", "145818.672000", "145858.581000", "145858.584000", "145858.587000", "145858.589000", "145858.592000", "145858.594000", "145858.597000", "145858.600000", "145858.602000", "145858.605000", "145858.607000", "145858.610000", "145858.612000", "145858.615000", "145858.618000", "145858.620000", "145858.623000", "145858.625000", "145858.628000", "145858.630000", "145858.633000", "145858.636000", "145858.638000", "145858.641000", "145858.644000", "145858.647000", "145858.650000", "145858.652000", "145858.655000", "145858.657000", "145858.663000", "145858.666000", "145858.668000", "145935.883000", "145935.890000", "145935.893000", "145935.896000", "145935.898000", "145935.901000", "145935.904000", "145935.906000", "145935.909000", "145935.912000", "145935.914000", "145935.917000", "145935.919000", "145935.922000", "145935.925000", "145935.927000", "145935.930000", "145935.932000", "145935.935000", "145935.938000", "145935.940000", "145935.943000", "145935.945000", "145935.948000", "145935.950000", "145935.953000", "145935.956000", "145935.958000", "145935.961000", "145935.963000", "145935.966000", "145935.968000"],
      "InstanceCreationTime": ["145738.586000", "145738.589000", "145738.592000", "145738.594000", "145738.604000", "145738.606000", "145738.609000", "145738.611000", "145738.614000", "145738.617000", "145738.619000", "145738.622000", "145738.624000", "145738.628000", "145738.630000", "145738.633000", "145738.635000", "145738.641000", "145738.643000", "145738.646000", "145738.648000", "145738.651000", "145738.654000", "145738.656000", "145738.659000", "145738.661000", "145738.664000", "145818.581000", "145818.584000", "145818.587000", "145818.589000", "145818.592000", "145818.594000", "145818.597000", "145818.600000", "145818.602000", "145818.605000", "145818.607000", "145818.610000", "145818.613000", "145818.615000", "145818.618000", "145818.621000", "145818.623000", "145818.626000", "145818.628000", "145818.639000", "145818.641000", "145818.644000", "145818.646000", "145818.649000", "145818.652000", "145818.654000", "145818.657000", "145818.659000", "145818.662000", "145818.664000", "145818.667000", "145818.669000", "145818.672000", "145858.581000", "145858.584000", "145858.587000", "145858.589000", "145858.592000", "145858.594000", "145858.597000", "145858.600000", "145858.602000", "145858.605000", "145858.607000", "145858.610000", "145858.612000", "145858.615000", "145858.618000", "145858.620000", "145858.623000", "145858.625000", "145858.628000", "145858.630000", "145858.633000", "145858.636000", "145858.638000", "145858.641000", "145858.644000", "145858.647000", "145858.650000", "145858.652000", "145858.655000", "145858.657000", "145858.663000", "145858.666000", "145858.668000", "145935.883000", "145935.890000", "145935.893000", "145935.896000", "145935.898000", "145935.901000", "145935.904000", "145935.906000", "145935.909000", "145935.912000", "145935.914000", "145935.917000", "145935.919000", "145935.922000", "145935.925000", "145935.927000", "145935.930000", "145935.932000", "145935.935000", "145935.938000", "145935.940000", "145935.943000", "145935.945000", "145935.948000", "145935.950000", "145935.953000", "145935.956000", "145935.958000", "145935.961000", "145935.963000", "145935.966000", "145935.968000"],
      "InstanceNumber": [1, 2, 3, 4, 5, 6, 7, 8, 9, 10, 11, 12, 13, 14, 15, 16, 17, 18, 19, 20, 21, 22, 23, 24, 25, 26, 27, 28, 29, 30, 31, 32, 33, 34, 35, 36, 37, 38, 39, 40, 41, 42, 43, 44, 45, 46, 47, 48, 49, 50, 51, 52, 53, 54, 55, 56, 57, 58, 59, 60, 61, 62, 63, 64, 65, 66, 67, 68, 69, 70, 71, 72, 73, 74, 75, 76, 77, 78, 79, 80, 81, 82, 83, 84, 85, 86, 87, 88, 89, 90, 91, 92, 93, 94, 95, 96, 97, 98, 99, 100, 101, 102, 103, 104, 105, 106, 107, 108, 109, 110, 111, 112, 113, 114, 115, 116, 117, 118, 119, 120, 121, 122, 123, 124, 125],
      "LargestImagePixelValue": [1867, 1825, 1820, 1804, 1790, 1792, 1767, 1763, 1769, 1793, 1771, 1770, 1796, 1780, 1772, 1789, 1799, 1756, 1792, 1792, 1758, 1767, 1787, 1782, 1786, 1783, 1756, 1755, 1776, 1792, 1734, 1775, 1762, 1765, 1782, 1776, 1758, 1764, 1769, 1756, 1754, 1754, 1757, 1778, 1745, 1775, 1764, 1747, 1745, 1761, 1757, 1731, 1757, 1745, 1754, 1739, 1759, 1756, 1768, 1766, 1762, 1771, 1757, 1749, 1752, 1780, 1747, 1735, 1751, 1732, 1735, 1738, 1746, 1757, 1740, 1757, 1765, 1728, 1738, 1739, 1739, 1731, 1744, 1732, 1738, 1743, 1729, 1742, 1757, 1763, 1746, 1760, 1744, 1745, 1733, 1741, 1721, 1726, 1739, 1727, 1751, 1751, 1738, 1724, 1744, 1738, 1736, 1746, 1752, 1729, 1730, 1751, 1728, 1711, 1721, 1709, 1699, 1714, 1738, 1742, 1708, 1695, 1706, 1728, 1728],
      "WindowCenter": [600.0, 597.0, 597.0, 597.0, 598.0, 597.0, 596.0, 596.0, 595.0, 596.0, 596.0, 597.0, 597.0, 597.0, 596.0, 596.0, 597.0, 596.0, 597.0, 598.0, 598.0, 598.0, 598.0, 598.0, 597.0, 597.0, 597.0, 596.0, 596.0, 597.0, 596.0, 597.0, 598.0, 599.0, 599.0, 599.0, 598.0, 597.0, 597.0, 598.0, 598.0, 599.0, 598.0, 598.0, 597.0, 597.0, 597.0, 596.0, 595.0, 596.0, 597.0, 597.0, 597.0, 596.0, 596.0, 595.0, 596.0, 598.0, 599.0, 599.0, 598.0, 597.0, 596.0, 596.0, 597.0, 598.0, 597.0, 597.0, 597.0, 598.0, 598.0, 597.0, 597.0, 597.0, 596.0, 597.0, 598.0, 597.0, 598.0, 597.0, 598.0, 598.0, 597.0, 597.0, 596.0, 595.0, 595.0, 596.0, 597.0, 597.0, 597.0, 597.0, 597.0, 597.0, 597.0, 597.0, 596.0, 596.0, 596.0, 596.0, 597.0, 597.0, 597.0, 596.0, 596.0, 596.0, 596.0, 597.0, 597.0, 597.0, 598.0, 598.0, 597.0, 597.0, 596.0, 596.0, 596.0, 597.0, 597.0, 597.0, 596.0, 596.0, 596.0, 597.0, 598.0],
      "WindowWidth": [1276.0, 1270.0, 1269.0, 1270.0, 1271.0, 1270.0, 1267.0, 1266.0, 1265.0, 1266.0, 1267.0, 1268.0, 1269.0, 1268.0, 1268.0, 1268.0, 1268.0, 1267.0, 1269.0, 1271.0, 1270.0, 1270.0, 1271.0, 1270.0, 1270.0, 1270.0, 1270.0, 1267.0, 1267.0, 1269.0, 1267.0, 1269.0, 1271.0, 1274.0, 1274.0, 1273.0, 1270.0, 1269.0, 1269.0, 1270.0, 1272.0, 1272.0, 1271.0, 1271.0, 1268.0, 1268.0, 1268.0, 1266.0, 1265.0, 1268.0, 1269.0, 1268.0, 1269.0, 1267.0, 1266.0, 1265.0, 1268.0, 1272.0, 1273.0, 1273.0, 1271.0, 1268.0, 1267.0, 1267.0, 1268.0, 1270.0, 1270.0, 1269.0, 1269.0, 1271.0, 1270.0, 1269.0, 1269.0, 1268.0, 1267.0, 1269.0, 1271.0, 1270.0, 1270.0, 1270.0, 1271.0, 1270.0, 1269.0, 1269.0, 1267.0, 1266.0, 1266.0, 1268.0, 1268.0, 1269.0, 1269.0, 1270.0, 1269.0, 1269.0, 1269.0, 1268.0, 1268.0, 1267.0, 1267.0, 1268.0, 1270.0, 1270.0, 1268.0, 1268.0, 1267.0, 1268.0, 1268.0, 1269.0, 1269.0, 1269.0, 1271.0, 1271.0, 1269.0, 1268.0, 1268.0, 1266.0, 1268.0, 1270.0, 1270.0, 1270.0, 1268.0, 1267.0, 1268.0, 1270.0, 1272.0]
    },
    "slices": {}
  }
}