{
  "AcquisitionMatrixPE": 88,
  "AcquisitionNumber": 1,
  "AcquisitionTime": "15:32:40.075000",
  "BandwidthPerPixelPhaseEncode": 19.592,
  "BaseResolution": 88,
  "BodyPartExamined": "BRAIN",
  "ConsistencyInfo": "N4_VE11C_LATEST_20160120",
  "ConversionSoftware": "dcm2niix",
  "ConversionSoftwareVersion": "v1.0.20190902",
  "DerivedVendorReportedEchoSpacing": 0.000580014,
  "DeviceSerialNumber": "67050",
  "DwellTime": 2.6e-06,
  "EchoTime": 0.033,
  "EchoTrainLength": 88,
  "EffectiveEchoSpacing": 0.000580014,
  "FlipAngle": 62,
  "ImageOrientationPatientDICOM": [0.999658, -0.00406811, 0.0258422, 0.0041874, 0.999981, -0.0045636],
  "ImageType": [
    "ORIGINAL",
    "PRIMARY",
    "M",
    "ND",
    "MOSAIC"
],
  "ImagingFrequency": 123.251,
  "InPlanePhaseEncodingDirectionDICOM": "COL",
  "InstitutionAddress": "Olive_Street_60_Providence_RI_US_02912",
  "InstitutionName": "BROWN_UNIVERSITY_MRF",
  "InstitutionalDepartmentName": "Department",
  "MRAcquisitionType": "2D",
  "MagneticFieldStrength": 3,
  "Manufacturer": "Siemens",
  "ManufacturersModelName": "Prisma_fit",
  "Modality": "MR",
  "MultibandAccelerationFactor": 4,
  "PartialFourier": 1,
  "PatientPosition": "HFS",
  "PercentPhaseFOV": 100,
  "PhaseEncodingDirection": "j-",
  "PhaseEncodingSteps": 88,
  "PhaseResolution": 1,
  "PixelBandwidth": 2185,
  "ProcedureStepDescription": "ASHENHAV_1222",
  "ProtocolName": "func-bold_task-RDMmotion_run-04",
  "PulseSequenceDetails": "%SiemensSeq%_ep2d_bold",
  "ReceiveCoilActiveElements": "HC1-7",
  "ReceiveCoilName": "HeadNeck_64",
  "ReconMatrixPE": 88,
  "RefLinesPE": 8,
  "RepetitionTime": 1.2,
  "SAR": 0.0480101,
  "ScanOptions": "FS",
  "ScanningSequence": "EP",
  "SequenceName": "_epfid2d1_88",
  "SequenceVariant": "SK",
  "SeriesDescription": "func-bold_task-RDMmotion_run-04",
  "SeriesNumber": 13,
  "ShimSetting": [1768, -9114, 4433, 519, -29, -230, 4, 0],
  "SliceThickness": 2.4,
  "SliceTiming": [0.55, 0, 0.63, 0.08, 0.7075, 0.1575, 0.7875, 0.2375, 0.865, 0.315, 0.945, 0.395, 1.0225, 0.4725, 1.1025, 0.55, 0, 0.63, 0.08, 0.7075, 0.1575, 0.7875, 0.2375, 0.865, 0.315, 0.945, 0.395, 1.0225, 0.4725, 1.1025, 0.55, 0, 0.63, 0.08, 0.7075, 0.1575, 0.7875, 0.2375, 0.865, 0.315, 0.945, 0.395, 1.0225, 0.4725, 1.1025, 0.55, 0, 0.63, 0.08, 0.7075, 0.1575, 0.7875, 0.2375, 0.865, 0.315, 0.945, 0.395, 1.0225, 0.4725, 1.1025],
  "SoftwareVersions": "syngo_MR_E11",
  "SpacingBetweenSlices": 2.4,
  "StationName": "AWP67050",
  "TaskName": "RDMmotion",
  "TotalReadoutTime": 0.0504612,
  "TxRefAmp": 219.229,
  "dcmmeta_affine": [
    [-2.396906614303589, 0.010040231980383396, 0.06197550147771835, 104.0329818725586],
    [0.009754210710525513, 2.39768123626709, -0.01120859757065773, -100.57337951660156],
    [0.061962515115737915, 0.010942266322672367, 2.3991734981536865, -56.580989837646484],
    [0.0, 0.0, 0.0, 1.0]
],
  "dcmmeta_reorient_transform": [
    [0.0, -1.0, 0.0, 87.0],
    [1.0, 0.0, 0.0, 0.0],
    [0.0, 0.0, 1.0, 0.0],
    [0.0, 0.0, 0.0, 1.0]
],
  "dcmmeta_shape": [88, 88, 60, 125],
  "dcmmeta_slice_dim": 2,
  "dcmmeta_version": 0.6,
  "global": {
    "const": {
      "AcquisitionMatrix": [88, 0, 0, 88],
      "AngioFlag": "N",
      "BitsAllocated": 16,
      "BitsStored": 12,
      "BodyPartExamined": "BRAIN",
      "Columns": 704,
      "DeidentificationMethodCodeSequence": [
        {
          "CodeMeaning": "XNAT DicomEdit 6 Script",
          "CodeValue": "3",
          "CodingSchemeDesignator": "XNAT",
          "CodingSchemeVersion": "1.0"}
],
      "EchoNumbers": 1,
      "EchoTime": 33.0,
      "EchoTrainLength": 88,
      "FlipAngle": 62.0,
      "HighBit": 11,
      "ImageOrientationPatient": [0.9996577573688, -0.0040681067745, 0.02584218720729, 0.00418739523859, 0.99998081945733, -0.0045635992983],
      "ImagePositionPatient": [-846.2461236264, -843.50642141628, -71.34324897397],
      "ImageType": [
        "ORIGINAL",
        "PRIMARY",
        "M",
        "ND",
        "MOSAIC"
],
      "ImagedNucleus": "1H",
      "ImagingFrequency": 123.250739,
      "InPlanePhaseEncodingDirection": "COL",
      "MRAcquisitionType": "2D",
      "MagneticFieldStrength": 3.0,
      "Manufacturer": "SIEMENS",
      "ManufacturerModelName": "Prisma_fit",
      "Modality": "MR",
      "NumberOfAverages": 1.0,
      "NumberOfPhaseEncodingSteps": 88,
      "PercentPhaseFieldOfView": 100.0,
      "PercentSampling": 100.0,
      "PerformedProcedureStepStartTime": "144005.217000",
      "PhotometricInterpretation": "MONOCHROME2",
      "PixelBandwidth": 2185.0,
      "PixelRepresentation": 0,
      "PixelSpacing": [2.3977272510529, 2.3977272510529],
      "ProtocolName": "func-bold_task-RDMmotion_run-04",
      "RepetitionTime": 1200.0,
      "Rows": 704,
      "SAR": 0.048010065415,
      "SamplesPerPixel": 1,
      "ScanOptions": "FS",
      "ScanningSequence": "EP",
      "SequenceName": "*epfid2d1_88",
      "SequenceVariant": "SK",
      "SeriesDescription": "func-bold_task-RDMmotion_run-04",
      "SeriesNumber": 13,
      "SeriesTime": "153318.582000",
      "SliceLocation": -53.405344027115,
      "SliceThickness": 2.4000000953674,
      "SmallestImagePixelValue": 0,
      "SoftwareVersions": "syngo MR E11",
      "SpacingBetweenSlices": 2.3999999943822,
      "SpecificCharacterSet": "ISO_IR 100",
      "StudyID": "1",
      "StudyTime": "144005.085000",
      "TransmitCoilName": "Body",
      "VariableFlipAngleFlag": "N",
      "WindowCenterWidthExplanation": "Algo1",
      "dBdt": 0.0},
    "slices": {}
  },
  "time": {
    "samples": {
      "AcquisitionNumber": [1, 2, 3, 4, 5, 6, 7, 8, 9, 10, 11, 12, 13, 14, 15, 16, 17, 18, 19, 20, 21, 22, 23, 24, 25, 26, 27, 28, 29, 30, 31, 32, 33, 34, 35, 36, 37, 38, 39, 40, 41, 42, 43, 44, 45, 46, 47, 48, 49, 50, 51, 52, 53, 54, 55, 56, 57, 58, 59, 60, 61, 62, 63, 64, 65, 66, 67, 68, 69, 70, 71, 72, 73, 74, 75, 76, 77, 78, 79, 80, 81, 82, 83, 84, 85, 86, 87, 88, 89, 90, 91, 92, 93, 94, 95, 96, 97, 98, 99, 100, 101, 102, 103, 104, 105, 106, 107, 108, 109, 110, 111, 112, 113, 114, 115, 116, 117, 118, 119, 120, 121, 122, 123, 124, 125],
      "AcquisitionTime": ["153240.075000", "153241.275000", "153242.475000", "153243.675000", "153244.875000", "153246.075000", "153247.275000", "153248.475000", "153249.675000", "153250.875000", "153252.075000", "153253.275000", "153254.475000", "153255.675000", "153256.875000", "153258.075000", "153259.275000", "153300.475000", "153301.675000", "153302.875000", "153304.075000", "153305.275000", "153306.475000", "153307.675000", "153308.875000", "153310.075000", "153311.275000", "153312.475000", "153313.675000", "153314.875000", "153316.075000", "153317.275000", "153318.475000", "153319.675000", "153320.875000", "153322.075000", "153323.275000", "153324.475000", "153325.675000", "153326.875000", "153328.075000", "153329.275000", "153330.475000", "153331.675000", "153332.875000", "153334.075000", "153335.275000", "153336.475000", "153337.675000", "153338.875000", "153340.075000", "153341.275000", "153342.475000", "153343.675000", "153344.875000", "153346.075000", "153347.275000", "153348.475000", "153349.675000", "153350.875000", "153352.075000", "153353.275000", "153354.475000", "153355.675000", "153356.875000", "153358.075000", "153359.275000", "153400.475000", "153401.675000", "153402.875000", "153404.075000", "153405.275000", "153406.475000", "153407.675000", "153408.875000", "153410.075000", "153411.275000", "153412.475000", "153413.675000", "153414.875000", "153416.075000", "153417.275000", "153418.475000", "153419.675000", "153420.875000", "153422.075000", "153423.275000", "153424.475000", "153425.675000", "153426.875000", "153428.075000", "153429.275000", "153430.475000", "153431.675000", "153432.875000", "153434.075000", "153435.275000", "153436.475000", "153437.675000", "153438.875000", "153440.075000", "153441.275000", "153442.475000", "153443.675000", "153444.875000", "153446.075000", "153447.275000", "153448.475000", "153449.675000", "153450.875000", "153452.075000", "153453.275000", "153454.475000", "153455.675000", "153456.875000", "153458.075000", "153459.275000", "153500.475000", "153501.675000", "153502.875000", "153504.075000", "153505.275000", "153506.475000", "153507.675000", "153508.875000"],
      "ContentTime": ["153318.586000", "153318.589000", "153318.599000", "153318.602000", "153318.604000", "153318.607000", "153318.609000", "153318.612000", "153318.615000", "153318.618000", "153318.620000", "153318.623000", "153318.626000", "153318.628000", "153318.631000", "153318.633000", "153318.636000", "153318.638000", "153318.641000", "153318.649000", "153318.652000", "153318.654000", "153318.657000", "153318.659000", "153318.662000", "153318.664000", "153318.667000", "153318.669000", "153318.672000", "153318.675000", "153318.677000", "153358.581000", "153358.584000", "153358.587000", "153358.590000", "153358.592000", "153358.595000", "153358.597000", "153358.601000", "153358.604000", "153358.606000", "153358.609000", "153358.611000", "153358.614000", "153358.616000", "153358.625000", "153358.627000", "153358.630000", "153358.632000", "153358.635000", "153358.637000", "153358.640000", "153358.645000", "153358.648000", "153358.650000", "153358.653000", "153358.655000", "153358.658000", "153358.661000", "153358.663000", "153358.666000", "153358.668000", "153358.671000", "153358.673000", "153358.676000", "153438.582000", "153438.584000", "153438.587000", "153438.590000", "153438.592000", "153438.595000", "153438.598000", "153438.600000", "153438.603000", "153438.605000", "153438.608000", "153438.610000", "153438.613000", "153438.615000", "153438.618000", "153438.621000", "153438.623000", "153438.626000", "153438.628000", "153438.631000", "153438.633000", "153438.636000", "153438.638000", "153438.641000", "153438.644000", "153438.647000", "153438.668000", "153438.671000", "153438.683000", "153438.686000", "153438.689000", "153438.691000", "153438.694000", "153510.252000", "153510.255000", "153510.258000", "153510.261000", "153510.263000", "153510.266000", "153510.269000", "153510.272000", "153510.275000", "153510.277000", "153510.280000", "153510.283000", "153510.285000", "153510.288000", "153510.290000", "153510.293000", "153510.296000", "153510.299000", "153510.301000", "153510.304000", "153510.307000", "153510.309000", "153510.312000", "153510.315000", "153510.317000", "153510.320000", "153510.323000"],
      "InstanceCreationTime": ["153318.586000", "153318.589000", "153318.599000", "153318.602000", "153318.604000", "153318.607000", "153318.609000", "153318.612000", "153318.615000", "153318.618000", "153318.620000", "153318.623000", "153318.626000", "153318.628000", "153318.631000", "153318.633000", "153318.636000", "153318.638000", "153318.641000", "153318.649000", "153318.652000", "153318.654000", "153318.657000", "153318.659000", "153318.662000", "153318.664000", "153318.667000", "153318.669000", "153318.672000", "153318.675000", "153318.677000", "153358.581000", "153358.584000", "153358.587000", "153358.590000", "153358.592000", "153358.595000", "153358.597000", "153358.601000", "153358.604000", "153358.606000", "153358.609000", "153358.611000", "153358.614000", "153358.616000", "153358.625000", "153358.627000", "153358.630000", "153358.632000", "153358.635000", "153358.637000", "153358.640000", "153358.645000", "153358.648000", "153358.650000", "153358.653000", "153358.655000", "153358.658000", "153358.661000", "153358.663000", "153358.666000", "153358.668000", "153358.671000", "153358.673000", "153358.676000", "153438.582000", "153438.584000", "153438.587000", "153438.590000", "153438.592000", "153438.595000", "153438.598000", "153438.600000", "153438.603000", "153438.605000", "153438.608000", "153438.610000", "153438.613000", "153438.615000", "153438.618000", "153438.621000", "153438.623000", "153438.626000", "153438.628000", "153438.631000", "153438.633000", "153438.636000", "153438.638000", "153438.641000", "153438.644000", "153438.647000", "153438.668000", "153438.671000", "153438.683000", "153438.686000", "153438.689000", "153438.691000", "153438.694000", "153510.252000", "153510.255000", "153510.258000", "153510.261000", "153510.263000", "153510.266000", "153510.269000", "153510.272000", "153510.275000", "153510.277000", "153510.280000", "153510.283000", "153510.285000", "153510.288000", "153510.290000", "153510.293000", "153510.296000", "153510.299000", "153510.301000", "153510.304000", "153510.307000", "153510.309000", "153510.312000", "153510.315000", "153510.317000", "153510.320000", "153510.323000"],
      "InstanceNumber": [1, 2, 3, 4, 5, 6, 7, 8, 9, 10, 11, 12, 13, 14, 15, 16, 17, 18, 19, 20, 21, 22, 23, 24, 25, 26, 27, 28, 29, 30, 31, 32, 33, 34, 35, 36, 37, 38, 39, 40, 41, 42, 43, 44, 45, 46, 47, 48, 49, 50, 51, 52, 53, 54, 55, 56, 57, 58, 59, 60, 61, 62, 63, 64, 65, 66, 67, 68, 69, 70, 71, 72, 73, 74, 75, 76, 77, 78, 79, 80, 81, 82, 83, 84, 85, 86, 87, 88, 89, 90, 91, 92, 93, 94, 95, 96, 97, 98, 99, 100, 101, 102, 103, 104, 105, 106, 107, 108, 109, 110, 111, 112, 113, 114, 115, 116, 117, 118, 119, 120, 121, 122, 123, 124, 125],
      "LargestImagePixelValue": [2100, 2031, 1990, 1962, 1942, 1954, 1936, 1951, 1943, 1943, 1940, 1953, 1952, 1930, 1945, 1944, 1954, 1944, 1957, 1944, 1952, 1968, 1958, 1960, 1973, 1962, 1959, 1962, 1972, 1948, 1989, 1983, 1975, 1970, 1986, 1988, 1986, 1985, 1972, 1991, 1994, 1977, 2005, 1992, 1998, 1972, 1987, 2002, 1995, 1981, 2002, 1982, 1992, 1974, 1989, 2018, 2000, 2009, 1978, 1983, 2006, 1991, 1992, 1979, 1996, 1998, 1972, 1988, 2004, 1979, 1997, 2002, 1993, 2003, 2033, 1994, 2003, 2009, 2000, 2003, 1973, 1988, 1994, 2002, 1990, 2002, 1984, 1986, 2019, 1981, 1990, 2016, 1975, 1973, 2011, 1985, 1991, 2022, 1968, 1996, 1975, 1993, 2009, 1964, 1999, 2007, 2003, 1993, 2027, 1979, 2013, 1980, 2009, 1990, 1986, 1974, 1997, 1979, 1979, 1996, 1987, 1983, 2018, 1984, 1989],
      "WindowCenter": [607.0, 604.0, 603.0, 602.0, 602.0, 604.0, 604.0, 605.0, 604.0, 604.0, 604.0, 604.0, 604.0, 603.0, 604.0, 605.0, 605.0, 605.0, 605.0, 605.0, 605.0, 605.0, 605.0, 606.0, 607.0, 607.0, 607.0, 606.0, 605.0, 604.0, 605.0, 605.0, 605.0, 605.0, 606.0, 606.0, 605.0, 605.0, 604.0, 604.0, 604.0, 603.0, 604.0, 605.0, 605.0, 605.0, 605.0, 606.0, 605.0, 604.0, 604.0, 604.0, 604.0, 605.0, 605.0, 606.0, 605.0, 605.0, 605.0, 605.0, 604.0, 604.0, 604.0, 605.0, 605.0, 605.0, 605.0, 605.0, 605.0, 604.0, 604.0, 604.0, 604.0, 604.0, 605.0, 604.0, 604.0, 604.0, 605.0, 605.0, 605.0, 605.0, 604.0, 604.0, 604.0, 604.0, 604.0, 605.0, 606.0, 605.0, 605.0, 605.0, 605.0, 605.0, 606.0, 605.0, 605.0, 606.0, 605.0, 605.0, 604.0, 605.0, 605.0, 605.0, 605.0, 606.0, 605.0, 605.0, 605.0, 604.0, 604.0, 605.0, 606.0, 607.0, 606.0, 606.0, 605.0, 604.0, 603.0, 603.0, 603.0, 604.0, 606.0, 605.0, 606.0],
      "WindowWidth": [1291.0, 1284.0, 1281.0, 1280.0, 1281.0, 1284.0, 1285.0, 1286.0, 1285.0, 1284.0, 1285.0, 1284.0, 1284.0, 1283.0, 1285.0, 1286.0, 1287.0, 1288.0, 1287.0, 1286.0, 1287.0, 1287.0, 1287.0, 1289.0, 1292.0, 1291.0, 1291.0, 1290.0, 1288.0, 1285.0, 1286.0, 1287.0, 1287.0, 1288.0, 1289.0, 1288.0, 1288.0, 1287.0, 1285.0, 1285.0, 1284.0, 1283.0, 1283.0, 1285.0, 1287.0, 1287.0, 1288.0, 1289.0, 1287.0, 1285.0, 1285.0, 1284.0, 1285.0, 1287.0, 1287.0, 1288.0, 1288.0, 1287.0, 1286.0, 1286.0, 1285.0, 1284.0, 1285.0, 1287.0, 1288.0, 1287.0, 1287.0, 1286.0, 1286.0, 1285.0, 1285.0, 1286.0, 1286.0, 1286.0, 1286.0, 1285.0, 1285.0, 1285.0, 1287.0, 1288.0, 1286.0, 1286.0, 1285.0, 1284.0, 1284.0, 1285.0, 1286.0, 1286.0, 1288.0, 1287.0, 1287.0, 1287.0, 1287.0, 1286.0, 1288.0, 1287.0, 1287.0, 1288.0, 1286.0, 1286.0, 1286.0, 1287.0, 1286.0, 1286.0, 1288.0, 1289.0, 1288.0, 1287.0, 1287.0, 1284.0, 1285.0, 1286.0, 1288.0, 1291.0, 1291.0, 1289.0, 1288.0, 1285.0, 1283.0, 1283.0, 1282.0, 1285.0, 1288.0, 1288.0, 1289.0]
    },
    "slices": {}
  }
}