{
  "AcquisitionMatrixPE": 88,
  "AcquisitionNumber": 1,
  "AcquisitionTime": "15:47:50.777500",
  "BandwidthPerPixelPhaseEncode": 19.592,
  "BaseResolution": 88,
  "BodyPartExamined": "BRAIN",
  "ConsistencyInfo": "N4_VE11C_LATEST_20160120",
  "ConversionSoftware": "dcm2niix",
  "ConversionSoftwareVersion": "v1.0.20190902",
  "DerivedVendorReportedEchoSpacing": 0.000580014,
  "DeviceSerialNumber": "67050",
  "DwellTime": 2.6e-06,
  "EchoTime": 0.033,
  "EchoTrainLength": 88,
  "EffectiveEchoSpacing": 0.000580014,
  "FlipAngle": 62,
  "ImageOrientationPatientDICOM": [0.999658, -0.00406811, 0.0258422, 0.0041874, 0.999981, -0.0045636],
  "ImageType": [
    "ORIGINAL",
    "PRIMARY",
    "M",
    "ND",
    "MOSAIC"
],
  "ImagingFrequency": 123.251,
  "InPlanePhaseEncodingDirectionDICOM": "COL",
  "InstitutionAddress": "Olive_Street_60_Providence_RI_US_02912",
  "InstitutionName": "BROWN_UNIVERSITY_MRF",
  "InstitutionalDepartmentName": "Department",
  "MRAcquisitionType": "2D",
  "MagneticFieldStrength": 3,
  "Manufacturer": "Siemens",
  "ManufacturersModelName": "Prisma_fit",
  "Modality": "MR",
  "MultibandAccelerationFactor": 4,
  "PartialFourier": 1,
  "PatientPosition": "HFS",
  "PercentPhaseFOV": 100,
  "PhaseEncodingDirection": "j-",
  "PhaseEncodingSteps": 88,
  "PhaseResolution": 1,
  "PixelBandwidth": 2185,
  "ProcedureStepDescription": "ASHENHAV_1222",
  "ProtocolName": "func-bold_task-RDMcolor_run-05",
  "PulseSequenceDetails": "%SiemensSeq%_ep2d_bold",
  "ReceiveCoilActiveElements": "HC1-7",
  "ReceiveCoilName": "HeadNeck_64",
  "ReconMatrixPE": 88,
  "RefLinesPE": 8,
  "RepetitionTime": 1.2,
  "SAR": 0.0485024,
  "ScanOptions": "FS",
  "ScanningSequence": "EP",
  "SequenceName": "_epfid2d1_88",
  "SequenceVariant": "SK",
  "SeriesDescription": "func-bold_task-RDMcolor_run-05",
  "SeriesNumber": 16,
  "ShimSetting": [1768, -9114, 4433, 519, -29, -230, 4, 0],
  "SliceThickness": 2.4,
  "SliceTiming": [0.55, 0, 0.63, 0.0775, 0.7075, 0.1575, 0.785, 0.235, 0.865, 0.315, 0.9425, 0.3925, 1.0225, 0.4725, 1.1, 0.55, 0, 0.63, 0.0775, 0.7075, 0.1575, 0.785, 0.235, 0.865, 0.315, 0.9425, 0.3925, 1.0225, 0.4725, 1.1, 0.55, 0, 0.63, 0.0775, 0.7075, 0.1575, 0.785, 0.235, 0.865, 0.315, 0.9425, 0.3925, 1.0225, 0.4725, 1.1, 0.55, 0, 0.63, 0.0775, 0.7075, 0.1575, 0.785, 0.235, 0.865, 0.315, 0.9425, 0.3925, 1.0225, 0.4725, 1.1],
  "SoftwareVersions": "syngo_MR_E11",
  "SpacingBetweenSlices": 2.4,
  "StationName": "AWP67050",
  "TaskName": "RDMcolor",
  "TotalReadoutTime": 0.0504612,
  "TxRefAmp": 219.229,
  "dcmmeta_affine": [
    [-2.396906614303589, 0.010040231980383396, 0.06197550147771835, 104.0329818725586],
    [0.009754210710525513, 2.39768123626709, -0.01120859757065773, -100.57337951660156],
    [0.061962515115737915, 0.010942266322672367, 2.3991734981536865, -56.580989837646484],
    [0.0, 0.0, 0.0, 1.0]
],
  "dcmmeta_reorient_transform": [
    [0.0, -1.0, 0.0, 87.0],
    [1.0, 0.0, 0.0, 0.0],
    [0.0, 0.0, 1.0, 0.0],
    [0.0, 0.0, 0.0, 1.0]
],
  "dcmmeta_shape": [88, 88, 60, 392],
  "dcmmeta_slice_dim": 2,
  "dcmmeta_version": 0.6,
  "global": {
    "const": {
      "AcquisitionMatrix": [88, 0, 0, 88],
      "AngioFlag": "N",
      "BitsAllocated": 16,
      "BitsStored": 12,
      "BodyPartExamined": "BRAIN",
      "Columns": 704,
      "DeidentificationMethodCodeSequence": [
        {
          "CodeMeaning": "XNAT DicomEdit 6 Script",
          "CodeValue": "3",
          "CodingSchemeDesignator": "XNAT",
          "CodingSchemeVersion": "1.0"}
],
      "EchoNumbers": 1,
      "EchoTime": 33.0,
      "EchoTrainLength": 88,
      "FlipAngle": 62.0,
      "HighBit": 11,
      "ImageOrientationPatient": [0.9996577573688, -0.0040681067745, 0.02584218720729, 0.00418739523859, 0.99998081945733, -0.0045635992983],
      "ImagePositionPatient": [-846.2461236264, -843.50642141628, -71.34324897397],
      "ImageType": [
        "ORIGINAL",
        "PRIMARY",
        "M",
        "ND",
        "MOSAIC"
],
      "ImagedNucleus": "1H",
      "ImagingFrequency": 123.250737,
      "InPlanePhaseEncodingDirection": "COL",
      "MRAcquisitionType": "2D",
      "MagneticFieldStrength": 3.0,
      "Manufacturer": "SIEMENS",
      "ManufacturerModelName": "Prisma_fit",
      "Modality": "MR",
      "NumberOfAverages": 1.0,
      "NumberOfPhaseEncodingSteps": 88,
      "PercentPhaseFieldOfView": 100.0,
      "PercentSampling": 100.0,
      "PerformedProcedureStepStartTime": "144005.217000",
      "PhotometricInterpretation": "MONOCHROME2",
      "PixelBandwidth": 2185.0,
      "PixelRepresentation": 0,
      "PixelSpacing": [2.3977272510529, 2.3977272510529],
      "ProtocolName": "func-bold_task-RDMcolor_run-05",
      "RepetitionTime": 1200.0,
      "Rows": 704,
      "SAR": 0.04850238200254,
      "SamplesPerPixel": 1,
      "ScanOptions": "FS",
      "ScanningSequence": "EP",
      "SequenceName": "*epfid2d1_88",
      "SequenceVariant": "SK",
      "SeriesDescription": "func-bold_task-RDMcolor_run-05",
      "SeriesNumber": 16,
      "SeriesTime": "154818.583000",
      "SliceLocation": -53.405344027115,
      "SliceThickness": 2.4000000953674,
      "SmallestImagePixelValue": 0,
      "SoftwareVersions": "syngo MR E11",
      "SpacingBetweenSlices": 2.3999999943822,
      "SpecificCharacterSet": "ISO_IR 100",
      "StudyID": "1",
      "StudyTime": "144005.085000",
      "TransmitCoilName": "Body",
      "VariableFlipAngleFlag": "N",
      "WindowCenterWidthExplanation": "Algo1",
      "dBdt": 0.0},
    "slices": {}
  },
  "time": {
    "samples": {
      "AcquisitionNumber": [1, 2, 3, 4, 5, 6, 7, 8, 9, 10, 11, 12, 13, 14, 15, 16, 17, 18, 19, 20, 21, 22, 23, 24, 25, 26, 27, 28, 29, 30, 31, 32, 33, 34, 35, 36, 37, 38, 39, 40, 41, 42, 43, 44, 45, 46, 47, 48, 49, 50, 51, 52, 53, 54, 55, 56, 57, 58, 59, 60, 61, 62, 63, 64, 65, 66, 67, 68, 69, 70, 71, 72, 73, 74, 75, 76, 77, 78, 79, 80, 81, 82, 83, 84, 85, 86, 87, 88, 89, 90, 91, 92, 93, 94, 95, 96, 97, 98, 99, 100, 101, 102, 103, 104, 105, 106, 107, 108, 109, 110, 111, 112, 113, 114, 115, 116, 117, 118, 119, 120, 121, 122, 123, 124, 125, 126, 127, 128, 129, 130, 131, 132, 133, 134, 135, 136, 137, 138, 139, 140, 141, 142, 143, 144, 145, 146, 147, 148, 149, 150, 151, 152, 153, 154, 155, 156, 157, 158, 159, 160, 161, 162, 163, 164, 165, 166, 167, 168, 169, 170, 171, 172, 173, 174, 175, 176, 177, 178, 179, 180, 181, 182, 183, 184, 185, 186, 187, 188, 189, 190, 191, 192, 193, 194, 195, 196, 197, 198, 199, 200, 201, 202, 203, 204, 205, 206, 207, 208, 209, 210, 211, 212, 213, 214, 215, 216, 217, 218, 219, 220, 221, 222, 223, 224, 225, 226, 227, 228, 229, 230, 231, 232, 233, 234, 235, 236, 237, 238, 239, 240, 241, 242, 243, 244, 245, 246, 247, 248, 249, 250, 251, 252, 253, 254, 255, 256, 257, 258, 259, 260, 261, 262, 263, 264, 265, 266, 267, 268, 269, 270, 271, 272, 273, 274, 275, 276, 277, 278, 279, 280, 281, 282, 283, 284, 285, 286, 287, 288, 289, 290, 291, 292, 293, 294, 295, 296, 297, 298, 299, 300, 301, 302, 303, 304, 305, 306, 307, 308, 309, 310, 311, 312, 313, 314, 315, 316, 317, 318, 319, 320, 321, 322, 323, 324, 325, 326, 327, 328, 329, 330, 331, 332, 333, 334, 335, 336, 337, 338, 339, 340, 341, 342, 343, 344, 345, 346, 347, 348, 349, 350, 351, 352, 353, 354, 355, 356, 357, 358, 359, 360, 361, 362, 363, 364, 365, 366, 367, 368, 369, 370, 371, 372, 373, 374, 375, 376, 377, 378, 379, 380, 381, 382, 383, 384, 385, 386, 387, 388, 389, 390, 391, 392],
      "AcquisitionTime": ["154750.777500", "154751.977500", "154753.177500", "154754.377500", "154755.577500", "154756.777500", "154757.977500", "154759.177500", "154800.377500", "154801.577500", "154802.777500", "154803.977500", "154805.177500", "154806.377500", "154807.577500", "154808.777500", "154809.977500", "154811.177500", "154812.377500", "154813.577500", "154814.777500", "154815.977500", "154817.177500", "154818.377500", "154819.577500", "154820.777500", "154821.977500", "154823.177500", "154824.377500", "154825.577500", "154826.777500", "154827.977500", "154829.177500", "154830.377500", "154831.577500", "154832.777500", "154833.977500", "154835.177500", "154836.377500", "154837.577500", "154838.777500", "154839.977500", "154841.177500", "154842.377500", "154843.577500", "154844.777500", "154845.977500", "154847.177500", "154848.377500", "154849.577500", "154850.777500", "154851.977500", "154853.177500", "154854.377500", "154855.577500", "154856.777500", "154857.977500", "154859.177500", "154900.377500", "154901.577500", "154902.777500", "154903.977500", "154905.177500", "154906.377500", "154907.577500", "154908.777500", "154909.977500", "154911.177500", "154912.377500", "154913.577500", "154914.777500", "154915.977500", "154917.177500", "154918.377500", "154919.577500", "154920.777500", "154921.977500", "154923.177500", "154924.377500", "154925.577500", "154926.777500", "154927.977500", "154929.177500", "154930.377500", "154931.577500", "154932.777500", "154933.977500", "154935.177500", "154936.377500", "154937.577500", "154938.777500", "154939.977500", "154941.177500", "154942.377500", "154943.577500", "154944.777500", "154945.977500", "154947.177500", "154948.377500", "154949.577500", "154950.777500", "154951.977500", "154953.177500", "154954.377500", "154955.577500", "154956.777500", "154957.977500", "154959.177500", "155000.377500", "155001.577500", "155002.777500", "155003.977500", "155005.177500", "155006.377500", "155007.577500", "155008.777500", "155009.977500", "155011.177500", "155012.377500", "155013.577500", "155014.777500", "155015.977500", "155017.177500", "155018.377500", "155019.577500", "155020.777500", "155021.977500", "155023.177500", "155024.377500", "155025.577500", "155026.777500", "155027.977500", "155029.177500", "155030.377500", "155031.577500", "155032.777500", "155033.977500", "155035.177500", "155036.377500", "155037.577500", "155038.777500", "155039.977500", "155041.177500", "155042.377500", "155043.577500", "155044.777500", "155045.977500", "155047.177500", "155048.377500", "155049.577500", "155050.777500", "155051.977500", "155053.177500", "155054.377500", "155055.577500", "155056.777500", "155057.977500", "155059.177500", "155100.377500", "155101.577500", "155102.777500", "155103.977500", "155105.177500", "155106.377500", "155107.577500", "155108.777500", "155109.977500", "155111.177500", "155112.377500", "155113.577500", "155114.777500", "155115.977500", "155117.177500", "155118.377500", "155119.577500", "155120.777500", "155121.977500", "155123.177500", "155124.377500", "155125.577500", "155126.777500", "155127.977500", "155129.177500", "155130.377500", "155131.577500", "155132.777500", "155133.977500", "155135.177500", "155136.377500", "155137.577500", "155138.777500", "155139.977500", "155141.177500", "155142.377500", "155143.577500", "155144.777500", "155145.977500", "155147.177500", "155148.377500", "155149.577500", "155150.777500", "155151.977500", "155153.177500", "155154.377500", "155155.577500", "155156.777500", "155157.977500", "155159.177500", "155200.377500", "155201.577500", "155202.777500", "155203.977500", "155205.177500", "155206.377500", "155207.577500", "155208.777500", "155209.977500", "155211.177500", "155212.377500", "155213.577500", "155214.777500", "155215.977500", "155217.177500", "155218.377500", "155219.577500", "155220.777500", "155221.977500", "155223.177500", "155224.377500", "155225.577500", "155226.777500", "155227.977500", "155229.177500", "155230.377500", "155231.577500", "155232.777500", "155233.977500", "155235.177500", "155236.377500", "155237.577500", "155238.777500", "155239.977500", "155241.177500", "155242.377500", "155243.577500", "155244.777500", "155245.977500", "155247.177500", "155248.377500", "155249.577500", "155250.777500", "155251.977500", "155253.177500", "155254.377500", "155255.577500", "155256.777500", "155257.977500", "155259.177500", "155300.377500", "155301.577500", "155302.777500", "155303.977500", "155305.177500", "155306.377500", "155307.577500", "155308.777500", "155309.977500", "155311.177500", "155312.377500", "155313.577500", "155314.777500", "155315.977500", "155317.177500", "155318.377500", "155319.577500", "155320.777500", "155321.977500", "155323.177500", "155324.377500", "155325.577500", "155326.777500", "155327.977500", "155329.177500", "155330.377500", "155331.577500", "155332.777500", "155333.977500", "155335.177500", "155336.377500", "155337.577500", "155338.777500", "155339.977500", "155341.177500", "155342.377500", "155343.577500", "155344.777500", "155345.977500", "155347.177500", "155348.377500", "155349.577500", "155350.777500", "155351.977500", "155353.177500", "155354.377500", "155355.577500", "155356.777500", "155357.977500", "155359.177500", "155400.377500", "155401.577500", "155402.777500", "155403.977500", "155405.177500", "155406.377500", "155407.577500", "155408.777500", "155409.977500", "155411.177500", "155412.377500", "155413.577500", "155414.777500", "155415.977500", "155417.177500", "155418.377500", "155419.577500", "155420.777500", "155421.977500", "155423.177500", "155424.377500", "155425.577500", "155426.777500", "155427.977500", "155429.177500", "155430.377500", "155431.577500", "155432.777500", "155433.977500", "155435.177500", "155436.377500", "155437.577500", "155438.777500", "155439.977500", "155441.177500", "155442.377500", "155443.577500", "155444.777500", "155445.977500", "155447.177500", "155448.377500", "155449.577500", "155450.777500", "155451.977500", "155453.177500", "155454.377500", "155455.577500", "155456.777500", "155457.977500", "155459.177500", "155500.377500", "155501.577500", "155502.777500", "155503.977500", "155505.177500", "155506.377500", "155507.577500", "155508.777500", "155509.977500", "155511.177500", "155512.377500", "155513.577500", "155514.777500", "155515.977500", "155517.177500", "155518.377500", "155519.577500", "155520.777500", "155521.977500", "155523.177500", "155524.377500", "155525.577500", "155526.777500", "155527.977500", "155529.177500", "155530.377500", "155531.577500", "155532.777500", "155533.977500", "155535.177500", "155536.377500", "155537.577500", "155538.777500", "155539.977500"],
      "ContentTime": ["154818.586000", "154818.589000", "154818.592000", "154818.604000", "154818.606000", "154818.609000", "154818.612000", "154818.615000", "154818.617000", "154818.620000", "154818.622000", "154818.625000", "154818.627000", "154818.630000", "154818.633000", "154818.635000", "154818.640000", "154818.643000", "154818.646000", "154818.648000", "154818.651000", "154818.653000", "154858.581000", "154858.584000", "154858.587000", "154858.589000", "154858.592000", "154858.595000", "154858.597000", "154858.600000", "154858.602000", "154858.605000", "154858.607000", "154858.610000", "154858.612000", "154858.615000", "154858.617000", "154858.620000", "154858.622000", "154858.625000", "154858.628000", "154858.630000", "154858.633000", "154858.635000", "154858.638000", "154858.640000", "154858.643000", "154858.645000", "154858.648000", "154858.651000", "154858.653000", "154858.656000", "154858.659000", "154858.661000", "154858.664000", "154938.581000", "154938.584000", "154938.587000", "154938.589000", "154938.592000", "154938.594000", "154938.597000", "154938.599000", "154938.602000", "154938.605000", "154938.607000", "154938.610000", "154938.612000", "154938.615000", "154938.617000", "154938.620000", "154938.623000", "154938.625000", "154938.628000", "154938.630000", "154938.633000", "154938.636000", "154938.638000", "154938.641000", "154938.644000", "154938.646000", "154938.649000", "154938.651000", "154938.654000", "154938.657000", "154938.659000", "154938.662000", "154938.665000", "154938.667000", "155018.581000", "155018.584000", "155018.587000", "155018.589000", "155018.592000", "155018.595000", "155018.597000", "155018.600000", "155018.603000", "155018.605000", "155018.608000", "155018.610000", "155018.613000", "155018.616000", "155018.618000", "155018.621000", "155018.623000", "155018.626000", "155018.628000", "155018.631000", "155018.634000", "155018.636000", "155018.639000", "155018.641000", "155018.644000", "155018.646000", "155018.649000", "155018.651000", "155018.654000", "155018.657000", "155018.659000", "155018.662000", "155018.665000", "155058.582000", "155058.586000", "155058.588000", "155058.591000", "155058.593000", "155058.596000", "155058.598000", "155058.601000", "155058.604000", "155058.607000", "155058.609000", "155058.612000", "155058.614000", "155058.617000", "155058.619000", "155058.622000", "155058.625000", "155058.627000", "155058.630000", "155058.632000", "155058.635000", "155058.637000", "155058.640000", "155058.642000", "155058.645000", "155058.648000", "155058.650000", "155058.653000", "155058.655000", "155058.658000", "155058.660000", "155058.663000", "155058.665000", "155138.582000", "155138.585000", "155138.587000", "155138.590000", "155138.605000", "155138.608000", "155138.610000", "155138.613000", "155138.616000", "155138.618000", "155138.621000", "155138.623000", "155138.626000", "155138.629000", "155138.631000", "155138.634000", "155138.636000", "155138.639000", "155138.641000", "155138.644000", "155138.647000", "155138.649000", "155138.652000", "155138.655000", "155138.657000", "155138.660000", "155138.662000", "155138.665000", "155138.678000", "155138.681000", "155138.683000", "155138.686000", "155138.688000", "155138.691000", "155218.581000", "155218.584000", "155218.587000", "155218.589000", "155218.592000", "155218.595000", "155218.597000", "155218.600000", "155218.602000", "155218.605000", "155218.608000", "155218.610000", "155218.613000", "155218.615000", "155218.618000", "155218.620000", "155218.623000", "155218.626000", "155218.628000", "155218.631000", "155218.633000", "155218.636000", "155218.638000", "155218.641000", "155218.644000", "155218.646000", "155218.649000", "155218.651000", "155218.654000", "155218.657000", "155218.659000", "155218.662000", "155218.664000", "155258.582000", "155258.585000", "155258.587000", "155258.590000", "155258.592000", "155258.595000", "155258.597000", "155258.600000", "155258.603000", "155258.605000", "155258.608000", "155258.610000", "155258.613000", "155258.616000", "155258.618000", "155258.621000", "155258.624000", "155258.626000", "155258.629000", "155258.631000", "155258.641000", "155258.644000", "155258.647000", "155258.649000", "155258.652000", "155258.655000", "155258.658000", "155258.661000", "155258.674000", "155258.677000", "155258.679000", "155258.682000", "155258.685000", "155338.581000", "155338.584000", "155338.587000", "155338.589000", "155338.592000", "155338.595000", "155338.597000", "155338.600000", "155338.603000", "155338.605000", "155338.608000", "155338.611000", "155338.613000", "155338.616000", "155338.618000", "155338.621000", "155338.624000", "155338.626000", "155338.629000", "155338.631000", "155338.634000", "155338.636000", "155338.639000", "155338.642000", "155338.644000", "155338.647000", "155338.649000", "155338.652000", "155338.655000", "155338.657000", "155338.660000", "155338.662000", "155338.665000", "155338.668000", "155418.581000", "155418.584000", "155418.587000", "155418.590000", "155418.592000", "155418.595000", "155418.597000", "155418.600000", "155418.602000", "155418.605000", "155418.608000", "155418.610000", "155418.613000", "155418.615000", "155418.618000", "155418.621000", "155418.623000", "155418.626000", "155418.628000", "155418.631000", "155418.633000", "155418.636000", "155418.638000", "155418.641000", "155418.643000", "155418.646000", "155418.649000", "155418.651000", "155418.654000", "155418.657000", "155418.659000", "155418.662000", "155418.664000", "155458.581000", "155458.584000", "155458.587000", "155458.589000", "155458.592000", "155458.595000", "155458.597000", "155458.600000", "155458.603000", "155458.606000", "155458.608000", "155458.611000", "155458.613000", "155458.616000", "155458.619000", "155458.621000", "155458.624000", "155458.626000", "155458.629000", "155458.632000", "155458.634000", "155458.637000", "155458.640000", "155458.642000", "155458.645000", "155458.647000", "155458.650000", "155458.652000", "155458.655000", "155458.658000", "155458.660000", "155458.663000", "155458.665000", "155538.582000", "155538.585000", "155538.588000", "155538.591000", "155538.593000", "155538.596000", "155538.598000", "155538.601000", "155538.603000", "155538.606000", "155538.609000", "155538.611000", "155538.614000", "155538.617000", "155538.619000", "155538.622000", "155538.624000", "155538.627000", "155538.630000", "155538.632000", "155538.635000", "155538.637000", "155538.640000", "155538.642000", "155538.645000", "155538.661000", "155538.667000", "155538.670000", "155538.673000", "155538.675000", "155538.678000", "155538.680000", "155538.683000", "155538.686000", "155541.926000", "155541.928000", "155541.931000"],
      "InstanceCreationTime": ["154818.586000", "154818.589000", "154818.592000", "154818.604000", "154818.606000", "154818.609000", "154818.612000", "154818.615000", "154818.617000", "154818.620000", "154818.622000", "154818.625000", "154818.627000", "154818.630000", "154818.633000", "154818.635000", "154818.640000", "154818.643000", "154818.646000", "154818.648000", "154818.651000", "154818.653000", "154858.581000", "154858.584000", "154858.587000", "154858.589000", "154858.592000", "154858.595000", "154858.597000", "154858.600000", "154858.602000", "154858.605000", "154858.607000", "154858.610000", "154858.612000", "154858.615000", "154858.617000", "154858.620000", "154858.622000", "154858.625000", "154858.628000", "154858.630000", "154858.633000", "154858.635000", "154858.638000", "154858.640000", "154858.643000", "154858.645000", "154858.648000", "154858.651000", "154858.653000", "154858.656000", "154858.659000", "154858.661000", "154858.664000", "154938.581000", "154938.584000", "154938.587000", "154938.589000", "154938.592000", "154938.594000", "154938.597000", "154938.599000", "154938.602000", "154938.605000", "154938.607000", "154938.610000", "154938.612000", "154938.615000", "154938.617000", "154938.620000", "154938.623000", "154938.625000", "154938.628000", "154938.630000", "154938.633000", "154938.636000", "154938.638000", "154938.641000", "154938.644000", "154938.646000", "154938.649000", "154938.651000", "154938.654000", "154938.657000", "154938.659000", "154938.662000", "154938.665000", "154938.667000", "155018.581000", "155018.584000", "155018.587000", "155018.589000", "155018.592000", "155018.595000", "155018.597000", "155018.600000", "155018.603000", "155018.605000", "155018.608000", "155018.610000", "155018.613000", "155018.616000", "155018.618000", "155018.621000", "155018.623000", "155018.626000", "155018.628000", "155018.631000", "155018.634000", "155018.636000", "155018.639000", "155018.641000", "155018.644000", "155018.646000", "155018.649000", "155018.651000", "155018.654000", "155018.657000", "155018.659000", "155018.662000", "155018.665000", "155058.582000", "155058.586000", "155058.588000", "155058.591000", "155058.593000", "155058.596000", "155058.598000", "155058.601000", "155058.604000", "155058.607000", "155058.609000", "155058.612000", "155058.614000", "155058.617000", "155058.619000", "155058.622000", "155058.625000", "155058.627000", "155058.630000", "155058.632000", "155058.635000", "155058.637000", "155058.640000", "155058.642000", "155058.645000", "155058.648000", "155058.650000", "155058.653000", "155058.655000", "155058.658000", "155058.660000", "155058.663000", "155058.665000", "155138.582000", "155138.585000", "155138.587000", "155138.590000", "155138.605000", "155138.608000", "155138.610000", "155138.613000", "155138.616000", "155138.618000", "155138.621000", "155138.623000", "155138.626000", "155138.629000", "155138.631000", "155138.634000", "155138.636000", "155138.639000", "155138.641000", "155138.644000", "155138.647000", "155138.649000", "155138.652000", "155138.655000", "155138.657000", "155138.660000", "155138.662000", "155138.665000", "155138.678000", "155138.681000", "155138.683000", "155138.686000", "155138.688000", "155138.691000", "155218.581000", "155218.584000", "155218.587000", "155218.589000", "155218.592000", "155218.595000", "155218.597000", "155218.600000", "155218.602000", "155218.605000", "155218.608000", "155218.610000", "155218.613000", "155218.615000", "155218.618000", "155218.620000", "155218.623000", "155218.626000", "155218.628000", "155218.631000", "155218.633000", "155218.636000", "155218.638000", "155218.641000", "155218.644000", "155218.646000", "155218.649000", "155218.651000", "155218.654000", "155218.657000", "155218.659000", "155218.662000", "155218.664000", "155258.582000", "155258.585000", "155258.587000", "155258.590000", "155258.592000", "155258.595000", "155258.597000", "155258.600000", "155258.603000", "155258.605000", "155258.608000", "155258.610000", "155258.613000", "155258.616000", "155258.618000", "155258.621000", "155258.624000", "155258.626000", "155258.629000", "155258.631000", "155258.641000", "155258.644000", "155258.647000", "155258.649000", "155258.652000", "155258.655000", "155258.658000", "155258.661000", "155258.674000", "155258.677000", "155258.679000", "155258.682000", "155258.685000", "155338.581000", "155338.584000", "155338.587000", "155338.589000", "155338.592000", "155338.595000", "155338.597000", "155338.600000", "155338.603000", "155338.605000", "155338.608000", "155338.611000", "155338.613000", "155338.616000", "155338.618000", "155338.621000", "155338.624000", "155338.626000", "155338.629000", "155338.631000", "155338.634000", "155338.636000", "155338.639000", "155338.642000", "155338.644000", "155338.647000", "155338.649000", "155338.652000", "155338.655000", "155338.657000", "155338.660000", "155338.662000", "155338.665000", "155338.668000", "155418.581000", "155418.584000", "155418.587000", "155418.590000", "155418.592000", "155418.595000", "155418.597000", "155418.600000", "155418.602000", "155418.605000", "155418.608000", "155418.610000", "155418.613000", "155418.615000", "155418.618000", "155418.621000", "155418.623000", "155418.626000", "155418.628000", "155418.631000", "155418.633000", "155418.636000", "155418.638000", "155418.641000", "155418.643000", "155418.646000", "155418.649000", "155418.651000", "155418.654000", "155418.657000", "155418.659000", "155418.662000", "155418.664000", "155458.581000", "155458.584000", "155458.587000", "155458.589000", "155458.592000", "155458.595000", "155458.597000", "155458.600000", "155458.603000", "155458.606000", "155458.608000", "155458.611000", "155458.613000", "155458.616000", "155458.619000", "155458.621000", "155458.624000", "155458.626000", "155458.629000", "155458.632000", "155458.634000", "155458.637000", "155458.640000", "155458.642000", "155458.645000", "155458.647000", "155458.650000", "155458.652000", "155458.655000", "155458.658000", "155458.660000", "155458.663000", "155458.665000", "155538.582000", "155538.585000", "155538.588000", "155538.591000", "155538.593000", "155538.596000", "155538.598000", "155538.601000", "155538.603000", "155538.606000", "155538.609000", "155538.611000", "155538.614000", "155538.617000", "155538.619000", "155538.622000", "155538.624000", "155538.627000", "155538.630000", "155538.632000", "155538.635000", "155538.637000", "155538.640000", "155538.642000", "155538.645000", "155538.661000", "155538.667000", "155538.670000", "155538.673000", "155538.675000", "155538.678000", "155538.680000", "155538.683000", "155538.686000", "155541.926000", "155541.928000", "155541.931000"],
      "InstanceNumber": [1, 2, 3, 4, 5, 6, 7, 8, 9, 10, 11, 12, 13, 14, 15, 16, 17, 18, 19, 20, 21, 22, 23, 24, 25, 26, 27, 28, 29, 30, 31, 32, 33, 34, 35, 36, 37, 38, 39, 40, 41, 42, 43, 44, 45, 46, 47, 48, 49, 50, 51, 52, 53, 54, 55, 56, 57, 58, 59, 60, 61, 62, 63, 64, 65, 66, 67, 68, 69, 70, 71, 72, 73, 74, 75, 76, 77, 78, 79, 80, 81, 82, 83, 84, 85, 86, 87, 88, 89, 90, 91, 92, 93, 94, 95, 96, 97, 98, 99, 100, 101, 102, 103, 104, 105, 106, 107, 108, 109, 110, 111, 112, 113, 114, 115, 116, 117, 118, 119, 120, 121, 122, 123, 124, 125, 126, 127, 128, 129, 130, 131, 132, 133, 134, 135, 136, 137, 138, 139, 140, 141, 142, 143, 144, 145, 146, 147, 148, 149, 150, 151, 152, 153, 154, 155, 156, 157, 158, 159, 160, 161, 162, 163, 164, 165, 166, 167, 168, 169, 170, 171, 172, 173, 174, 175, 176, 177, 178, 179, 180, 181, 182, 183, 184, 185, 186, 187, 188, 189, 190, 191, 192, 193, 194, 195, 196, 197, 198, 199, 200, 201, 202, 203, 204, 205, 206, 207, 208, 209, 210, 211, 212, 213, 214, 215, 216, 217, 218, 219, 220, 221, 222, 223, 224, 225, 226, 227, 228, 229, 230, 231, 232, 233, 234, 235, 236, 237, 238, 239, 240, 241, 242, 243, 244, 245, 246, 247, 248, 249, 250, 251, 252, 253, 254, 255, 256, 257, 258, 259, 260, 261, 262, 263, 264, 265, 266, 267, 268, 269, 270, 271, 272, 273, 274, 275, 276, 277, 278, 279, 280, 281, 282, 283, 284, 285, 286, 287, 288, 289, 290, 291, 292, 293, 294, 295, 296, 297, 298, 299, 300, 301, 302, 303, 304, 305, 306, 307, 308, 309, 310, 311, 312, 313, 314, 315, 316, 317, 318, 319, 320, 321, 322, 323, 324, 325, 326, 327, 328, 329, 330, 331, 332, 333, 334, 335, 336, 337, 338, 339, 340, 341, 342, 343, 344, 345, 346, 347, 348, 349, 350, 351, 352, 353, 354, 355, 356, 357, 358, 359, 360, 361, 362, 363, 364, 365, 366, 367, 368, 369, 370, 371, 372, 373, 374, 375, 376, 377, 378, 379, 380, 381, 382, 383, 384, 385, 386, 387, 388, 389, 390, 391, 392],
