{
  "AcquisitionMatrixPE": 88,
  "AcquisitionNumber": 1,
  "AcquisitionTime": "15:08:46.597500",
  "BandwidthPerPixelPhaseEncode": 19.592,
  "BaseResolution": 88,
  "BodyPartExamined": "BRAIN",
  "ConsistencyInfo": "N4_VE11C_LATEST_20160120",
  "ConversionSoftware": "dcm2niix",
  "ConversionSoftwareVersion": "v1.0.20190902",
  "DerivedVendorReportedEchoSpacing": 0.000580014,
  "DeviceSerialNumber": "67050",
  "DwellTime": 2.6e-06,
  "EchoTime": 0.033,
  "EchoTrainLength": 88,
  "EffectiveEchoSpacing": 0.000580014,
  "FlipAngle": 62,
  "ImageOrientationPatientDICOM": [0.999658, -0.00406811, 0.0258422, 0.0041874, 0.999981, -0.0045636],
  "ImageType": [
    "ORIGINAL",
    "PRIMARY",
    "M",
    "ND",
    "MOSAIC"
],
  "ImagingFrequency": 123.251,
  "InPlanePhaseEncodingDirectionDICOM": "COL",
  "InstitutionAddress": "Olive_Street_60_Providence_RI_US_02912",
  "InstitutionName": "BROWN_UNIVERSITY_MRF",
  "InstitutionalDepartmentName": "Department",
  "MRAcquisitionType": "2D",
  "MagneticFieldStrength": 3,
  "Manufacturer": "Siemens",
  "ManufacturersModelName": "Prisma_fit",
  "Modality": "MR",
  "MultibandAccelerationFactor": 4,
  "PartialFourier": 1,
  "PatientPosition": "HFS",
  "PercentPhaseFOV": 100,
  "PhaseEncodingDirection": "j-",
  "PhaseEncodingSteps": 88,
  "PhaseResolution": 1,
  "PixelBandwidth": 2185,
  "ProcedureStepDescription": "ASHENHAV_1222",
  "ProtocolName": "func-bold_task-RDMmotion_run-02",
  "PulseSequenceDetails": "%SiemensSeq%_ep2d_bold",
  "ReceiveCoilActiveElements": "HC1-7",
  "ReceiveCoilName": "HeadNeck_64",
  "ReconMatrixPE": 88,
  "RefLinesPE": 8,
  "RepetitionTime": 1.2,
  "SAR": 0.0480101,
  "ScanOptions": "FS",
  "ScanningSequence": "EP",
  "SequenceName": "_epfid2d1_88",
  "SequenceVariant": "SK",
  "SeriesDescription": "func-bold_task-RDMmotion_run-02",
  "SeriesNumber": 9,
  "ShimSetting": [1768, -9114, 4433, 519, -29, -230, 4, 0],
  "SliceThickness": 2.4,
  "SliceTiming": [0.55, 0, 0.63, 0.0775, 0.7075, 0.1575, 0.785, 0.235, 0.865, 0.315, 0.9425, 0.3925, 1.0225, 0.4725, 1.1, 0.55, 0, 0.63, 0.0775, 0.7075, 0.1575, 0.785, 0.235, 0.865, 0.315, 0.9425, 0.3925, 1.0225, 0.4725, 1.1, 0.55, 0, 0.63, 0.0775, 0.7075, 0.1575, 0.785, 0.235, 0.865, 0.315, 0.9425, 0.3925, 1.0225, 0.4725, 1.1, 0.55, 0, 0.63, 0.0775, 0.7075, 0.1575, 0.785, 0.235, 0.865, 0.315, 0.9425, 0.3925, 1.0225, 0.4725, 1.1],
  "SoftwareVersions": "syngo_MR_E11",
  "SpacingBetweenSlices": 2.4,
  "StationName": "AWP67050",
  "TaskName": "RDMmotion",
  "TotalReadoutTime": 0.0504612,
  "TxRefAmp": 219.229,
  "dcmmeta_affine": [
    [-2.396906614303589, 0.010040231980383396, 0.06197550147771835, 104.0329818725586],
    [0.009754210710525513, 2.39768123626709, -0.01120859757065773, -100.57337951660156],
    [0.061962515115737915, 0.010942266322672367, 2.3991734981536865, -56.580989837646484],
    [0.0, 0.0, 0.0, 1.0]
],
  "dcmmeta_reorient_transform": [
    [0.0, -1.0, 0.0, 87.0],
    [1.0, 0.0, 0.0, 0.0],
    [0.0, 0.0, 1.0, 0.0],
    [0.0, 0.0, 0.0, 1.0]
],
  "dcmmeta_shape": [88, 88, 60, 125],
  "dcmmeta_slice_dim": 2,
  "dcmmeta_version": 0.6,
  "global": {
    "const": {
      "AcquisitionMatrix": [88, 0, 0, 88],
      "AngioFlag": "N",
      "BitsAllocated": 16,
      "BitsStored": 12,
      "BodyPartExamined": "BRAIN",
      "Columns": 704,
      "DeidentificationMethodCodeSequence": [
        {
          "CodeMeaning": "XNAT DicomEdit 6 Script",
          "CodeValue": "3",
          "CodingSchemeDesignator": "XNAT",
          "CodingSchemeVersion": "1.0"}
],
      "EchoNumbers": 1,
      "EchoTime": 33.0,
      "EchoTrainLength": 88,
      "FlipAngle": 62.0,
      "HighBit": 11,
      "ImageOrientationPatient": [0.9996577573688, -0.0040681067745, 0.02584218720729, 0.00418739523859, 0.99998081945733, -0.0045635992983],
      "ImagePositionPatient": [-846.2461236264, -843.50642141628, -71.34324897397],
      "ImageType": [
        "ORIGINAL",
        "PRIMARY",
        "M",
        "ND",
        "MOSAIC"
],
      "ImagedNucleus": "1H",
      "ImagingFrequency": 123.250735,
      "InPlanePhaseEncodingDirection": "COL",
      "MRAcquisitionType": "2D",
      "MagneticFieldStrength": 3.0,
      "Manufacturer": "SIEMENS",
      "ManufacturerModelName": "Prisma_fit",
      "Modality": "MR",
      "NumberOfAverages": 1.0,
      "NumberOfPhaseEncodingSteps": 88,
      "PercentPhaseFieldOfView": 100.0,
      "PercentSampling": 100.0,
      "PerformedProcedureStepStartTime": "144005.217000",
      "PhotometricInterpretation": "MONOCHROME2",
      "PixelBandwidth": 2185.0,
      "PixelRepresentation": 0,
      "PixelSpacing": [2.3977272510529, 2.3977272510529],
      "ProtocolName": "func-bold_task-RDMmotion_run-02",
      "RepetitionTime": 1200.0,
      "Rows": 704,
      "SAR": 0.048010065415,
      "SamplesPerPixel": 1,
      "ScanOptions": "FS",
      "ScanningSequence": "EP",
      "SequenceName": "*epfid2d1_88",
      "SequenceVariant": "SK",
      "SeriesDescription": "func-bold_task-RDMmotion_run-02",
      "SeriesNumber": 9,
      "SeriesTime": "150918.707000",
      "SliceLocation": -53.405344027115,
      "SliceThickness": 2.4000000953674,
      "SmallestImagePixelValue": 0,
      "SoftwareVersions": "syngo MR E11",
      "SpacingBetweenSlices": 2.3999999943822,
      "SpecificCharacterSet": "ISO_IR 100",
      "StudyID": "1",
      "StudyTime": "144005.085000",
      "TransmitCoilName": "Body",
      "VariableFlipAngleFlag": "N",
      "WindowCenterWidthExplanation": "Algo1",
      "dBdt": 0.0},
    "slices": {}
  },
  "time": {
    "samples": {
      "AcquisitionNumber": [1, 2, 3, 4, 5, 6, 7, 8, 9, 10, 11, 12, 13, 14, 15, 16, 17, 18, 19, 20, 21, 22, 23, 24, 25, 26, 27, 28, 29, 30, 31, 32, 33, 34, 35, 36, 37, 38, 39, 40, 41, 42, 43, 44, 45, 46, 47, 48, 49, 50, 51, 52, 53, 54, 55, 56, 57, 58, 59, 60, 61, 62, 63, 64, 65, 66, 67, 68, 69, 70, 71, 72, 73, 74, 75, 76, 77, 78, 79, 80, 81, 82, 83, 84, 85, 86, 87, 88, 89, 90, 91, 92, 93, 94, 95, 96, 97, 98, 99, 100, 101, 102, 103, 104, 105, 106, 107, 108, 109, 110, 111, 112, 113, 114, 115, 116, 117, 118, 119, 120, 121, 122, 123, 124, 125],
      "AcquisitionTime": ["150846.597500", "150847.797500", "150848.997500", "150850.197500", "150851.397500", "150852.597500", "150853.797500", "150854.997500", "150856.197500", "150857.397500", "150858.597500", "150859.797500", "150900.997500", "150902.197500", "150903.397500", "150904.597500", "150905.797500", "150906.997500", "150908.197500", "150909.397500", "150910.597500", "150911.797500", "150912.997500", "150914.197500", "150915.397500", "150916.597500", "150917.797500", "150918.997500", "150920.197500", "150921.397500", "150922.597500", "150923.797500", "150924.997500", "150926.197500", "150927.397500", "150928.597500", "150929.797500", "150930.997500", "150932.197500", "150933.397500", "150934.597500", "150935.797500", "150936.997500", "150938.197500", "150939.397500", "150940.597500", "150941.797500", "150942.997500", "150944.197500", "150945.397500", "150946.597500", "150947.797500", "150948.997500", "150950.197500", "150951.397500", "150952.597500", "150953.797500", "150954.997500", "150956.197500", "150957.397500", "150958.597500", "150959.797500", "151000.997500", "151002.197500", "151003.397500", "151004.597500", "151005.797500", "151006.997500", "151008.197500", "151009.397500", "151010.597500", "151011.797500", "151012.997500", "151014.197500", "151015.397500", "151016.597500", "151017.797500", "151018.997500", "151020.197500", "151021.397500", "151022.597500", "151023.797500", "151024.997500", "151026.197500", "151027.397500", "151028.597500", "151029.797500", "151030.997500", "151032.197500", "151033.397500", "151034.597500", "151035.797500", "151036.997500", "151038.197500", "151039.397500", "151040.597500", "151041.797500", "151042.997500", "151044.197500", "151045.397500", "151046.597500", "151047.797500", "151048.997500", "151050.197500", "151051.397500", "151052.597500", "151053.797500", "151054.997500", "151056.197500", "151057.397500", "151058.597500", "151059.797500", "151100.997500", "151102.197500", "151103.397500", "151104.597500", "151105.797500", "151106.997500", "151108.197500", "151109.397500", "151110.597500", "151111.797500", "151112.997500", "151114.197500", "151115.397500"],
      "ContentTime": ["150918.710000", "150918.713000", "150918.716000", "150918.718000", "150918.721000", "150918.724000", "150918.726000", "150918.729000", "150918.731000", "150918.734000", "150918.736000", "150918.739000", "150918.741000", "150918.744000", "150918.747000", "150918.760000", "150918.763000", "150918.765000", "150918.768000", "150918.774000", "150918.777000", "150918.779000", "150918.782000", "150918.785000", "150918.787000", "150918.790000", "150958.705000", "150958.708000", "150958.711000", "150958.713000", "150958.716000", "150958.718000", "150958.721000", "150958.724000", "150958.726000", "150958.729000", "150958.731000", "150958.734000", "150958.736000", "150958.751000", "150958.753000", "150958.756000", "150958.758000", "150958.761000", "150958.764000", "150958.767000", "150958.770000", "150958.773000", "150958.776000", "150958.778000", "150958.781000", "150958.784000", "150958.786000", "150958.789000", "150958.792000", "150958.794000", "150958.797000", "150958.800000", "150958.802000", "151038.705000", "151038.708000", "151038.711000", "151038.713000", "151038.716000", "151038.719000", "151038.721000", "151038.724000", "151038.726000", "151038.729000", "151038.731000", "151038.734000", "151038.736000", "151038.739000", "151038.742000", "151038.744000", "151038.747000", "151038.749000", "151038.752000", "151038.755000", "151038.757000", "151038.763000", "151038.766000", "151038.768000", "151038.771000", "151038.773000", "151038.776000", "151038.778000", "151038.781000", "151038.784000", "151038.786000", "151038.789000", "151038.791000", "151038.794000", "151116.802000", "151116.811000", "151116.814000", "151116.816000", "151116.819000", "151116.822000", "151116.825000", "151116.828000", "151116.830000", "151116.833000", "151116.836000", "151116.838000", "151116.841000", "151116.844000", "151116.846000", "151116.849000", "151116.851000", "151116.854000", "151116.856000", "151116.859000", "151116.861000", "151116.864000", "151116.867000", "151116.869000", "151116.872000", "151116.875000", "151116.877000", "151116.880000", "151116.882000", "151116.885000", "151116.887000", "151116.890000"],
      "InstanceCreationTime": ["150918.710000", "150918.713000", "150918.716000", "150918.718000", "150918.721000", "150918.724000", "150918.726000", "150918.729000", "150918.731000", "150918.734000", "150918.736000", "150918.739000", "150918.741000", "150918.744000", "150918.747000", "150918.760000", "150918.763000", "150918.765000", "150918.768000", "150918.774000", "150918.777000", "150918.779000", "150918.782000", "150918.785000", "150918.787000", "150918.790000", "150958.705000", "150958.708000", "150958.711000", "150958.713000", "150958.716000", "150958.718000", "150958.721000", "150958.724000", "150958.726000", "150958.729000", "150958.731000", "150958.734000", "150958.736000", "150958.751000", "150958.753000", "150958.756000", "150958.758000", "150958.761000", "150958.764000", "150958.767000", "150958.770000", "150958.773000", "150958.776000", "150958.778000", "150958.781000", "150958.784000", "150958.786000", "150958.789000", "150958.792000", "150958.794000", "150958.797000", "150958.800000", "150958.802000", "151038.705000", "151038.708000", "151038.711000", "151038.713000", "151038.716000", "151038.719000", "151038.721000", "151038.724000", "151038.726000", "151038.729000", "151038.731000", "151038.734000", "151038.736000", "151038.739000", "151038.742000", "151038.744000", "151038.747000", "151038.749000", "151038.752000", "151038.755000", "151038.757000", "151038.763000", "151038.766000", "151038.768000", "151038.771000", "151038.773000", "151038.776000", "151038.778000", "151038.781000", "151038.784000", "151038.786000", "151038.789000", "151038.791000", "151038.794000", "151116.802000", "151116.811000", "151116.814000", "151116.816000", "151116.819000", "151116.822000", "151116.825000", "151116.828000", "151116.830000", "151116.833000", "151116.836000", "151116.838000", "151116.841000", "151116.844000", "151116.846000", "151116.849000", "151116.851000", "151116.854000", "151116.856000", "151116.859000", "151116.861000", "151116.864000", "151116.867000", "151116.869000", "151116.872000", "151116.875000", "151116.877000", "151116.880000", "151116.882000", "151116.885000", "151116.887000", "151116.890000"],
      "InstanceNumber": [1, 2, 3, 4, 5, 6, 7, 8, 9, 10, 11, 12, 13, 14, 15, 16, 17, 18, 19, 20, 21, 22, 23, 24, 25, 26, 27, 28, 29, 30, 31, 32, 33, 34, 35, 36, 37, 38, 39, 40, 41, 42, 43, 44, 45, 46, 47, 48, 49, 50, 51, 52, 53, 54, 55, 56, 57, 58, 59, 60, 61, 62, 63, 64, 65, 66, 67, 68, 69, 70, 71, 72, 73, 74, 75, 76, 77, 78, 79, 80, 81, 82, 83, 84, 85, 86, 87, 88, 89, 90, 91, 92, 93, 94, 95, 96, 97, 98, 99, 100, 101, 102, 103, 104, 105, 106, 107, 108, 109, 110, 111, 112, 113, 114, 115, 116, 117, 118, 119, 120, 121, 122, 123, 124, 125],
      "LargestImagePixelValue": [1927, 1921, 1861, 1905, 1848, 1864, 1884, 1842, 1863, 1890, 1830, 1859, 1891, 1825, 1882, 1829, 1848, 1874, 1821, 1862, 1854, 1826, 1860, 1807, 1835, 1870, 1799, 1840, 1872, 1802, 1847, 1862, 1803, 1853, 1801, 1806, 1848, 1786, 1819, 1847, 1788, 1823, 1770, 1778, 1800, 1815, 1764, 1796, 1796, 1776, 1809, 1822, 1782, 1804, 1815, 1773, 1795, 1769, 1776, 1796, 1788, 1778, 1804, 1782, 1775, 1795, 1805, 1783, 1776, 1789, 1777, 1790, 1789, 1778, 1785, 1777, 1786, 1789, 1792, 1769, 1773, 1798, 1774, 1777, 1783, 1800, 1790, 1800, 1792, 1789, 1784, 1791, 1790, 1790, 1787, 1787, 1779, 1780, 1776, 1773, 1801, 1794, 1802, 1798, 1790, 1803, 1803, 1777, 1782, 1800, 1797, 1803, 1779, 1795, 1785, 1794, 1804, 1795, 1801, 1786, 1799, 1796, 1805, 1796, 1802],
      "WindowCenter": [602.0, 599.0, 598.0, 598.0, 597.0, 597.0, 596.0, 596.0, 596.0, 597.0, 596.0, 597.0, 598.0, 597.0, 597.0, 597.0, 598.0, 598.0, 597.0, 598.0, 597.0, 597.0, 598.0, 597.0, 599.0, 599.0, 598.0, 598.0, 598.0, 597.0, 598.0, 597.0, 597.0, 598.0, 597.0, 598.0, 598.0, 597.0, 598.0, 598.0, 597.0, 599.0, 599.0, 598.0, 599.0, 599.0, 597.0, 597.0, 598.0, 597.0, 598.0, 598.0, 598.0, 598.0, 598.0, 597.0, 598.0, 597.0, 597.0, 598.0, 597.0, 597.0, 597.0, 597.0, 597.0, 597.0, 596.0, 595.0, 594.0, 594.0, 595.0, 597.0, 597.0, 597.0, 597.0, 597.0, 596.0, 596.0, 596.0, 595.0, 596.0, 597.0, 597.0, 597.0, 597.0, 597.0, 597.0, 597.0, 597.0, 598.0, 598.0, 598.0, 598.0, 598.0, 597.0, 597.0, 597.0, 597.0, 596.0, 597.0, 597.0, 596.0, 597.0, 597.0, 598.0, 598.0, 598.0, 597.0, 596.0, 596.0, 597.0, 598.0, 598.0, 599.0, 598.0, 598.0, 598.0, 598.0, 598.0, 598.0, 597.0, 597.0, 597.0, 597.0, 597.0],
      "WindowWidth": [1281.0, 1275.0, 1271.0, 1272.0, 1269.0, 1268.0, 1268.0, 1267.0, 1267.0, 1269.0, 1268.0, 1269.0, 1271.0, 1268.0, 1270.0, 1269.0, 1270.0, 1271.0, 1270.0, 1270.0, 1269.0, 1269.0, 1270.0, 1269.0, 1273.0, 1273.0, 1271.0, 1272.0, 1271.0, 1269.0, 1270.0, 1270.0, 1269.0, 1271.0, 1270.0, 1271.0, 1272.0, 1270.0, 1271.0, 1271.0, 1269.0, 1273.0, 1273.0, 1273.0, 1274.0, 1274.0, 1270.0, 1270.0, 1271.0, 1270.0, 1272.0, 1272.0, 1270.0, 1271.0, 1271.0, 1269.0, 1270.0, 1271.0, 1270.0, 1271.0, 1269.0, 1268.0, 1269.0, 1270.0, 1269.0, 1268.0, 1267.0, 1264.0, 1262.0, 1263.0, 1266.0, 1269.0, 1269.0, 1269.0, 1269.0, 1269.0, 1268.0, 1268.0, 1267.0, 1266.0, 1268.0, 1270.0, 1270.0, 1269.0, 1269.0, 1269.0, 1269.0, 1269.0, 1270.0, 1271.0, 1272.0, 1272.0, 1272.0, 1271.0, 1269.0, 1269.0, 1269.0, 1269.0, 1268.0, 1269.0, 1269.0, 1267.0, 1268.0, 1270.0, 1272.0, 1273.0, 1273.0, 1270.0, 1268.0, 1267.0, 1268.0, 1271.0, 1272.0, 1274.0, 1273.0, 1272.0, 1272.0, 1272.0, 1272.0, 1271.0, 1270.0, 1270.0, 1270.0, 1270.0, 1269.0]
    },
    "slices": {}
  }
}