{
  "AcquisitionMatrixPE": 88,
  "AcquisitionNumber": 1,
  "AcquisitionTime": "15:23:52.462500",
  "BandwidthPerPixelPhaseEncode": 19.592,
  "BaseResolution": 88,
  "BodyPartExamined": "BRAIN",
  "ConsistencyInfo": "N4_VE11C_LATEST_20160120",
  "ConversionSoftware": "dcm2niix",
  "ConversionSoftwareVersion": "v1.0.20190902",
  "DerivedVendorReportedEchoSpacing": 0.000580014,
  "DeviceSerialNumber": "67050",
  "DwellTime": 2.6e-06,
  "EchoTime": 0.033,
  "EchoTrainLength": 88,
  "EffectiveEchoSpacing": 0.000580014,
  "FlipAngle": 62,
  "ImageOrientationPatientDICOM": [0.999658, -0.00406811, 0.0258422, 0.0041874, 0.999981, -0.0045636],
  "ImageType": [
    "ORIGINAL",
    "PRIMARY",
    "M",
    "ND",
    "MOSAIC"
],
  "ImagingFrequency": 123.251,
  "InPlanePhaseEncodingDirectionDICOM": "COL",
  "InstitutionAddress": "Olive_Street_60_Providence_RI_US_02912",
  "InstitutionName": "BROWN_UNIVERSITY_MRF",
  "InstitutionalDepartmentName": "Department",
  "MRAcquisitionType": "2D",
  "MagneticFieldStrength": 3,
  "Manufacturer": "Siemens",
  "ManufacturersModelName": "Prisma_fit",
  "Modality": "MR",
  "MultibandAccelerationFactor": 4,
  "PartialFourier": 1,
  "PatientPosition": "HFS",
  "PercentPhaseFOV": 100,
  "PhaseEncodingDirection": "j-",
  "PhaseEncodingSteps": 88,
  "PhaseResolution": 1,
  "PixelBandwidth": 2185,
  "ProcedureStepDescription": "ASHENHAV_1222",
  "ProtocolName": "func-bold_task-RDMcolor_run-03",
  "PulseSequenceDetails": "%SiemensSeq%_ep2d_bold",
  "ReceiveCoilActiveElements": "HC1-7",
  "ReceiveCoilName": "HeadNeck_64",
  "ReconMatrixPE": 88,
  "RefLinesPE": 8,
  "RepetitionTime": 1.2,
  "SAR": 0.0485024,
  "ScanOptions": "FS",
  "ScanningSequence": "EP",
  "SequenceName": "_epfid2d1_88",
  "SequenceVariant": "SK",
  "SeriesDescription": "func-bold_task-RDMcolor_run-03",
  "SeriesNumber": 12,
  "ShimSetting": [1768, -9114, 4433, 519, -29, -230, 4, 0],
  "SliceThickness": 2.4,
  "SliceTiming": [0.55, 0, 0.6275, 0.0775, 0.7075, 0.1575, 0.785, 0.235, 0.865, 0.315, 0.9425, 0.3925, 1.0225, 0.47, 1.1, 0.55, 0, 0.6275, 0.0775, 0.7075, 0.1575, 0.785, 0.235, 0.865, 0.315, 0.9425, 0.3925, 1.0225, 0.47, 1.1, 0.55, 0, 0.6275, 0.0775, 0.7075, 0.1575, 0.785, 0.235, 0.865, 0.315, 0.9425, 0.3925, 1.0225, 0.47, 1.1, 0.55, 0, 0.6275, 0.0775, 0.7075, 0.1575, 0.785, 0.235, 0.865, 0.315, 0.9425, 0.3925, 1.0225, 0.47, 1.1],
  "SoftwareVersions": "syngo_MR_E11",
  "SpacingBetweenSlices": 2.4,
  "StationName": "AWP67050",
  "TaskName": "RDMcolor",
  "TotalReadoutTime": 0.0504612,
  "TxRefAmp": 219.229,
  "dcmmeta_affine": [
    [-2.396906614303589, 0.010040231980383396, 0.06197550147771835, 104.0329818725586],
    [0.009754210710525513, 2.39768123626709, -0.01120859757065773, -100.57337951660156],
    [0.061962515115737915, 0.010942266322672367, 2.3991734981536865, -56.580989837646484],
    [0.0, 0.0, 0.0, 1.0]
],
  "dcmmeta_reorient_transform": [
    [0.0, -1.0, 0.0, 87.0],
    [1.0, 0.0, 0.0, 0.0],
    [0.0, 0.0, 1.0, 0.0],
    [0.0, 0.0, 0.0, 1.0]
],
  "dcmmeta_shape": [88, 88, 60, 392],
  "dcmmeta_slice_dim": 2,
  "dcmmeta_version": 0.6,
  "global": {
    "const": {
      "AcquisitionMatrix": [88, 0, 0, 88],
      "AngioFlag": "N",
      "BitsAllocated": 16,
      "BitsStored": 12,
      "BodyPartExamined": "BRAIN",
      "Columns": 704,
      "DeidentificationMethodCodeSequence": [
        {
          "CodeMeaning": "XNAT DicomEdit 6 Script",
          "CodeValue": "3",
          "CodingSchemeDesignator": "XNAT",
          "CodingSchemeVersion": "1.0"}
],
      "EchoNumbers": 1,
      "EchoTime": 33.0,
      "EchoTrainLength": 88,
      "FlipAngle": 62.0,
      "HighBit": 11,
      "ImageOrientationPatient": [0.9996577573688, -0.0040681067745, 0.02584218720729, 0.00418739523859, 0.99998081945733, -0.0045635992983],
      "ImagePositionPatient": [-846.2461236264, -843.50642141628, -71.34324897397],
      "ImageType": [
        "ORIGINAL",
        "PRIMARY",
        "M",
        "ND",
        "MOSAIC"
],
      "ImagedNucleus": "1H",
      "ImagingFrequency": 123.250737,
      "InPlanePhaseEncodingDirection": "COL",
      "MRAcquisitionType": "2D",
      "MagneticFieldStrength": 3.0,
      "Manufacturer": "SIEMENS",
      "ManufacturerModelName": "Prisma_fit",
      "Modality": "MR",
      "NumberOfAverages": 1.0,
      "NumberOfPhaseEncodingSteps": 88,
      "PercentPhaseFieldOfView": 100.0,
      "PercentSampling": 100.0,
      "PerformedProcedureStepStartTime": "144005.217000",
      "PhotometricInterpretation": "MONOCHROME2",
      "PixelBandwidth": 2185.0,
      "PixelRepresentation": 0,
      "PixelSpacing": [2.3977272510529, 2.3977272510529],
      "ProtocolName": "func-bold_task-RDMcolor_run-03",
      "RepetitionTime": 1200.0,
      "Rows": 704,
      "SAR": 0.04850238200254,
      "SamplesPerPixel": 1,
      "ScanOptions": "FS",
      "ScanningSequence": "EP",
      "SequenceName": "*epfid2d1_88",
      "SequenceVariant": "SK",
      "SeriesDescription": "func-bold_task-RDMcolor_run-03",
      "SeriesNumber": 12,
      "SeriesTime": "152418.707000",
      "SliceLocation": -53.405344027115,
      "SliceThickness": 2.4000000953674,
      "SmallestImagePixelValue": 0,
      "SoftwareVersions": "syngo MR E11",
      "SpacingBetweenSlices": 2.3999999943822,
      "SpecificCharacterSet": "ISO_IR 100",
      "StudyID": "1",
      "StudyTime": "144005.085000",
      "TransmitCoilName": "Body",
      "VariableFlipAngleFlag": "N",
      "WindowCenterWidthExplanation": "Algo1",
      "dBdt": 0.0},
    "slices": {}
  },
  "time": {
    "samples": {
      "AcquisitionNumber": [1, 2, 3, 4, 5, 6, 7, 8, 9, 10, 11, 12, 13, 14, 15, 16, 17, 18, 19, 20, 21, 22, 23, 24, 25, 26, 27, 28, 29, 30, 31, 32, 33, 34, 35, 36, 37, 38, 39, 40, 41, 42, 43, 44, 45, 46, 47, 48, 49, 50, 51, 52, 53, 54, 55, 56, 57, 58, 59, 60, 61, 62, 63, 64, 65, 66, 67, 68, 69, 70, 71, 72, 73, 74, 75, 76, 77, 78, 79, 80, 81, 82, 83, 84, 85, 86, 87, 88, 89, 90, 91, 92, 93, 94, 95, 96, 97, 98, 99, 100, 101, 102, 103, 104, 105, 106, 107, 108, 109, 110, 111, 112, 113, 114, 115, 116, 117, 118, 119, 120, 121, 122, 123, 124, 125, 126, 127, 128, 129, 130, 131, 132, 133, 134, 135, 136, 137, 138, 139, 140, 141, 142, 143, 144, 145, 146, 147, 148, 149, 150, 151, 152, 153, 154, 155, 156, 157, 158, 159, 160, 161, 162, 163, 164, 165, 166, 167, 168, 169, 170, 171, 172, 173, 174, 175, 176, 177, 178, 179, 180, 181, 182, 183, 184, 185, 186, 187, 188, 189, 190, 191, 192, 193, 194, 195, 196, 197, 198, 199, 200, 201, 202, 203, 204, 205, 206, 207, 208, 209, 210, 211, 212, 213, 214, 215, 216, 217, 218, 219, 220, 221, 222, 223, 224, 225, 226, 227, 228, 229, 230, 231, 232, 233, 234, 235, 236, 237, 238, 239, 240, 241, 242, 243, 244, 245, 246, 247, 248, 249, 250, 251, 252, 253, 254, 255, 256, 257, 258, 259, 260, 261, 262, 263, 264, 265, 266, 267, 268, 269, 270, 271, 272, 273, 274, 275, 276, 277, 278, 279, 280, 281, 282, 283, 284, 285, 286, 287, 288, 289, 290, 291, 292, 293, 294, 295, 296, 297, 298, 299, 300, 301, 302, 303, 304, 305, 306, 307, 308, 309, 310, 311, 312, 313, 314, 315, 316, 317, 318, 319, 320, 321, 322, 323, 324, 325, 326, 327, 328, 329, 330, 331, 332, 333, 334, 335, 336, 337, 338, 339, 340, 341, 342, 343, 344, 345, 346, 347, 348, 349, 350, 351, 352, 353, 354, 355, 356, 357, 358, 359, 360, 361, 362, 363, 364, 365, 366, 367, 368, 369, 370, 371, 372, 373, 374, 375, 376, 377, 378, 379, 380, 381, 382, 383, 384, 385, 386, 387, 388, 389, 390, 391, 392],
      "AcquisitionTime": ["152352.462500", "152353.662500", "152354.862500", "152356.062500", "152357.262500", "152358.462500", "152359.662500", "152400.862500", "152402.062500", "152403.262500", "152404.462500", "152405.662500", "152406.862500", "152408.062500", "152409.262500", "152410.462500", "152411.662500", "152412.862500", "152414.062500", "152415.262500", "152416.462500", "152417.662500", "152418.862500", "152420.062500", "152421.262500", "152422.462500", "152423.662500", "152424.862500", "152426.062500", "152427.262500", "152428.462500", "152429.662500", "152430.862500", "152432.062500", "152433.262500", "152434.462500", "152435.662500", "152436.862500", "152438.062500", "152439.262500", "152440.462500", "152441.662500", "152442.862500", "152444.062500", "152445.262500", "152446.462500", "152447.662500", "152448.862500", "152450.062500", "152451.262500", "152452.462500", "152453.662500", "152454.862500", "152456.062500", "152457.262500", "152458.462500", "152459.662500", "152500.862500", "152502.062500", "152503.262500", "152504.462500", "152505.662500", "152506.862500", "152508.062500", "152509.262500", "152510.462500", "152511.662500", "152512.862500", "152514.062500", "152515.262500", "152516.462500", "152517.662500", "152518.862500", "152520.062500", "152521.262500", "152522.462500", "152523.662500", "152524.862500", "152526.062500", "152527.262500", "152528.462500", "152529.662500", "152530.862500", "152532.062500", "152533.262500", "152534.462500", "152535.662500", "152536.862500", "152538.062500", "152539.262500", "152540.462500", "152541.662500", "152542.862500", "152544.062500", "152545.262500", "152546.462500", "152547.662500", "152548.862500", "152550.062500", "152551.262500", "152552.462500", "152553.662500", "152554.862500", "152556.062500", "152557.262500", "152558.462500", "152559.662500", "152600.862500", "152602.062500", "152603.262500", "152604.462500", "152605.662500", "152606.862500", "152608.062500", "152609.262500", "152610.462500", "152611.662500", "152612.862500", "152614.062500", "152615.262500", "152616.462500", "152617.662500", "152618.862500", "152620.062500", "152621.262500", "152622.462500", "152623.662500", "152624.862500", "152626.062500", "152627.262500", "152628.462500", "152629.662500", "152630.862500", "152632.062500", "152633.262500", "152634.462500", "152635.662500", "152636.862500", "152638.062500", "152639.262500", "152640.462500", "152641.662500", "152642.862500", "152644.062500", "152645.262500", "152646.462500", "152647.662500", "152648.862500", "152650.062500", "152651.262500", "152652.462500", "152653.662500", "152654.862500", "152656.062500", "152657.262500", "152658.462500", "152659.662500", "152700.862500", "152702.062500", "152703.262500", "152704.462500", "152705.662500", "152706.862500", "152708.062500", "152709.262500", "152710.462500", "152711.662500", "152712.862500", "152714.062500", "152715.262500", "152716.462500", "152717.662500", "152718.862500", "152720.062500", "152721.262500", "152722.462500", "152723.662500", "152724.862500", "152726.062500", "152727.262500", "152728.462500", "152729.662500", "152730.862500", "152732.062500", "152733.262500", "152734.462500", "152735.662500", "152736.862500", "152738.062500", "152739.262500", "152740.462500", "152741.662500", "152742.862500", "152744.062500", "152745.262500", "152746.462500", "152747.662500", "152748.862500", "152750.062500", "152751.262500", "152752.462500", "152753.662500", "152754.862500", "152756.062500", "152757.262500", "152758.462500", "152759.662500", "152800.862500", "152802.062500", "152803.262500", "152804.462500", "152805.662500", "152806.862500", "152808.062500", "152809.262500", "152810.462500", "152811.662500", "152812.862500", "152814.062500", "152815.262500", "152816.462500", "152817.662500", "152818.862500", "152820.062500", "152821.262500", "152822.462500", "152823.662500", "152824.862500", "152826.062500", "152827.262500", "152828.462500", "152829.662500", "152830.862500", "152832.062500", "152833.262500", "152834.462500", "152835.662500", "152836.862500", "152838.062500", "152839.262500", "152840.462500", "152841.662500", "152842.862500", "152844.062500", "152845.262500", "152846.462500", "152847.662500", "152848.862500", "152850.062500", "152851.262500", "152852.462500", "152853.662500", "152854.862500", "152856.062500", "152857.262500", "152858.462500", "152859.662500", "152900.862500", "152902.062500", "152903.262500", "152904.462500", "152905.662500", "152906.862500", "152908.062500", "152909.262500", "152910.462500", "152911.662500", "152912.862500", "152914.062500", "152915.262500", "152916.462500", "152917.662500", "152918.862500", "152920.062500", "152921.262500", "152922.462500", "152923.662500", "152924.862500", "152926.062500", "152927.262500", "152928.462500", "152929.662500", "152930.862500", "152932.062500", "152933.262500", "152934.462500", "152935.662500", "152936.862500", "152938.062500", "152939.262500", "152940.462500", "152941.662500", "152942.862500", "152944.062500", "152945.262500", "152946.462500", "152947.662500", "152948.862500", "152950.062500", "152951.262500", "152952.462500", "152953.662500", "152954.862500", "152956.062500", "152957.262500", "152958.462500", "152959.662500", "153000.862500", "153002.062500", "153003.262500", "153004.462500", "153005.662500", "153006.862500", "153008.062500", "153009.262500", "153010.462500", "153011.662500", "153012.862500", "153014.062500", "153015.262500", "153016.462500", "153017.662500", "153018.862500", "153020.062500", "153021.262500", "153022.462500", "153023.662500", "153024.862500", "153026.062500", "153027.262500", "153028.462500", "153029.662500", "153030.862500", "153032.062500", "153033.262500", "153034.462500", "153035.662500", "153036.862500", "153038.062500", "153039.262500", "153040.462500", "153041.662500", "153042.862500", "153044.062500", "153045.262500", "153046.462500", "153047.662500", "153048.862500", "153050.062500", "153051.262500", "153052.462500", "153053.662500", "153054.862500", "153056.062500", "153057.262500", "153058.462500", "153059.662500", "153100.862500", "153102.062500", "153103.262500", "153104.462500", "153105.662500", "153106.862500", "153108.062500", "153109.262500", "153110.462500", "153111.662500", "153112.862500", "153114.062500", "153115.262500", "153116.462500", "153117.662500", "153118.862500", "153120.062500", "153121.262500", "153122.462500", "153123.662500", "153124.862500", "153126.062500", "153127.262500", "153128.462500", "153129.662500", "153130.862500", "153132.062500", "153133.262500", "153134.462500", "153135.662500", "153136.862500", "153138.062500", "153139.262500", "153140.462500", "153141.662500"],
      "ContentTime": ["152418.710000", "152418.713000", "152418.716000", "152418.719000", "152418.721000", "152418.724000", "152418.726000", "152418.732000", "152418.735000", "152418.738000", "152418.740000", "152418.743000", "152418.745000", "152418.748000", "152418.751000", "152418.753000", "152418.761000", "152418.764000", "152418.766000", "152418.773000", "152418.775000", "152458.706000", "152458.709000", "152458.717000", "152458.720000", "152458.722000", "152458.725000", "152458.728000", "152458.730000", "152458.733000", "152458.736000", "152458.738000", "152458.741000", "152458.743000", "152458.746000", "152458.748000", "152458.751000", "152458.753000", "152458.756000", "152458.759000", "152458.761000", "152458.764000", "152458.767000", "152458.769000", "152458.772000", "152458.774000", "152458.777000", "152458.779000", "152458.782000", "152458.788000", "152458.791000", "152458.793000", "152458.796000", "152458.798000", "152458.801000", "152538.705000", "152538.708000", "152538.711000", "152538.713000", "152538.716000", "152538.719000", "152538.721000", "152538.724000", "152538.726000", "152538.729000", "152538.732000", "152538.734000", "152538.737000", "152538.739000", "152538.742000", "152538.745000", "152538.747000", "152538.750000", "152538.753000", "152538.756000", "152538.758000", "152538.761000", "152538.763000", "152538.766000", "152538.769000", "152538.771000", "152538.774000", "152538.776000", "152538.779000", "152538.781000", "152538.784000", "152538.787000", "152538.789000", "152618.706000", "152618.709000", "152618.711000", "152618.714000", "152618.716000", "152618.719000", "152618.722000", "152618.724000", "152618.727000", "152618.729000", "152618.744000", "152618.746000", "152618.749000", "152618.752000", "152618.754000", "152618.757000", "152618.759000", "152618.762000", "152618.764000", "152618.767000", "152618.769000", "152618.772000", "152618.775000", "152618.777000", "152618.780000", "152618.782000", "152618.785000", "152618.787000", "152618.790000", "152618.806000", "152618.809000", "152618.811000", "152618.814000", "152658.705000", "152658.708000", "152658.711000", "152658.713000", "152658.716000", "152658.719000", "152658.721000", "152658.724000", "152658.726000", "152658.729000", "152658.731000", "152658.734000", "152658.737000", "152658.739000", "152658.742000", "152658.744000", "152658.747000", "152658.749000", "152658.752000", "152658.754000", "152658.757000", "152658.760000", "152658.762000", "152658.765000", "152658.767000", "152658.770000", "152658.772000", "152658.775000", "152658.778000", "152658.780000", "152658.783000", "152658.785000", "152658.788000", "152658.790000", "152738.706000", "152738.709000", "152738.711000", "152738.714000", "152738.716000", "152738.719000", "152738.721000", "152738.724000", "152738.727000", "152738.729000", "152738.732000", "152738.734000", "152738.737000", "152738.739000", "152738.742000", "152738.745000", "152738.747000", "152738.750000", "152738.753000", "152738.755000", "152738.758000", "152738.761000", "152738.763000", "152738.766000", "152738.768000", "152738.771000", "152738.773000", "152738.776000", "152738.779000", "152738.781000", "152738.784000", "152738.786000", "152738.789000", "152818.705000", "152818.708000", "152818.711000", "152818.714000", "152818.716000", "152818.719000", "152818.721000", "152818.724000", "152818.726000", "152818.729000", "152818.732000", "152818.734000", "152818.737000", "152818.739000", "152818.742000", "152818.744000", "152818.747000", "152818.750000", "152818.752000", "152818.755000", "152818.757000", "152818.760000", "152818.762000", "152818.765000", "152818.767000", "152818.770000", "152818.773000", "152818.775000", "152818.778000", "152818.780000", "152818.783000", "152818.785000", "152818.788000", "152858.706000", "152858.708000", "152858.711000", "152858.714000", "152858.716000", "152858.719000", "152858.721000", "152858.724000", "152858.727000", "152858.729000", "152858.732000", "152858.734000", "152858.737000", "152858.739000", "152858.742000", "152858.745000", "152858.747000", "152858.750000", "152858.752000", "152858.755000", "152858.758000", "152858.760000", "152858.763000", "152858.765000", "152858.768000", "152858.770000", "152858.773000", "152858.775000", "152858.778000", "152858.781000", "152858.783000", "152858.786000", "152858.788000", "152858.791000", "152938.705000", "152938.708000", "152938.711000", "152938.713000", "152938.716000", "152938.719000", "152938.721000", "152938.724000", "152938.727000", "152938.729000", "152938.732000", "152938.734000", "152938.737000", "152938.740000", "152938.742000", "152938.745000", "152938.747000", "152938.750000", "152938.753000", "152938.756000", "152938.758000", "152938.761000", "152938.764000", "152938.766000", "152938.769000", "152938.771000", "152938.774000", "152938.776000", "152938.779000", "152938.782000", "152938.784000", "152938.787000", "152938.789000", "153018.705000", "153018.709000", "153018.711000", "153018.714000", "153018.716000", "153018.719000", "153018.722000", "153018.724000", "153018.727000", "153018.729000", "153018.732000", "153018.734000", "153018.737000", "153018.740000", "153018.742000", "153018.745000", "153018.747000", "153018.750000", "153018.752000", "153018.755000", "153018.757000", "153018.760000", "153018.763000", "153018.765000", "153018.768000", "153018.770000", "153018.790000", "153018.792000", "153018.795000", "153018.798000", "153018.800000", "153018.803000", "153018.805000", "153058.705000", "153058.708000", "153058.711000", "153058.713000", "153058.716000", "153058.719000", "153058.721000", "153058.724000", "153058.727000", "153058.729000", "153058.732000", "153058.735000", "153058.737000", "153058.740000", "153058.742000", "153058.745000", "153058.748000", "153058.750000", "153058.753000", "153058.755000", "153058.758000", "153058.761000", "153058.763000", "153058.766000", "153058.768000", "153058.771000", "153058.774000", "153058.776000", "153058.779000", "153058.781000", "153058.784000", "153058.786000", "153058.789000", "153058.792000", "153138.706000", "153138.709000", "153138.711000", "153138.714000", "153138.717000", "153138.719000", "153138.722000", "153138.724000", "153138.727000", "153138.729000", "153138.732000", "153138.735000", "153138.737000", "153138.740000", "153138.742000", "153138.745000", "153138.748000", "153138.750000", "153138.753000", "153138.756000", "153138.758000", "153138.761000", "153138.763000", "153138.766000", "153138.780000", "153138.783000", "153138.785000", "153138.788000", "153138.790000", "153138.793000", "153138.795000", "153138.798000", "153138.801000", "153142.900000", "153142.903000", "153142.906000", "153142.909000"],
      "InstanceCreationTime": ["152418.710000", "152418.713000", "152418.716000", "152418.719000", "152418.721000", "152418.724000", "152418.726000", "152418.732000", "152418.735000", "152418.738000", "152418.740000", "152418.743000", "152418.745000", "152418.748000", "152418.751000", "152418.753000", "152418.761000", "152418.764000", "152418.766000", "152418.773000", "152418.775000", "152458.706000", "152458.709000", "152458.717000", "152458.720000", "152458.722000", "152458.725000", "152458.728000", "152458.730000", "152458.733000", "152458.736000", "152458.738000", "152458.741000", "152458.743000", "152458.746000", "152458.748000", "152458.751000", "152458.753000", "152458.756000", "152458.759000", "152458.761000", "152458.764000", "152458.767000", "152458.769000", "152458.772000", "152458.774000", "152458.777000", "152458.779000", "152458.782000", "152458.788000", "152458.791000", "152458.793000", "152458.796000", "152458.798000", "152458.801000", "152538.705000", "152538.708000", "152538.711000", "152538.713000", "152538.716000", "152538.719000", "152538.721000", "152538.724000", "152538.726000", "152538.729000", "152538.732000", "152538.734000", "152538.737000", "152538.739000", "152538.742000", "152538.745000", "152538.747000", "152538.750000", "152538.753000", "152538.756000", "152538.758000", "152538.761000", "152538.763000", "152538.766000", "152538.769000", "152538.771000", "152538.774000", "152538.776000", "152538.779000", "152538.781000", "152538.784000", "152538.787000", "152538.789000", "152618.706000", "152618.709000", "152618.711000", "152618.714000", "152618.716000", "152618.719000", "152618.722000", "152618.724000", "152618.727000", "152618.729000", "152618.744000", "152618.746000", "152618.749000", "152618.752000", "152618.754000", "152618.757000", "152618.759000", "152618.762000", "152618.764000", "152618.767000", "152618.769000", "152618.772000", "152618.775000", "152618.777000", "152618.780000", "152618.782000", "152618.785000", "152618.787000", "152618.790000", "152618.806000", "152618.809000", "152618.811000", "152618.814000", "152658.705000", "152658.708000", "152658.711000", "152658.713000", "152658.716000", "152658.719000", "152658.721000", "152658.724000", "152658.726000", "152658.729000", "152658.731000", "152658.734000", "152658.737000", "152658.739000", "152658.742000", "152658.744000", "152658.747000", "152658.749000", "152658.752000", "152658.754000", "152658.757000", "152658.760000", "152658.762000", "152658.765000", "152658.767000", "152658.770000", "152658.772000", "152658.775000", "152658.778000", "152658.780000", "152658.783000", "152658.785000", "152658.788000", "152658.790000", "152738.706000", "152738.709000", "152738.711000", "152738.714000", "152738.716000", "152738.719000", "152738.721000", "152738.724000", "152738.727000", "152738.729000", "152738.732000", "152738.734000", "152738.737000", "152738.739000", "152738.742000", "152738.745000", "152738.747000", "152738.750000", "152738.753000", "152738.755000", "152738.758000", "152738.761000", "152738.763000", "152738.766000", "152738.768000", "152738.771000", "152738.773000", "152738.776000", "152738.779000", "152738.781000", "152738.784000", "152738.786000", "152738.789000", "152818.705000", "152818.708000", "152818.711000", "152818.714000", "152818.716000", "152818.719000", "152818.721000", "152818.724000", "152818.726000", "152818.729000", "152818.732000", "152818.734000", "152818.737000", "152818.739000", "152818.742000", "152818.744000", "152818.747000", "152818.750000", "152818.752000", "152818.755000", "152818.757000", "152818.760000", "152818.762000", "152818.765000", "152818.767000", "152818.770000", "152818.773000", "152818.775000", "152818.778000", "152818.780000", "152818.783000", "152818.785000", "152818.788000", "152858.706000", "152858.708000", "152858.711000", "152858.714000", "152858.716000", "152858.719000", "152858.721000", "152858.724000", "152858.727000", "152858.729000", "152858.732000", "152858.734000", "152858.737000", "152858.739000", "152858.742000", "152858.745000", "152858.747000", "152858.750000", "152858.752000", "152858.755000", "152858.758000", "152858.760000", "152858.763000", "152858.765000", "152858.768000", "152858.770000", "152858.773000", "152858.775000", "152858.778000", "152858.781000", "152858.783000", "152858.786000", "152858.788000", "152858.791000", "152938.705000", "152938.708000", "152938.711000", "152938.713000", "152938.716000", "152938.719000", "152938.721000", "152938.724000", "152938.727000", "152938.729000", "152938.732000", "152938.734000", "152938.737000", "152938.740000", "152938.742000", "152938.745000", "152938.747000", "152938.750000", "152938.753000", "152938.756000", "152938.758000", "152938.761000", "152938.764000", "152938.766000", "152938.769000", "152938.771000", "152938.774000", "152938.776000", "152938.779000", "152938.782000", "152938.784000", "152938.787000", "152938.789000", "153018.705000", "153018.709000", "153018.711000", "153018.714000", "153018.716000", "153018.719000", "153018.722000", "153018.724000", "153018.727000", "153018.729000", "153018.732000", "153018.734000", "153018.737000", "153018.740000", "153018.742000", "153018.745000", "153018.747000", "153018.750000", "153018.752000", "153018.755000", "153018.757000", "153018.760000", "153018.763000", "153018.765000", "153018.768000", "153018.770000", "153018.790000", "153018.792000", "153018.795000", "153018.798000", "153018.800000", "153018.803000", "153018.805000", "153058.705000", "153058.708000", "153058.711000", "153058.713000", "153058.716000", "153058.719000", "153058.721000", "153058.724000", "153058.727000", "153058.729000", "153058.732000", "153058.735000", "153058.737000", "153058.740000", "153058.742000", "153058.745000", "153058.748000", "153058.750000", "153058.753000", "153058.755000", "153058.758000", "153058.761000", "153058.763000", "153058.766000", "153058.768000", "153058.771000", "153058.774000", "153058.776000", "153058.779000", "153058.781000", "153058.784000", "153058.786000", "153058.789000", "153058.792000", "153138.706000", "153138.709000", "153138.711000", "153138.714000", "153138.717000", "153138.719000", "153138.722000", "153138.724000", "153138.727000", "153138.729000", "153138.732000", "153138.735000", "153138.737000", "153138.740000", "153138.742000", "153138.745000", "153138.748000", "153138.750000", "153138.753000", "153138.756000", "153138.758000", "153138.761000", "153138.763000", "153138.766000", "153138.780000", "153138.783000", "153138.785000", "153138.788000", "153138.790000", "153138.793000", "153138.795000", "153138.798000", "153138.801000", "153142.900000", "153142.903000", "153142.906000", "153142.909000"],
      "InstanceNumber": [1, 2, 3, 4, 5, 6, 7, 8, 9, 10, 11, 12, 13, 14, 15, 16, 17, 18, 19, 20, 21, 22, 23, 24, 25, 26, 27, 28, 29, 30, 31, 32, 33, 34, 35, 36, 37, 38, 39, 40, 41, 42, 43, 44, 45, 46, 47, 48, 49, 50, 51, 52, 53, 54, 55, 56, 57, 58, 59, 60, 61, 62, 63, 64, 65, 66, 67, 68, 69, 70, 71, 72, 73, 74, 75, 76, 77, 78, 79, 80, 81, 82, 83, 84, 85, 86, 87, 88, 89, 90, 91, 92, 93, 94, 95, 96, 97, 98, 99, 100, 101, 102, 103, 104, 105, 106, 107, 108, 109, 110, 111, 112, 113, 114, 115, 116, 117, 118, 119, 120, 121, 122, 123, 124, 125, 126, 127, 128, 129, 130, 131, 132, 133, 134, 135, 136, 137, 138, 139, 140, 141, 142, 143, 144, 145, 146, 147, 148, 149, 150, 151, 152, 153, 154, 155, 156, 157, 158, 159, 160, 161, 162, 163, 164, 165, 166, 167, 168, 169, 170, 171, 172, 173, 174, 175, 176, 177, 178, 179, 180, 181, 182, 183, 184, 185, 186, 187, 188, 189, 190, 191, 192, 193, 194, 195, 196, 197, 198, 199, 200, 201, 202, 203, 204, 205, 206, 207, 208, 209, 210, 211, 212, 213, 214, 215, 216, 217, 218, 219, 220, 221, 222, 223, 224, 225, 226, 227, 228, 229, 230, 231, 232, 233, 234, 235, 236, 237, 238, 239, 240, 241, 242, 243, 244, 245, 246, 247, 248, 249, 250, 251, 252, 253, 254, 255, 256, 257, 258, 259, 260, 261, 262, 263, 264, 265, 266, 267, 268, 269, 270, 271, 272, 273, 274, 275, 276, 277, 278, 279, 280, 281, 282, 283, 284, 285, 286, 287, 288, 289, 290, 291, 292, 293, 294, 295, 296, 297, 298, 299, 300, 301, 302, 303, 304, 305, 306, 307, 308, 309, 310, 311, 312, 313, 314, 315, 316, 317, 318, 319, 320, 321, 322, 323, 324, 325, 326, 327, 328, 329, 330, 331, 332, 333, 334, 335, 336, 337, 338, 339, 340, 341, 342, 343, 344, 345, 346, 347, 348, 349, 350, 351, 352, 353, 354, 355, 356, 357, 358, 359, 360, 361, 362, 363, 364, 365, 366, 367, 368, 369, 370, 371, 372, 373, 374, 375, 376, 377, 378, 379, 380, 381, 382, 383, 384, 385, 386, 387, 388, 389, 390, 391, 392],
