{
  "AcquisitionMatrixPE": 88,
  "AcquisitionNumber": 1,
  "AcquisitionTime": "12:00:44.725000",
  "BandwidthPerPixelPhaseEncode": 19.592,
  "BaseResolution": 88,
  "BodyPartExamined": "BRAIN",
  "ConsistencyInfo": "N4_VE11C_LATEST_20160120",
  "ConversionSoftware": "dcm2niix",
  "ConversionSoftwareVersion": "v1.0.20190902",
  "DerivedVendorReportedEchoSpacing": 0.000580014,
  "DeviceSerialNumber": "67050",
  "DwellTime": 2.6e-06,
  "EchoTime": 0.033,
  "EchoTrainLength": 88,
  "EffectiveEchoSpacing": 0.000580014,
  "FlipAngle": 62,
  "ImageOrientationPatientDICOM": [0.997424, -0.0480032, 0.0532933, 0.0522728, 0.995273, -0.0818458],
  "ImageType": [
    "ORIGINAL",
    "PRIMARY",
    "M",
    "ND",
    "MOSAIC"
],
  "ImagingFrequency": 123.251,
  "InPlanePhaseEncodingDirectionDICOM": "COL",
  "InstitutionAddress": "Olive_Street_60_Providence_RI_US_02912",
  "InstitutionName": "BROWN_UNIVERSITY_MRF",
  "InstitutionalDepartmentName": "Department",
  "MRAcquisitionType": "2D",
  "MagneticFieldStrength": 3,
  "Manufacturer": "Siemens",
  "ManufacturersModelName": "Prisma_fit",
  "Modality": "MR",
  "MultibandAccelerationFactor": 4,
  "PartialFourier": 1,
  "PatientPosition": "HFS",
  "PercentPhaseFOV": 100,
  "PhaseEncodingDirection": "j-",
  "PhaseEncodingSteps": 88,
  "PhaseResolution": 1,
  "PixelBandwidth": 2185,
  "ProcedureStepDescription": "ASHENHAV_1222",
  "ProtocolName": "func-bold_task-RDMmotion_run-05",
  "PulseSequenceDetails": "%SiemensSeq%_ep2d_bold",
  "ReceiveCoilActiveElements": "HC1-7",
  "ReceiveCoilName": "HeadNeck_64",
  "ReconMatrixPE": 88,
  "RefLinesPE": 8,
  "RepetitionTime": 1.2,
  "SAR": 0.0559722,
  "ScanOptions": "FS",
  "ScanningSequence": "EP",
  "SequenceName": "_epfid2d1_88",
  "SequenceVariant": "SK",
  "SeriesDescription": "func-bold_task-RDMmotion_run-05",
  "SeriesNumber": 15,
  "ShimSetting": [1763, -9088, 4400, 393, -46, -114, -11, -18],
  "SliceThickness": 2.4,
  "SliceTiming": [0.55, 0, 0.6275, 0.0775, 0.7075, 0.1575, 0.785, 0.235, 0.865, 0.3125, 0.9425, 0.3925, 1.0225, 0.47, 1.1, 0.55, 0, 0.6275, 0.0775, 0.7075, 0.1575, 0.785, 0.235, 0.865, 0.3125, 0.9425, 0.3925, 1.0225, 0.47, 1.1, 0.55, 0, 0.6275, 0.0775, 0.7075, 0.1575, 0.785, 0.235, 0.865, 0.3125, 0.9425, 0.3925, 1.0225, 0.47, 1.1, 0.55, 0, 0.6275, 0.0775, 0.7075, 0.1575, 0.785, 0.235, 0.865, 0.3125, 0.9425, 0.3925, 1.0225, 0.47, 1.1],
  "SoftwareVersions": "syngo_MR_E11",
  "SpacingBetweenSlices": 2.4,
  "StationName": "AWP67050",
  "TaskName": "RDMmotion",
  "TotalReadoutTime": 0.0504612,
  "TxRefAmp": 228.252,
  "dcmmeta_affine": [
    [-2.3915517330169678, 0.1253359317779541, 0.1178700253367424, 99.62566375732422],
    [0.11509868502616882, 2.3863937854766846, -0.2026098519563675, -97.7523193359375],
    [0.12778274714946747, 0.19624385237693787, 2.38852596282959, -64.01099395751953],
    [0.0, 0.0, 0.0, 1.0]
],
  "dcmmeta_reorient_transform": [
    [0.0, -1.0, 0.0, 87.0],
    [1.0, 0.0, 0.0, 0.0],
    [0.0, 0.0, 1.0, 0.0],
    [0.0, 0.0, 0.0, 1.0]
],
  "dcmmeta_shape": [88, 88, 60, 125],
  "dcmmeta_slice_dim": 2,
  "dcmmeta_version": 0.6,
  "global": {
    "const": {
      "AcquisitionMatrix": [88, 0, 0, 88],
      "AngioFlag": "N",
      "BitsAllocated": 16,
      "BitsStored": 12,
      "BodyPartExamined": "BRAIN",
      "Columns": 704,
      "DeidentificationMethodCodeSequence": [
        {
          "CodeMeaning": "XNAT DicomEdit 6 Script",
          "CodeValue": "3",
          "CodingSchemeDesignator": "XNAT",
          "CodingSchemeVersion": "1.0"}
],
      "EchoNumbers": 1,
      "EchoTime": 33.0,
      "EchoTrainLength": 88,
      "FlipAngle": 62.0,
      "HighBit": 11,
      "ImageOrientationPatient": [0.9974244408647, -0.0480032440685, 0.05329327654247, 0.05227280573031, 0.99527323992413, -0.0818457798057],
      "ImagePositionPatient": [-885.73130256621, -809.42282354443, -25.851756891126],
      "ImageType": [
        "ORIGINAL",
        "PRIMARY",
        "M",
        "ND",
        "MOSAIC"
],
      "ImagedNucleus": "1H",
      "ImagingFrequency": 123.250637,
      "InPlanePhaseEncodingDirection": "COL",
      "MRAcquisitionType": "2D",
      "MagneticFieldStrength": 3.0,
      "Manufacturer": "SIEMENS",
      "ManufacturerModelName": "Prisma_fit",
      "Modality": "MR",
      "NumberOfAverages": 1.0,
      "NumberOfPhaseEncodingSteps": 88,
      "PercentPhaseFieldOfView": 100.0,
      "PercentSampling": 100.0,
      "PerformedProcedureStepStartTime": "110350.685000",
      "PhotometricInterpretation": "MONOCHROME2",
      "PixelBandwidth": 2185.0,
      "PixelRepresentation": 0,
      "PixelSpacing": [2.3977272510529, 2.3977272510529],
      "ProtocolName": "func-bold_task-RDMmotion_run-05",
      "RepetitionTime": 1200.0,
      "Rows": 704,
      "SAR": 0.05597215009102,
      "SamplesPerPixel": 1,
      "ScanOptions": "FS",
      "ScanningSequence": "EP",
      "SequenceName": "*epfid2d1_88",
      "SequenceVariant": "SK",
      "SeriesDescription": "func-bold_task-RDMmotion_run-05",
      "SeriesNumber": 15,
      "SeriesTime": "120112.169000",
      "SliceLocation": -50.559774314888,
      "SliceThickness": 2.4000000953674,
      "SmallestImagePixelValue": 0,
      "SoftwareVersions": "syngo MR E11",
      "SpacingBetweenSlices": 2.4000000606126,
      "SpecificCharacterSet": "ISO_IR 100",
      "StudyID": "1",
      "StudyTime": "110350.614000",
      "TransmitCoilName": "Body",
      "VariableFlipAngleFlag": "N",
      "WindowCenterWidthExplanation": "Algo1",
      "dBdt": 0.0},
    "slices": {}
  },
  "time": {
    "samples": {
      "AcquisitionNumber": [1, 2, 3, 4, 5, 6, 7, 8, 9, 10, 11, 12, 13, 14, 15, 16, 17, 18, 19, 20, 21, 22, 23, 24, 25, 26, 27, 28, 29, 30, 31, 32, 33, 34, 35, 36, 37, 38, 39, 40, 41, 42, 43, 44, 45, 46, 47, 48, 49, 50, 51, 52, 53, 54, 55, 56, 57, 58, 59, 60, 61, 62, 63, 64, 65, 66, 67, 68, 69, 70, 71, 72, 73, 74, 75, 76, 77, 78, 79, 80, 81, 82, 83, 84, 85, 86, 87, 88, 89, 90, 91, 92, 93, 94, 95, 96, 97, 98, 99, 100, 101, 102, 103, 104, 105, 106, 107, 108, 109, 110, 111, 112, 113, 114, 115, 116, 117, 118, 119, 120, 121, 122, 123, 124, 125],
      "AcquisitionTime": ["120044.725000", "120045.925000", "120047.125000", "120048.325000", "120049.525000", "120050.725000", "120051.925000", "120053.125000", "120054.325000", "120055.525000", "120056.725000", "120057.925000", "120059.125000", "120100.325000", "120101.525000", "120102.725000", "120103.925000", "120105.125000", "120106.325000", "120107.525000", "120108.725000", "120109.925000", "120111.125000", "120112.325000", "120113.525000", "120114.725000", "120115.925000", "120117.125000", "120118.325000", "120119.525000", "120120.725000", "120121.925000", "120123.125000", "120124.325000", "120125.525000", "120126.725000", "120127.925000", "120129.125000", "120130.325000", "120131.525000", "120132.725000", "120133.925000", "120135.125000", "120136.325000", "120137.525000", "120138.725000", "120139.925000", "120141.125000", "120142.325000", "120143.525000", "120144.725000", "120145.925000", "120147.125000", "120148.325000", "120149.525000", "120150.725000", "120151.925000", "120153.125000", "120154.325000", "120155.525000", "120156.725000", "120157.925000", "120159.125000", "120200.325000", "120201.525000", "120202.725000", "120203.925000", "120205.125000", "120206.325000", "120207.525000", "120208.725000", "120209.925000", "120211.125000", "120212.325000", "120213.525000", "120214.725000", "120215.925000", "120217.125000", "120218.325000", "120219.525000", "120220.725000", "120221.925000", "120223.125000", "120224.325000", "120225.525000", "120226.725000", "120227.925000", "120229.125000", "120230.325000", "120231.525000", "120232.725000", "120233.925000", "120235.125000", "120236.325000", "120237.525000", "120238.725000", "120239.925000", "120241.125000", "120242.325000", "120243.525000", "120244.725000", "120245.925000", "120247.125000", "120248.325000", "120249.525000", "120250.725000", "120251.925000", "120253.125000", "120254.325000", "120255.525000", "120256.725000", "120257.925000", "120259.125000", "120300.325000", "120301.525000", "120302.725000", "120303.925000", "120305.125000", "120306.325000", "120307.525000", "120308.725000", "120309.925000", "120311.125000", "120312.325000", "120313.525000"],
      "ContentTime": ["120112.172000", "120112.175000", "120112.178000", "120112.180000", "120112.183000", "120112.186000", "120112.188000", "120112.191000", "120112.194000", "120112.196000", "120112.207000", "120112.220000", "120112.222000", "120112.225000", "120112.228000", "120112.230000", "120112.233000", "120112.244000", "120112.247000", "120112.249000", "120112.252000", "120112.255000", "120152.168000", "120152.171000", "120152.174000", "120152.177000", "120152.179000", "120152.182000", "120152.184000", "120152.187000", "120152.189000", "120152.192000", "120152.194000", "120152.197000", "120152.207000", "120152.209000", "120152.212000", "120152.215000", "120152.217000", "120152.220000", "120152.223000", "120152.225000", "120152.228000", "120152.230000", "120152.233000", "120152.235000", "120152.238000", "120152.241000", "120152.243000", "120152.246000", "120152.248000", "120152.251000", "120152.267000", "120152.270000", "120152.273000", "120232.169000", "120232.171000", "120232.174000", "120232.177000", "120232.179000", "120232.182000", "120232.185000", "120232.187000", "120232.190000", "120232.192000", "120232.195000", "120232.198000", "120232.200000", "120232.203000", "120232.205000", "120232.208000", "120232.210000", "120232.213000", "120232.216000", "120232.218000", "120232.221000", "120232.223000", "120232.226000", "120232.228000", "120232.231000", "120232.234000", "120232.237000", "120232.239000", "120232.242000", "120232.244000", "120232.247000", "120232.249000", "120232.252000", "120232.255000", "120312.168000", "120312.170000", "120312.174000", "120312.176000", "120312.179000", "120312.181000", "120312.184000", "120312.186000", "120312.189000", "120312.192000", "120312.194000", "120312.197000", "120312.199000", "120312.202000", "120312.204000", "120312.207000", "120312.210000", "120312.212000", "120312.215000", "120312.217000", "120312.220000", "120312.223000", "120312.225000", "120312.228000", "120312.230000", "120312.235000", "120312.237000", "120312.240000", "120312.243000", "120312.245000", "120312.248000", "120312.250000", "120312.253000", "120315.421000", "120315.424000", "120315.427000"],
      "InstanceCreationTime": ["120112.172000", "120112.175000", "120112.178000", "120112.180000", "120112.183000", "120112.186000", "120112.188000", "120112.191000", "120112.194000", "120112.196000", "120112.207000", "120112.220000", "120112.222000", "120112.225000", "120112.228000", "120112.230000", "120112.233000", "120112.244000", "120112.247000", "120112.249000", "120112.252000", "120112.255000", "120152.168000", "120152.171000", "120152.174000", "120152.177000", "120152.179000", "120152.182000", "120152.184000", "120152.187000", "120152.189000", "120152.192000", "120152.194000", "120152.197000", "120152.207000", "120152.209000", "120152.212000", "120152.215000", "120152.217000", "120152.220000", "120152.223000", "120152.225000", "120152.228000", "120152.230000", "120152.233000", "120152.235000", "120152.238000", "120152.241000", "120152.243000", "120152.246000", "120152.248000", "120152.251000", "120152.267000", "120152.270000", "120152.273000", "120232.169000", "120232.171000", "120232.174000", "120232.177000", "120232.179000", "120232.182000", "120232.185000", "120232.187000", "120232.190000", "120232.192000", "120232.195000", "120232.198000", "120232.200000", "120232.203000", "120232.205000", "120232.208000", "120232.210000", "120232.213000", "120232.216000", "120232.218000", "120232.221000", "120232.223000", "120232.226000", "120232.228000", "120232.231000", "120232.234000", "120232.237000", "120232.239000", "120232.242000", "120232.244000", "120232.247000", "120232.249000", "120232.252000", "120232.255000", "120312.168000", "120312.170000", "120312.174000", "120312.176000", "120312.179000", "120312.181000", "120312.184000", "120312.186000", "120312.189000", "120312.192000", "120312.194000", "120312.197000", "120312.199000", "120312.202000", "120312.204000", "120312.207000", "120312.210000", "120312.212000", "120312.215000", "120312.217000", "120312.220000", "120312.223000", "120312.225000", "120312.228000", "120312.230000", "120312.235000", "120312.237000", "120312.240000", "120312.243000", "120312.245000", "120312.248000", "120312.250000", "120312.253000", "120315.421000", "120315.424000", "120315.427000"],
      "InstanceNumber": [1, 2, 3, 4, 5, 6, 7, 8, 9, 10, 11, 12, 13, 14, 15, 16, 17, 18, 19, 20, 21, 22, 23, 24, 25, 26, 27, 28, 29, 30, 31, 32, 33, 34, 35, 36, 37, 38, 39, 40, 41, 42, 43, 44, 45, 46, 47, 48, 49, 50, 51, 52, 53, 54, 55, 56, 57, 58, 59, 60, 61, 62, 63, 64, 65, 66, 67, 68, 69, 70, 71, 72, 73, 74, 75, 76, 77, 78, 79, 80, 81, 82, 83, 84, 85, 86, 87, 88, 89, 90, 91, 92, 93, 94, 95, 96, 97, 98, 99, 100, 101, 102, 103, 104, 105, 106, 107, 108, 109, 110, 111, 112, 113, 114, 115, 116, 117, 118, 119, 120, 121, 122, 123, 124, 125],
      "LargestImagePixelValue": [2279, 2224, 2186, 2177, 2161, 2140, 2146, 2137, 2130, 2092, 2097, 2082, 2123, 2098, 2091, 2075, 2091, 2084, 2078, 2095, 2092, 2103, 2118, 2116, 2130, 2104, 2104, 2119, 2120, 2136, 2124, 2129, 2100, 2109, 2092, 2103, 2115, 2114, 2109, 2113, 2118, 2103, 2113, 2121, 2108, 2110, 2107, 2097, 2073, 2096, 2077, 2082, 2069, 2070, 2076, 2088, 2079, 2089, 2084, 2099, 2085, 2088, 2098, 2096, 2115, 2110, 2100, 2090, 2115, 2092, 2114, 2116, 2106, 2106, 2102, 2096, 2100, 2062, 2134, 2133, 2115, 2119, 2120, 2127, 2133, 2133, 2122, 2137, 2111, 2104, 2105, 2108, 2116, 2119, 2117, 2122, 2129, 2156, 2128, 2135, 2120, 2101, 2095, 2103, 2103, 2113, 2120, 2120, 2110, 2123, 2124, 2113, 2120, 2115, 2105, 2138, 2134, 2124, 2116, 2135, 2116, 2111, 2125, 2107, 2089],
      "WindowCenter": [613.0, 609.0, 608.0, 608.0, 607.0, 606.0, 607.0, 606.0, 607.0, 606.0, 605.0, 604.0, 605.0, 605.0, 605.0, 603.0, 604.0, 604.0, 603.0, 603.0, 603.0, 603.0, 604.0, 604.0, 604.0, 605.0, 605.0, 606.0, 606.0, 606.0, 606.0, 606.0, 606.0, 606.0, 606.0, 606.0, 607.0, 608.0, 607.0, 607.0, 607.0, 606.0, 606.0, 607.0, 607.0, 606.0, 606.0, 606.0, 605.0, 606.0, 605.0, 605.0, 604.0, 605.0, 605.0, 606.0, 605.0, 606.0, 606.0, 607.0, 607.0, 607.0, 607.0, 608.0, 608.0, 607.0, 607.0, 607.0, 607.0, 607.0, 608.0, 607.0, 607.0, 607.0, 607.0, 607.0, 607.0, 608.0, 609.0, 609.0, 608.0, 607.0, 607.0, 606.0, 607.0, 607.0, 606.0, 606.0, 606.0, 606.0, 606.0, 606.0, 607.0, 607.0, 607.0, 607.0, 608.0, 609.0, 608.0, 608.0, 607.0, 606.0, 605.0, 606.0, 606.0, 606.0, 607.0, 606.0, 606.0, 606.0, 605.0, 605.0, 606.0, 607.0, 608.0, 609.0, 609.0, 610.0, 610.0, 611.0, 610.0, 609.0, 609.0, 608.0, 607.0],
      "WindowWidth": [1301.0, 1291.0, 1289.0, 1289.0, 1287.0, 1286.0, 1287.0, 1286.0, 1287.0, 1285.0, 1284.0, 1282.0, 1282.0, 1283.0, 1282.0, 1279.0, 1281.0, 1280.0, 1279.0, 1280.0, 1279.0, 1279.0, 1281.0, 1281.0, 1282.0, 1283.0, 1284.0, 1285.0, 1284.0, 1286.0, 1284.0, 1285.0, 1285.0, 1286.0, 1286.0, 1286.0, 1288.0, 1289.0, 1287.0, 1287.0, 1287.0, 1286.0, 1286.0, 1287.0, 1287.0, 1286.0, 1286.0, 1285.0, 1284.0, 1285.0, 1284.0, 1283.0, 1282.0, 1283.0, 1283.0, 1284.0, 1284.0, 1286.0, 1287.0, 1287.0, 1289.0, 1287.0, 1289.0, 1290.0, 1290.0, 1288.0, 1287.0, 1287.0, 1288.0, 1288.0, 1289.0, 1289.0, 1288.0, 1287.0, 1289.0, 1288.0, 1288.0, 1290.0, 1292.0, 1291.0, 1289.0, 1288.0, 1287.0, 1286.0, 1287.0, 1287.0, 1287.0, 1286.0, 1285.0, 1285.0, 1286.0, 1287.0, 1288.0, 1288.0, 1289.0, 1289.0, 1291.0, 1292.0, 1291.0, 1290.0, 1288.0, 1285.0, 1284.0, 1286.0, 1286.0, 1287.0, 1288.0, 1286.0, 1285.0, 1285.0, 1284.0, 1285.0, 1287.0, 1288.0, 1290.0, 1292.0, 1292.0, 1294.0, 1294.0, 1296.0, 1294.0, 1293.0, 1292.0, 1290.0, 1288.0]
    },
    "slices": {}
  }
}