{
  "AcquisitionMatrixPE": 88,
  "AcquisitionNumber": 1,
  "AcquisitionTime": "12:12:25.317500",
  "BandwidthPerPixelPhaseEncode": 19.592,
  "BaseResolution": 88,
  "BodyPartExamined": "BRAIN",
  "ConsistencyInfo": "N4_VE11C_LATEST_20160120",
  "ConversionSoftware": "dcm2niix",
  "ConversionSoftwareVersion": "v1.0.20190902",
  "DerivedVendorReportedEchoSpacing": 0.000580014,
  "DeviceSerialNumber": "67050",
  "DwellTime": 2.6e-06,
  "EchoTime": 0.033,
  "EchoTrainLength": 88,
  "EffectiveEchoSpacing": 0.000580014,
  "FlipAngle": 62,
  "ImageOrientationPatientDICOM": [0.997424, -0.0480032, 0.0532933, 0.0522728, 0.995273, -0.0818458],
  "ImageType": [
    "ORIGINAL",
    "PRIMARY",
    "M",
    "ND",
    "MOSAIC"
],
  "ImagingFrequency": 123.251,
  "InPlanePhaseEncodingDirectionDICOM": "COL",
  "InstitutionAddress": "Olive_Street_60_Providence_RI_US_02912",
  "InstitutionName": "BROWN_UNIVERSITY_MRF",
  "InstitutionalDepartmentName": "Department",
  "MRAcquisitionType": "2D",
  "MagneticFieldStrength": 3,
  "Manufacturer": "Siemens",
  "ManufacturersModelName": "Prisma_fit",
  "Modality": "MR",
  "MultibandAccelerationFactor": 4,
  "PartialFourier": 1,
  "PatientPosition": "HFS",
  "PercentPhaseFOV": 100,
  "PhaseEncodingDirection": "j-",
  "PhaseEncodingSteps": 88,
  "PhaseResolution": 1,
  "PixelBandwidth": 2185,
  "ProcedureStepDescription": "ASHENHAV_1222",
  "ProtocolName": "func-bold_task-RDMmotion_run-06",
  "PulseSequenceDetails": "%SiemensSeq%_ep2d_bold",
  "ReceiveCoilActiveElements": "HC1-7",
  "ReceiveCoilName": "HeadNeck_64",
  "ReconMatrixPE": 88,
  "RefLinesPE": 8,
  "RepetitionTime": 1.2,
  "SAR": 0.0559722,
  "ScanOptions": "FS",
  "ScanningSequence": "EP",
  "SequenceName": "_epfid2d1_88",
  "SequenceVariant": "SK",
  "SeriesDescription": "func-bold_task-RDMmotion_run-06",
  "SeriesNumber": 17,
  "ShimSetting": [1763, -9088, 4400, 393, -46, -114, -11, -18],
  "SliceThickness": 2.4,
  "SliceTiming": [0.55, 0, 0.63, 0.08, 0.7075, 0.1575, 0.7875, 0.235, 0.865, 0.315, 0.945, 0.3925, 1.0225, 0.4725, 1.1025, 0.55, 0, 0.63, 0.08, 0.7075, 0.1575, 0.7875, 0.235, 0.865, 0.315, 0.945, 0.3925, 1.0225, 0.4725, 1.1025, 0.55, 0, 0.63, 0.08, 0.7075, 0.1575, 0.7875, 0.235, 0.865, 0.315, 0.945, 0.3925, 1.0225, 0.4725, 1.1025, 0.55, 0, 0.63, 0.08, 0.7075, 0.1575, 0.7875, 0.235, 0.865, 0.315, 0.945, 0.3925, 1.0225, 0.4725, 1.1025],
  "SoftwareVersions": "syngo_MR_E11",
  "SpacingBetweenSlices": 2.4,
  "StationName": "AWP67050",
  "TaskName": "RDMmotion",
  "TotalReadoutTime": 0.0504612,
  "TxRefAmp": 228.252,
  "dcmmeta_affine": [
    [-2.3915517330169678, 0.1253359317779541, 0.1178700253367424, 99.62566375732422],
    [0.11509868502616882, 2.3863937854766846, -0.2026098519563675, -97.7523193359375],
    [0.12778274714946747, 0.19624385237693787, 2.38852596282959, -64.01099395751953],
    [0.0, 0.0, 0.0, 1.0]
],
  "dcmmeta_reorient_transform": [
    [0.0, -1.0, 0.0, 87.0],
    [1.0, 0.0, 0.0, 0.0],
    [0.0, 0.0, 1.0, 0.0],
    [0.0, 0.0, 0.0, 1.0]
],
  "dcmmeta_shape": [88, 88, 60, 125],
  "dcmmeta_slice_dim": 2,
  "dcmmeta_version": 0.6,
  "global": {
    "const": {
      "AcquisitionMatrix": [88, 0, 0, 88],
      "AngioFlag": "N",
      "BitsAllocated": 16,
      "BitsStored": 12,
      "BodyPartExamined": "BRAIN",
      "Columns": 704,
      "DeidentificationMethodCodeSequence": [
        {
          "CodeMeaning": "XNAT DicomEdit 6 Script",
          "CodeValue": "3",
          "CodingSchemeDesignator": "XNAT",
          "CodingSchemeVersion": "1.0"}
],
      "EchoNumbers": 1,
      "EchoTime": 33.0,
      "EchoTrainLength": 88,
      "FlipAngle": 62.0,
      "HighBit": 11,
      "ImageOrientationPatient": [0.9974244408647, -0.0480032440685, 0.05329327654247, 0.05227280573031, 0.99527323992413, -0.0818457798057],
      "ImagePositionPatient": [-885.73130256621, -809.42282354443, -25.851756891126],
      "ImageType": [
        "ORIGINAL",
        "PRIMARY",
        "M",
        "ND",
        "MOSAIC"
],
      "ImagedNucleus": "1H",
      "ImagingFrequency": 123.250638,
      "InPlanePhaseEncodingDirection": "COL",
      "MRAcquisitionType": "2D",
      "MagneticFieldStrength": 3.0,
      "Manufacturer": "SIEMENS",
      "ManufacturerModelName": "Prisma_fit",
      "Modality": "MR",
      "NumberOfAverages": 1.0,
      "NumberOfPhaseEncodingSteps": 88,
      "PercentPhaseFieldOfView": 100.0,
      "PercentSampling": 100.0,
      "PerformedProcedureStepStartTime": "110350.685000",
      "PhotometricInterpretation": "MONOCHROME2",
      "PixelBandwidth": 2185.0,
      "PixelRepresentation": 0,
      "PixelSpacing": [2.3977272510529, 2.3977272510529],
      "ProtocolName": "func-bold_task-RDMmotion_run-06",
      "RepetitionTime": 1200.0,
      "Rows": 704,
      "SAR": 0.05597215009102,
      "SamplesPerPixel": 1,
      "ScanOptions": "FS",
      "ScanningSequence": "EP",
      "SequenceName": "*epfid2d1_88",
      "SequenceVariant": "SK",
      "SeriesDescription": "func-bold_task-RDMmotion_run-06",
      "SeriesNumber": 17,
      "SeriesTime": "121304.034000",
      "SliceLocation": -50.559774314888,
      "SliceThickness": 2.4000000953674,
      "SmallestImagePixelValue": 0,
      "SoftwareVersions": "syngo MR E11",
      "SpacingBetweenSlices": 2.4000000606126,
      "SpecificCharacterSet": "ISO_IR 100",
      "StudyID": "1",
      "StudyTime": "110350.614000",
      "TransmitCoilName": "Body",
      "VariableFlipAngleFlag": "N",
      "WindowCenterWidthExplanation": "Algo1",
      "dBdt": 0.0},
    "slices": {}
  },
  "time": {
    "samples": {
      "AcquisitionNumber": [1, 2, 3, 4, 5, 6, 7, 8, 9, 10, 11, 12, 13, 14, 15, 16, 17, 18, 19, 20, 21, 22, 23, 24, 25, 26, 27, 28, 29, 30, 31, 32, 33, 34, 35, 36, 37, 38, 39, 40, 41, 42, 43, 44, 45, 46, 47, 48, 49, 50, 51, 52, 53, 54, 55, 56, 57, 58, 59, 60, 61, 62, 63, 64, 65, 66, 67, 68, 69, 70, 71, 72, 73, 74, 75, 76, 77, 78, 79, 80, 81, 82, 83, 84, 85, 86, 87, 88, 89, 90, 91, 92, 93, 94, 95, 96, 97, 98, 99, 100, 101, 102, 103, 104, 105, 106, 107, 108, 109, 110, 111, 112, 113, 114, 115, 116, 117, 118, 119, 120, 121, 122, 123, 124, 125],
      "AcquisitionTime": ["121225.317500", "121226.517500", "121227.717500", "121228.917500", "121230.117500", "121231.317500", "121232.517500", "121233.717500", "121234.917500", "121236.117500", "121237.317500", "121238.517500", "121239.717500", "121240.917500", "121242.117500", "121243.317500", "121244.517500", "121245.717500", "121246.917500", "121248.117500", "121249.317500", "121250.517500", "121251.717500", "121252.917500", "121254.117500", "121255.317500", "121256.517500", "121257.717500", "121258.917500", "121300.117500", "121301.317500", "121302.517500", "121303.717500", "121304.917500", "121306.117500", "121307.317500", "121308.517500", "121309.717500", "121310.917500", "121312.117500", "121313.317500", "121314.517500", "121315.717500", "121316.917500", "121318.117500", "121319.317500", "121320.517500", "121321.717500", "121322.917500", "121324.117500", "121325.317500", "121326.517500", "121327.717500", "121328.917500", "121330.117500", "121331.317500", "121332.517500", "121333.717500", "121334.917500", "121336.117500", "121337.317500", "121338.517500", "121339.717500", "121340.917500", "121342.117500", "121343.317500", "121344.517500", "121345.717500", "121346.917500", "121348.117500", "121349.317500", "121350.517500", "121351.717500", "121352.917500", "121354.117500", "121355.317500", "121356.517500", "121357.717500", "121358.917500", "121400.117500", "121401.317500", "121402.517500", "121403.717500", "121404.917500", "121406.117500", "121407.317500", "121408.517500", "121409.717500", "121410.917500", "121412.117500", "121413.317500", "121414.517500", "121415.717500", "121416.917500", "121418.117500", "121419.317500", "121420.517500", "121421.717500", "121422.917500", "121424.117500", "121425.317500", "121426.517500", "121427.717500", "121428.917500", "121430.117500", "121431.317500", "121432.517500", "121433.717500", "121434.917500", "121436.117500", "121437.317500", "121438.517500", "121439.717500", "121440.917500", "121442.117500", "121443.317500", "121444.517500", "121445.717500", "121446.917500", "121448.117500", "121449.317500", "121450.517500", "121451.717500", "121452.917500", "121454.117500"],
      "ContentTime": ["121304.038000", "121304.041000", "121304.044000", "121304.046000", "121304.049000", "121304.051000", "121304.065000", "121304.067000", "121304.070000", "121304.072000", "121304.075000", "121304.078000", "121304.080000", "121304.083000", "121304.085000", "121304.088000", "121304.090000", "121304.093000", "121304.100000", "121304.103000", "121304.106000", "121304.108000", "121304.111000", "121304.113000", "121304.116000", "121304.118000", "121304.121000", "121304.124000", "121304.126000", "121304.129000", "121304.133000", "121344.032000", "121344.035000", "121344.038000", "121344.040000", "121344.043000", "121344.045000", "121344.048000", "121344.051000", "121344.053000", "121344.056000", "121344.058000", "121344.061000", "121344.066000", "121344.068000", "121344.071000", "121344.073000", "121344.076000", "121344.078000", "121344.081000", "121344.083000", "121344.086000", "121344.093000", "121344.096000", "121344.099000", "121344.101000", "121344.104000", "121344.106000", "121344.109000", "121344.111000", "121344.114000", "121344.116000", "121344.119000", "121344.121000", "121344.124000", "121424.034000", "121424.037000", "121424.039000", "121424.042000", "121424.045000", "121424.047000", "121424.050000", "121424.052000", "121424.055000", "121424.057000", "121424.060000", "121424.062000", "121424.065000", "121424.068000", "121424.070000", "121424.073000", "121424.076000", "121424.078000", "121424.081000", "121424.083000", "121424.086000", "121424.088000", "121424.091000", "121424.093000", "121424.096000", "121424.098000", "121424.112000", "121424.114000", "121424.117000", "121424.119000", "121424.122000", "121424.125000", "121424.132000", "121455.808000", "121455.811000", "121455.815000", "121455.818000", "121455.821000", "121455.823000", "121455.826000", "121455.829000", "121455.832000", "121455.834000", "121455.837000", "121455.839000", "121455.842000", "121455.844000", "121455.847000", "121455.850000", "121455.852000", "121455.855000", "121455.858000", "121455.860000", "121455.863000", "121455.866000", "121455.868000", "121455.871000", "121455.882000", "121455.885000", "121455.887000"],
      "InstanceCreationTime": ["121304.038000", "121304.041000", "121304.044000", "121304.046000", "121304.049000", "121304.051000", "121304.065000", "121304.067000", "121304.070000", "121304.072000", "121304.075000", "121304.078000", "121304.080000", "121304.083000", "121304.085000", "121304.088000", "121304.090000", "121304.093000", "121304.100000", "121304.103000", "121304.106000", "121304.108000", "121304.111000", "121304.113000", "121304.116000", "121304.118000", "121304.121000", "121304.124000", "121304.126000", "121304.129000", "121304.133000", "121344.032000", "121344.035000", "121344.038000", "121344.040000", "121344.043000", "121344.045000", "121344.048000", "121344.051000", "121344.053000", "121344.056000", "121344.058000", "121344.061000", "121344.066000", "121344.068000", "121344.071000", "121344.073000", "121344.076000", "121344.078000", "121344.081000", "121344.083000", "121344.086000", "121344.093000", "121344.096000", "121344.099000", "121344.101000", "121344.104000", "121344.106000", "121344.109000", "121344.111000", "121344.114000", "121344.116000", "121344.119000", "121344.121000", "121344.124000", "121424.034000", "121424.037000", "121424.039000", "121424.042000", "121424.045000", "121424.047000", "121424.050000", "121424.052000", "121424.055000", "121424.057000", "121424.060000", "121424.062000", "121424.065000", "121424.068000", "121424.070000", "121424.073000", "121424.076000", "121424.078000", "121424.081000", "121424.083000", "121424.086000", "121424.088000", "121424.091000", "121424.093000", "121424.096000", "121424.098000", "121424.112000", "121424.114000", "121424.117000", "121424.119000", "121424.122000", "121424.125000", "121424.132000", "121455.808000", "121455.811000", "121455.815000", "121455.818000", "121455.821000", "121455.823000", "121455.826000", "121455.829000", "121455.832000", "121455.834000", "121455.837000", "121455.839000", "121455.842000", "121455.844000", "121455.847000", "121455.850000", "121455.852000", "121455.855000", "121455.858000", "121455.860000", "121455.863000", "121455.866000", "121455.868000", "121455.871000", "121455.882000", "121455.885000", "121455.887000"],
      "InstanceNumber": [1, 2, 3, 4, 5, 6, 7, 8, 9, 10, 11, 12, 13, 14, 15, 16, 17, 18, 19, 20, 21, 22, 23, 24, 25, 26, 27, 28, 29, 30, 31, 32, 33, 34, 35, 36, 37, 38, 39, 40, 41, 42, 43, 44, 45, 46, 47, 48, 49, 50, 51, 52, 53, 54, 55, 56, 57, 58, 59, 60, 61, 62, 63, 64, 65, 66, 67, 68, 69, 70, 71, 72, 73, 74, 75, 76, 77, 78, 79, 80, 81, 82, 83, 84, 85, 86, 87, 88, 89, 90, 91, 92, 93, 94, 95, 96, 97, 98, 99, 100, 101, 102, 103, 104, 105, 106, 107, 108, 109, 110, 111, 112, 113, 114, 115, 116, 117, 118, 119, 120, 121, 122, 123, 124, 125],
      "LargestImagePixelValue": [2402, 2208, 2141, 2099, 2056, 2059, 2072, 2036, 2060, 2051, 2060, 2064, 2075, 2066, 2075, 2083, 2081, 2084, 2072, 2105, 2100, 2096, 2109, 2086, 2090, 2096, 2068, 2079, 2050, 2085, 2082, 2086, 2076, 2091, 2076, 2090, 2091, 2090, 2080, 2094, 2096, 2075, 2078, 2095, 2093, 2090, 2080, 2094, 2119, 2101, 2099, 2102, 2112, 2103, 2105, 2108, 2111, 2132, 2108, 2111, 2103, 2113, 2114, 2119, 2114, 2123, 2104, 2114, 2104, 2108, 2099, 2116, 2078, 2078, 2046, 2007, 2075, 2037, 2049, 2023, 2053, 2040, 2071, 2059, 2097, 2052, 2101, 2081, 2072, 2079, 2068, 2081, 2069, 2064, 2055, 2062, 2079, 2072, 2051, 2083, 2080, 2070, 2087, 2072, 2086, 2072, 2073, 2089, 2082, 2096, 2089, 2109, 2097, 2103, 2092, 2085, 2112, 2089, 2103, 2093, 2066, 2100, 2057, 2120, 2139],
      "WindowCenter": [612.0, 605.0, 603.0, 600.0, 597.0, 597.0, 596.0, 595.0, 596.0, 596.0, 597.0, 597.0, 598.0, 599.0, 600.0, 600.0, 601.0, 601.0, 602.0, 603.0, 605.0, 605.0, 607.0, 607.0, 607.0, 606.0, 605.0, 604.0, 604.0, 604.0, 604.0, 604.0, 604.0, 604.0, 604.0, 605.0, 605.0, 605.0, 605.0, 605.0, 605.0, 606.0, 606.0, 607.0, 607.0, 607.0, 608.0, 608.0, 609.0, 609.0, 609.0, 609.0, 608.0, 608.0, 608.0, 608.0, 608.0, 608.0, 607.0, 607.0, 608.0, 608.0, 609.0, 608.0, 607.0, 606.0, 606.0, 606.0, 606.0, 606.0, 606.0, 605.0, 605.0, 606.0, 604.0, 607.0, 608.0, 607.0, 605.0, 604.0, 603.0, 603.0, 603.0, 603.0, 603.0, 604.0, 604.0, 605.0, 606.0, 606.0, 606.0, 606.0, 605.0, 605.0, 604.0, 604.0, 604.0, 604.0, 603.0, 604.0, 604.0, 604.0, 604.0, 604.0, 604.0, 605.0, 605.0, 605.0, 606.0, 606.0, 605.0, 605.0, 606.0, 605.0, 606.0, 605.0, 605.0, 604.0, 604.0, 604.0, 603.0, 611.0, 610.0, 611.0, 609.0],
      "WindowWidth": [1299.0, 1284.0, 1278.0, 1273.0, 1266.0, 1265.0, 1263.0, 1261.0, 1263.0, 1263.0, 1265.0, 1266.0, 1268.0, 1270.0, 1272.0, 1273.0, 1275.0, 1275.0, 1278.0, 1279.0, 1283.0, 1285.0, 1287.0, 1287.0, 1287.0, 1285.0, 1283.0, 1282.0, 1281.0, 1281.0, 1281.0, 1281.0, 1281.0, 1282.0, 1282.0, 1283.0, 1284.0, 1284.0, 1284.0, 1285.0, 1285.0, 1286.0, 1286.0, 1288.0, 1289.0, 1289.0, 1290.0, 1292.0, 1294.0, 1293.0, 1293.0, 1292.0, 1292.0, 1292.0, 1291.0, 1291.0, 1290.0, 1290.0, 1288.0, 1289.0, 1290.0, 1292.0, 1293.0, 1291.0, 1288.0, 1287.0, 1286.0, 1286.0, 1286.0, 1285.0, 1285.0, 1284.0, 1284.0, 1285.0, 1283.0, 1290.0, 1290.0, 1287.0, 1283.0, 1281.0, 1280.0, 1279.0, 1279.0, 1280.0, 1280.0, 1281.0, 1282.0, 1283.0, 1285.0, 1286.0, 1287.0, 1286.0, 1285.0, 1283.0, 1283.0, 1282.0, 1281.0, 1281.0, 1280.0, 1280.0, 1281.0, 1282.0, 1282.0, 1282.0, 1282.0, 1283.0, 1285.0, 1285.0, 1286.0, 1286.0, 1285.0, 1284.0, 1284.0, 1284.0, 1285.0, 1283.0, 1283.0, 1281.0, 1282.0, 1280.0, 1279.0, 1298.0, 1296.0, 1296.0, 1292.0]
    },
    "slices": {}
  }
}