{
  "AcquisitionMatrixPE": 88,
  "AcquisitionNumber": 1,
  "AcquisitionTime": "11:27:22.447500",
  "BandwidthPerPixelPhaseEncode": 19.592,
  "BaseResolution": 88,
  "BodyPartExamined": "BRAIN",
  "ConsistencyInfo": "N4_VE11C_LATEST_20160120",
  "ConversionSoftware": "dcm2niix",
  "ConversionSoftwareVersion": "v1.0.20190902",
  "DerivedVendorReportedEchoSpacing": 0.000580014,
  "DeviceSerialNumber": "67050",
  "DwellTime": 2.6e-06,
  "EchoTime": 0.033,
  "EchoTrainLength": 88,
  "EffectiveEchoSpacing": 0.000580014,
  "FlipAngle": 62,
  "ImageOrientationPatientDICOM": [0.997424, -0.0480032, 0.0532933, 0.0522728, 0.995273, -0.0818458],
  "ImageType": [
    "ORIGINAL",
    "PRIMARY",
    "M",
    "ND",
    "MOSAIC"
],
  "ImagingFrequency": 123.251,
  "InPlanePhaseEncodingDirectionDICOM": "COL",
  "InstitutionAddress": "Olive_Street_60_Providence_RI_US_02912",
  "InstitutionName": "BROWN_UNIVERSITY_MRF",
  "InstitutionalDepartmentName": "Department",
  "MRAcquisitionType": "2D",
  "MagneticFieldStrength": 3,
  "Manufacturer": "Siemens",
  "ManufacturersModelName": "Prisma_fit",
  "Modality": "MR",
  "MultibandAccelerationFactor": 4,
  "PartialFourier": 1,
  "PatientPosition": "HFS",
  "PercentPhaseFOV": 100,
  "PhaseEncodingDirection": "j-",
  "PhaseEncodingSteps": 88,
  "PhaseResolution": 1,
  "PixelBandwidth": 2185,
  "ProcedureStepDescription": "ASHENHAV_1222",
  "ProtocolName": "func-bold_task-RDMcolor_run-02",
  "PulseSequenceDetails": "%SiemensSeq%_ep2d_bold",
  "ReceiveCoilActiveElements": "HC1-7",
  "ReceiveCoilName": "HeadNeck_64",
  "ReconMatrixPE": 88,
  "RefLinesPE": 8,
  "RepetitionTime": 1.2,
  "SAR": 0.0565461,
  "ScanOptions": "FS",
  "ScanningSequence": "EP",
  "SequenceName": "_epfid2d1_88",
  "SequenceVariant": "SK",
  "SeriesDescription": "func-bold_task-RDMcolor_run-02",
  "SeriesNumber": 10,
  "ShimSetting": [1763, -9088, 4400, 393, -46, -114, -11, -18],
  "SliceThickness": 2.4,
  "SliceTiming": [0.55, 0, 0.6275, 0.0775, 0.7075, 0.1575, 0.785, 0.235, 0.865, 0.315, 0.9425, 0.3925, 1.0225, 0.47, 1.1, 0.55, 0, 0.6275, 0.0775, 0.7075, 0.1575, 0.785, 0.235, 0.865, 0.315, 0.9425, 0.3925, 1.0225, 0.47, 1.1, 0.55, 0, 0.6275, 0.0775, 0.7075, 0.1575, 0.785, 0.235, 0.865, 0.315, 0.9425, 0.3925, 1.0225, 0.47, 1.1, 0.55, 0, 0.6275, 0.0775, 0.7075, 0.1575, 0.785, 0.235, 0.865, 0.315, 0.9425, 0.3925, 1.0225, 0.47, 1.1],
  "SoftwareVersions": "syngo_MR_E11",
  "SpacingBetweenSlices": 2.4,
  "StationName": "AWP67050",
  "TaskName": "RDMcolor",
  "TotalReadoutTime": 0.0504612,
  "TxRefAmp": 228.252,
  "dcmmeta_affine": [
    [-2.3915517330169678, 0.1253359317779541, 0.1178700253367424, 99.62566375732422],
    [0.11509868502616882, 2.3863937854766846, -0.2026098519563675, -97.7523193359375],
    [0.12778274714946747, 0.19624385237693787, 2.38852596282959, -64.01099395751953],
    [0.0, 0.0, 0.0, 1.0]
],
  "dcmmeta_reorient_transform": [
    [0.0, -1.0, 0.0, 87.0],
    [1.0, 0.0, 0.0, 0.0],
    [0.0, 0.0, 1.0, 0.0],
    [0.0, 0.0, 0.0, 1.0]
],
  "dcmmeta_shape": [88, 88, 60, 392],
  "dcmmeta_slice_dim": 2,
  "dcmmeta_version": 0.6,
  "global": {
    "const": {
      "AcquisitionMatrix": [88, 0, 0, 88],
      "AngioFlag": "N",
      "BitsAllocated": 16,
      "BitsStored": 12,
      "BodyPartExamined": "BRAIN",
      "Columns": 704,
      "DeidentificationMethodCodeSequence": [
        {
          "CodeMeaning": "XNAT DicomEdit 6 Script",
          "CodeValue": "3",
          "CodingSchemeDesignator": "XNAT",
          "CodingSchemeVersion": "1.0"}
],
      "EchoNumbers": 1,
      "EchoTime": 33.0,
      "EchoTrainLength": 88,
      "FlipAngle": 62.0,
      "HighBit": 11,
      "ImageOrientationPatient": [0.9974244408647, -0.0480032440685, 0.05329327654247, 0.05227280573031, 0.99527323992413, -0.0818457798057],
      "ImagePositionPatient": [-885.73130256621, -809.42282354443, -25.851756891126],
      "ImageType": [
        "ORIGINAL",
        "PRIMARY",
        "M",
        "ND",
        "MOSAIC"
],
      "ImagedNucleus": "1H",
      "ImagingFrequency": 123.250627,
      "InPlanePhaseEncodingDirection": "COL",
      "MRAcquisitionType": "2D",
      "MagneticFieldStrength": 3.0,
      "Manufacturer": "SIEMENS",
      "ManufacturerModelName": "Prisma_fit",
      "Modality": "MR",
      "NumberOfAverages": 1.0,
      "NumberOfPhaseEncodingSteps": 88,
      "PercentPhaseFieldOfView": 100.0,
      "PercentSampling": 100.0,
      "PerformedProcedureStepStartTime": "110350.685000",
      "PhotometricInterpretation": "MONOCHROME2",
      "PixelBandwidth": 2185.0,
      "PixelRepresentation": 0,
      "PixelSpacing": [2.3977272510529, 2.3977272510529],
      "ProtocolName": "func-bold_task-RDMcolor_run-02",
      "RepetitionTime": 1200.0,
      "Rows": 704,
      "SAR": 0.05654611448385,
      "SamplesPerPixel": 1,
      "ScanOptions": "FS",
      "ScanningSequence": "EP",
      "SequenceName": "*epfid2d1_88",
      "SequenceVariant": "SK",
      "SeriesDescription": "func-bold_task-RDMcolor_run-02",
      "SeriesNumber": 10,
      "SeriesTime": "112755.828000",
      "SliceLocation": -50.559774314888,
      "SliceThickness": 2.4000000953674,
      "SmallestImagePixelValue": 0,
      "SoftwareVersions": "syngo MR E11",
      "SpacingBetweenSlices": 2.4000000606126,
      "SpecificCharacterSet": "ISO_IR 100",
      "StudyID": "1",
      "StudyTime": "110350.614000",
      "TransmitCoilName": "Body",
      "VariableFlipAngleFlag": "N",
      "WindowCenterWidthExplanation": "Algo1",
      "dBdt": 0.0},
    "slices": {}
  },
  "time": {
    "samples": {
      "AcquisitionNumber": [1, 2, 3, 4, 5, 6, 7, 8, 9, 10, 11, 12, 13, 14, 15, 16, 17, 18, 19, 20, 21, 22, 23, 24, 25, 26, 27, 28, 29, 30, 31, 32, 33, 34, 35, 36, 37, 38, 39, 40, 41, 42, 43, 44, 45, 46, 47, 48, 49, 50, 51, 52, 53, 54, 55, 56, 57, 58, 59, 60, 61, 62, 63, 64, 65, 66, 67, 68, 69, 70, 71, 72, 73, 74, 75, 76, 77, 78, 79, 80, 81, 82, 83, 84, 85, 86, 87, 88, 89, 90, 91, 92, 93, 94, 95, 96, 97, 98, 99, 100, 101, 102, 103, 104, 105, 106, 107, 108, 109, 110, 111, 112, 113, 114, 115, 116, 117, 118, 119, 120, 121, 122, 123, 124, 125, 126, 127, 128, 129, 130, 131, 132, 133, 134, 135, 136, 137, 138, 139, 140, 141, 142, 143, 144, 145, 146, 147, 148, 149, 150, 151, 152, 153, 154, 155, 156, 157, 158, 159, 160, 161, 162, 163, 164, 165, 166, 167, 168, 169, 170, 171, 172, 173, 174, 175, 176, 177, 178, 179, 180, 181, 182, 183, 184, 185, 186, 187, 188, 189, 190, 191, 192, 193, 194, 195, 196, 197, 198, 199, 200, 201, 202, 203, 204, 205, 206, 207, 208, 209, 210, 211, 212, 213, 214, 215, 216, 217, 218, 219, 220, 221, 222, 223, 224, 225, 226, 227, 228, 229, 230, 231, 232, 233, 234, 235, 236, 237, 238, 239, 240, 241, 242, 243, 244, 245, 246, 247, 248, 249, 250, 251, 252, 253, 254, 255, 256, 257, 258, 259, 260, 261, 262, 263, 264, 265, 266, 267, 268, 269, 270, 271, 272, 273, 274, 275, 276, 277, 278, 279, 280, 281, 282, 283, 284, 285, 286, 287, 288, 289, 290, 291, 292, 293, 294, 295, 296, 297, 298, 299, 300, 301, 302, 303, 304, 305, 306, 307, 308, 309, 310, 311, 312, 313, 314, 315, 316, 317, 318, 319, 320, 321, 322, 323, 324, 325, 326, 327, 328, 329, 330, 331, 332, 333, 334, 335, 336, 337, 338, 339, 340, 341, 342, 343, 344, 345, 346, 347, 348, 349, 350, 351, 352, 353, 354, 355, 356, 357, 358, 359, 360, 361, 362, 363, 364, 365, 366, 367, 368, 369, 370, 371, 372, 373, 374, 375, 376, 377, 378, 379, 380, 381, 382, 383, 384, 385, 386, 387, 388, 389, 390, 391, 392],
      "AcquisitionTime": ["112722.447500", "112723.647500", "112724.847500", "112726.047500", "112727.247500", "112728.447500", "112729.647500", "112730.847500", "112732.047500", "112733.247500", "112734.447500", "112735.647500", "112736.847500", "112738.047500", "112739.247500", "112740.447500", "112741.647500", "112742.847500", "112744.047500", "112745.247500", "112746.447500", "112747.647500", "112748.847500", "112750.047500", "112751.247500", "112752.447500", "112753.647500", "112754.847500", "112756.047500", "112757.247500", "112758.447500", "112759.647500", "112800.847500", "112802.047500", "112803.247500", "112804.447500", "112805.647500", "112806.847500", "112808.047500", "112809.247500", "112810.447500", "112811.647500", "112812.847500", "112814.047500", "112815.247500", "112816.447500", "112817.647500", "112818.847500", "112820.047500", "112821.247500", "112822.447500", "112823.647500", "112824.847500", "112826.047500", "112827.247500", "112828.447500", "112829.647500", "112830.847500", "112832.047500", "112833.247500", "112834.447500", "112835.647500", "112836.847500", "112838.047500", "112839.247500", "112840.447500", "112841.647500", "112842.847500", "112844.047500", "112845.247500", "112846.447500", "112847.647500", "112848.847500", "112850.047500", "112851.247500", "112852.447500", "112853.647500", "112854.847500", "112856.047500", "112857.247500", "112858.447500", "112859.647500", "112900.847500", "112902.047500", "112903.247500", "112904.447500", "112905.647500", "112906.847500", "112908.047500", "112909.247500", "112910.447500", "112911.647500", "112912.847500", "112914.047500", "112915.247500", "112916.447500", "112917.647500", "112918.847500", "112920.047500", "112921.247500", "112922.447500", "112923.647500", "112924.847500", "112926.047500", "112927.247500", "112928.447500", "112929.647500", "112930.847500", "112932.047500", "112933.247500", "112934.447500", "112935.647500", "112936.847500", "112938.047500", "112939.247500", "112940.447500", "112941.647500", "112942.847500", "112944.047500", "112945.247500", "112946.447500", "112947.647500", "112948.847500", "112950.047500", "112951.247500", "112952.447500", "112953.647500", "112954.847500", "112956.047500", "112957.247500", "112958.447500", "112959.647500", "113000.847500", "113002.047500", "113003.247500", "113004.447500", "113005.647500", "113006.847500", "113008.047500", "113009.247500", "113010.447500", "113011.647500", "113012.847500", "113014.047500", "113015.247500", "113016.447500", "113017.647500", "113018.847500", "113020.047500", "113021.247500", "113022.447500", "113023.647500", "113024.847500", "113026.047500", "113027.247500", "113028.447500", "113029.647500", "113030.847500", "113032.047500", "113033.247500", "113034.447500", "113035.647500", "113036.847500", "113038.047500", "113039.247500", "113040.447500", "113041.647500", "113042.847500", "113044.047500", "113045.247500", "113046.447500", "113047.647500", "113048.847500", "113050.047500", "113051.247500", "113052.447500", "113053.647500", "113054.847500", "113056.047500", "113057.247500", "113058.447500", "113059.647500", "113100.847500", "113102.047500", "113103.247500", "113104.447500", "113105.647500", "113106.847500", "113108.047500", "113109.247500", "113110.447500", "113111.647500", "113112.847500", "113114.047500", "113115.247500", "113116.447500", "113117.647500", "113118.847500", "113120.047500", "113121.247500", "113122.447500", "113123.647500", "113124.847500", "113126.047500", "113127.247500", "113128.447500", "113129.647500", "113130.847500", "113132.047500", "113133.247500", "113134.447500", "113135.647500", "113136.847500", "113138.047500", "113139.247500", "113140.447500", "113141.647500", "113142.847500", "113144.047500", "113145.247500", "113146.447500", "113147.647500", "113148.847500", "113150.047500", "113151.247500", "113152.447500", "113153.647500", "113154.847500", "113156.047500", "113157.247500", "113158.447500", "113159.647500", "113200.847500", "113202.047500", "113203.247500", "113204.447500", "113205.647500", "113206.847500", "113208.047500", "113209.247500", "113210.447500", "113211.647500", "113212.847500", "113214.047500", "113215.247500", "113216.447500", "113217.647500", "113218.847500", "113220.047500", "113221.247500", "113222.447500", "113223.647500", "113224.847500", "113226.047500", "113227.247500", "113228.447500", "113229.647500", "113230.847500", "113232.047500", "113233.247500", "113234.447500", "113235.647500", "113236.847500", "113238.047500", "113239.247500", "113240.447500", "113241.647500", "113242.847500", "113244.047500", "113245.247500", "113246.447500", "113247.647500", "113248.847500", "113250.047500", "113251.247500", "113252.447500", "113253.647500", "113254.847500", "113256.047500", "113257.247500", "113258.447500", "113259.647500", "113300.847500", "113302.047500", "113303.247500", "113304.447500", "113305.647500", "113306.847500", "113308.047500", "113309.247500", "113310.447500", "113311.647500", "113312.847500", "113314.047500", "113315.247500", "113316.447500", "113317.647500", "113318.847500", "113320.047500", "113321.247500", "113322.447500", "113323.647500", "113324.847500", "113326.047500", "113327.247500", "113328.447500", "113329.647500", "113330.847500", "113332.047500", "113333.247500", "113334.447500", "113335.647500", "113336.847500", "113338.047500", "113339.247500", "113340.447500", "113341.647500", "113342.847500", "113344.047500", "113345.247500", "113346.447500", "113347.647500", "113348.847500", "113350.047500", "113351.247500", "113352.447500", "113353.647500", "113354.847500", "113356.047500", "113357.247500", "113358.447500", "113359.647500", "113400.847500", "113402.047500", "113403.247500", "113404.447500", "113405.647500", "113406.847500", "113408.047500", "113409.247500", "113410.447500", "113411.647500", "113412.847500", "113414.047500", "113415.247500", "113416.447500", "113417.647500", "113418.847500", "113420.047500", "113421.247500", "113422.447500", "113423.647500", "113424.847500", "113426.047500", "113427.247500", "113428.447500", "113429.647500", "113430.847500", "113432.047500", "113433.247500", "113434.447500", "113435.647500", "113436.847500", "113438.047500", "113439.247500", "113440.447500", "113441.647500", "113442.847500", "113444.047500", "113445.247500", "113446.447500", "113447.647500", "113448.847500", "113450.047500", "113451.247500", "113452.447500", "113453.647500", "113454.847500", "113456.047500", "113457.247500", "113458.447500", "113459.647500", "113500.847500", "113502.047500", "113503.247500", "113504.447500", "113505.647500", "113506.847500", "113508.047500", "113509.247500", "113510.447500", "113511.647500"],
      "ContentTime": ["112755.832000", "112755.860000", "112755.863000", "112755.865000", "112755.868000", "112755.870000", "112755.879000", "112755.882000", "112755.884000", "112755.887000", "112755.889000", "112755.892000", "112755.895000", "112755.897000", "112755.900000", "112755.907000", "112755.910000", "112755.912000", "112755.915000", "112755.918000", "112755.920000", "112755.923000", "112755.925000", "112755.928000", "112755.931000", "112755.933000", "112755.957000", "112835.828000", "112835.831000", "112835.834000", "112835.836000", "112835.839000", "112835.842000", "112835.844000", "112835.847000", "112835.849000", "112835.852000", "112835.855000", "112835.857000", "112835.860000", "112835.862000", "112835.865000", "112835.867000", "112835.870000", "112835.873000", "112835.875000", "112835.885000", "112835.888000", "112835.890000", "112835.893000", "112835.895000", "112835.898000", "112835.901000", "112835.904000", "112835.907000", "112835.909000", "112835.912000", "112835.915000", "112835.917000", "112835.920000", "112915.828000", "112915.830000", "112915.833000", "112915.836000", "112915.838000", "112915.841000", "112915.843000", "112915.846000", "112915.849000", "112915.851000", "112915.854000", "112915.856000", "112915.859000", "112915.862000", "112915.864000", "112915.867000", "112915.870000", "112915.872000", "112915.875000", "112915.877000", "112915.883000", "112915.885000", "112915.888000", "112915.891000", "112915.894000", "112915.896000", "112915.899000", "112915.901000", "112915.904000", "112915.906000", "112915.909000", "112915.911000", "112915.914000", "112915.917000", "112955.827000", "112955.830000", "112955.833000", "112955.836000", "112955.838000", "112955.841000", "112955.843000", "112955.846000", "112955.848000", "112955.851000", "112955.854000", "112955.856000", "112955.859000", "112955.862000", "112955.864000", "112955.867000", "112955.869000", "112955.872000", "112955.874000", "112955.877000", "112955.880000", "112955.882000", "112955.885000", "112955.888000", "112955.890000", "112955.893000", "112955.895000", "112955.898000", "112955.901000", "112955.903000", "112955.906000", "112955.908000", "112955.911000", "113035.827000", "113035.830000", "113035.833000", "113035.835000", "113035.838000", "113035.841000", "113035.843000", "113035.846000", "113035.849000", "113035.851000", "113035.854000", "113035.856000", "113035.859000", "113035.862000", "113035.864000", "113035.867000", "113035.870000", "113035.872000", "113035.875000", "113035.877000", "113035.880000", "113035.882000", "113035.885000", "113035.887000", "113035.890000", "113035.893000", "113035.896000", "113035.899000", "113035.902000", "113035.905000", "113035.908000", "113035.911000", "113035.913000", "113115.827000", "113115.830000", "113115.833000", "113115.836000", "113115.838000", "113115.841000", "113115.843000", "113115.846000", "113115.849000", "113115.851000", "113115.854000", "113115.856000", "113115.859000", "113115.862000", "113115.864000", "113115.867000", "113115.869000", "113115.872000", "113115.875000", "113115.877000", "113115.880000", "113115.882000", "113115.885000", "113115.888000", "113115.890000", "113115.893000", "113115.895000", "113115.898000", "113115.901000", "113115.903000", "113115.906000", "113115.908000", "113115.911000", "113115.914000", "113155.827000", "113155.830000", "113155.833000", "113155.836000", "113155.838000", "113155.841000", "113155.843000", "113155.846000", "113155.849000", "113155.851000", "113155.854000", "113155.856000", "113155.864000", "113155.867000", "113155.869000", "113155.872000", "113155.875000", "113155.877000", "113155.880000", "113155.883000", "113155.885000", "113155.888000", "113155.890000", "113155.893000", "113155.895000", "113155.898000", "113155.901000", "113155.903000", "113155.906000", "113155.908000", "113155.911000", "113155.914000", "113155.916000", "113235.828000", "113235.830000", "113235.833000", "113235.835000", "113235.838000", "113235.841000", "113235.843000", "113235.858000", "113235.861000", "113235.863000", "113235.866000", "113235.868000", "113235.871000", "113235.873000", "113235.876000", "113235.879000", "113235.882000", "113235.884000", "113235.887000", "113235.889000", "113235.892000", "113235.894000", "113235.897000", "113235.900000", "113235.902000", "113235.905000", "113235.908000", "113235.911000", "113235.914000", "113235.917000", "113235.920000", "113235.923000", "113235.925000", "113315.828000", "113315.831000", "113315.834000", "113315.837000", "113315.839000", "113315.842000", "113315.844000", "113315.847000", "113315.849000", "113315.852000", "113315.855000", "113315.857000", "113315.860000", "113315.862000", "113315.865000", "113315.868000", "113315.870000", "113315.873000", "113315.875000", "113315.878000", "113315.881000", "113315.883000", "113315.886000", "113315.888000", "113315.891000", "113315.894000", "113315.896000", "113315.899000", "113315.901000", "113315.904000", "113315.914000", "113315.916000", "113315.919000", "113315.921000", "113355.827000", "113355.841000", "113355.843000", "113355.846000", "113355.848000", "113355.851000", "113355.854000", "113355.856000", "113355.859000", "113355.861000", "113355.864000", "113355.867000", "113355.869000", "113355.872000", "113355.874000", "113355.877000", "113355.880000", "113355.882000", "113355.885000", "113355.888000", "113355.890000", "113355.893000", "113355.896000", "113355.899000", "113355.901000", "113355.904000", "113355.906000", "113355.909000", "113355.911000", "113355.914000", "113355.917000", "113355.919000", "113355.922000", "113435.828000", "113435.830000", "113435.833000", "113435.836000", "113435.844000", "113435.847000", "113435.849000", "113435.852000", "113435.855000", "113435.857000", "113435.860000", "113435.862000", "113435.865000", "113435.868000", "113435.870000", "113435.873000", "113435.876000", "113435.878000", "113435.881000", "113435.884000", "113435.886000", "113435.889000", "113435.892000", "113435.896000", "113435.898000", "113435.901000", "113435.904000", "113435.908000", "113435.910000", "113435.913000", "113435.916000", "113435.919000", "113435.921000", "113513.159000", "113513.162000", "113513.165000", "113513.168000", "113513.170000", "113513.173000", "113513.176000", "113513.178000", "113513.181000", "113513.184000", "113513.186000", "113513.189000", "113513.192000", "113513.194000", "113513.202000", "113513.204000", "113513.207000", "113513.210000", "113513.212000", "113513.215000", "113513.218000", "113513.220000", "113513.223000", "113513.226000", "113513.228000", "113513.231000", "113513.233000", "113513.236000", "113513.239000", "113513.241000", "113513.244000", "113513.247000"],
      "InstanceCreationTime": ["112755.832000", "112755.860000", "112755.863000", "112755.865000", "112755.868000", "112755.870000", "112755.879000", "112755.882000", "112755.884000", "112755.887000", "112755.889000", "112755.892000", "112755.895000", "112755.897000", "112755.900000", "112755.907000", "112755.910000", "112755.912000", "112755.915000", "112755.918000", "112755.920000", "112755.923000", "112755.925000", "112755.928000", "112755.931000", "112755.933000", "112755.957000", "112835.828000", "112835.831000", "112835.834000", "112835.836000", "112835.839000", "112835.842000", "112835.844000", "112835.847000", "112835.849000", "112835.852000", "112835.855000", "112835.857000", "112835.860000", "112835.862000", "112835.865000", "112835.867000", "112835.870000", "112835.873000", "112835.875000", "112835.885000", "112835.888000", "112835.890000", "112835.893000", "112835.895000", "112835.898000", "112835.901000", "112835.904000", "112835.907000", "112835.909000", "112835.912000", "112835.915000", "112835.917000", "112835.920000", "112915.828000", "112915.830000", "112915.833000", "112915.836000", "112915.838000", "112915.841000", "112915.843000", "112915.846000", "112915.849000", "112915.851000", "112915.854000", "112915.856000", "112915.859000", "112915.862000", "112915.864000", "112915.867000", "112915.870000", "112915.872000", "112915.875000", "112915.877000", "112915.883000", "112915.885000", "112915.888000", "112915.891000", "112915.894000", "112915.896000", "112915.899000", "112915.901000", "112915.904000", "112915.906000", "112915.909000", "112915.911000", "112915.914000", "112915.917000", "112955.827000", "112955.830000", "112955.833000", "112955.836000", "112955.838000", "112955.841000", "112955.843000", "112955.846000", "112955.848000", "112955.851000", "112955.854000", "112955.856000", "112955.859000", "112955.862000", "112955.864000", "112955.867000", "112955.869000", "112955.872000", "112955.874000", "112955.877000", "112955.880000", "112955.882000", "112955.885000", "112955.888000", "112955.890000", "112955.893000", "112955.895000", "112955.898000", "112955.901000", "112955.903000", "112955.906000", "112955.908000", "112955.911000", "113035.827000", "113035.830000", "113035.833000", "113035.835000", "113035.838000", "113035.841000", "113035.843000", "113035.846000", "113035.849000", "113035.851000", "113035.854000", "113035.856000", "113035.859000", "113035.862000", "113035.864000", "113035.867000", "113035.870000", "113035.872000", "113035.875000", "113035.877000", "113035.880000", "113035.882000", "113035.885000", "113035.887000", "113035.890000", "113035.893000", "113035.896000", "113035.899000", "113035.902000", "113035.905000", "113035.908000", "113035.911000", "113035.913000", "113115.827000", "113115.830000", "113115.833000", "113115.836000", "113115.838000", "113115.841000", "113115.843000", "113115.846000", "113115.849000", "113115.851000", "113115.854000", "113115.856000", "113115.859000", "113115.862000", "113115.864000", "113115.867000", "113115.869000", "113115.872000", "113115.875000", "113115.877000", "113115.880000", "113115.882000", "113115.885000", "113115.888000", "113115.890000", "113115.893000", "113115.895000", "113115.898000", "113115.901000", "113115.903000", "113115.906000", "113115.908000", "113115.911000", "113115.914000", "113155.827000", "113155.830000", "113155.833000", "113155.836000", "113155.838000", "113155.841000", "113155.843000", "113155.846000", "113155.849000", "113155.851000", "113155.854000", "113155.856000", "113155.864000", "113155.867000", "113155.869000", "113155.872000", "113155.875000", "113155.877000", "113155.880000", "113155.883000", "113155.885000", "113155.888000", "113155.890000", "113155.893000", "113155.895000", "113155.898000", "113155.901000", "113155.903000", "113155.906000", "113155.908000", "113155.911000", "113155.914000", "113155.916000", "113235.828000", "113235.830000", "113235.833000", "113235.835000", "113235.838000", "113235.841000", "113235.843000", "113235.858000", "113235.861000", "113235.863000", "113235.866000", "113235.868000", "113235.871000", "113235.873000", "113235.876000", "113235.879000", "113235.882000", "113235.884000", "113235.887000", "113235.889000", "113235.892000", "113235.894000", "113235.897000", "113235.900000", "113235.902000", "113235.905000", "113235.908000", "113235.911000", "113235.914000", "113235.917000", "113235.920000", "113235.923000", "113235.925000", "113315.828000", "113315.831000", "113315.834000", "113315.837000", "113315.839000", "113315.842000", "113315.844000", "113315.847000", "113315.849000", "113315.852000", "113315.855000", "113315.857000", "113315.860000", "113315.862000", "113315.865000", "113315.868000", "113315.870000", "113315.873000", "113315.875000", "113315.878000", "113315.881000", "113315.883000", "113315.886000", "113315.888000", "113315.891000", "113315.894000", "113315.896000", "113315.899000", "113315.901000", "113315.904000", "113315.914000", "113315.916000", "113315.919000", "113315.921000", "113355.827000", "113355.841000", "113355.843000", "113355.846000", "113355.848000", "113355.851000", "113355.854000", "113355.856000", "113355.859000", "113355.861000", "113355.864000", "113355.867000", "113355.869000", "113355.872000", "113355.874000", "113355.877000", "113355.880000", "113355.882000", "113355.885000", "113355.888000", "113355.890000", "113355.893000", "113355.896000", "113355.899000", "113355.901000", "113355.904000", "113355.906000", "113355.909000", "113355.911000", "113355.914000", "113355.917000", "113355.919000", "113355.922000", "113435.828000", "113435.830000", "113435.833000", "113435.836000", "113435.844000", "113435.847000", "113435.849000", "113435.852000", "113435.855000", "113435.857000", "113435.860000", "113435.862000", "113435.865000", "113435.868000", "113435.870000", "113435.873000", "113435.876000", "113435.878000", "113435.881000", "113435.884000", "113435.886000", "113435.889000", "113435.892000", "113435.896000", "113435.898000", "113435.901000", "113435.904000", "113435.908000", "113435.910000", "113435.913000", "113435.916000", "113435.919000", "113435.921000", "113513.159000", "113513.162000", "113513.165000", "113513.168000", "113513.170000", "113513.173000", "113513.176000", "113513.178000", "113513.181000", "113513.184000", "113513.186000", "113513.189000", "113513.192000", "113513.194000", "113513.202000", "113513.204000", "113513.207000", "113513.210000", "113513.212000", "113513.215000", "113513.218000", "113513.220000", "113513.223000", "113513.226000", "113513.228000", "113513.231000", "113513.233000", "113513.236000", "113513.239000", "113513.241000", "113513.244000", "113513.247000"],
      "InstanceNumber": [1, 2, 3, 4, 5, 6, 7, 8, 9, 10, 11, 12, 13, 14, 15, 16, 17, 18, 19, 20, 21, 22, 23, 24, 25, 26, 27, 28, 29, 30, 31, 32, 33, 34, 35, 36, 37, 38, 39, 40, 41, 42, 43, 44, 45, 46, 47, 48, 49, 50, 51, 52, 53, 54, 55, 56, 57, 58, 59, 60, 61, 62, 63, 64, 65, 66, 67, 68, 69, 70, 71, 72, 73, 74, 75, 76, 77, 78, 79, 80, 81, 82, 83, 84, 85, 86, 87, 88, 89, 90, 91, 92, 93, 94, 95, 96, 97, 98, 99, 100, 101, 102, 103, 104, 105, 106, 107, 108, 109, 110, 111, 112, 113, 114, 115, 116, 117, 118, 119, 120, 121, 122, 123, 124, 125, 126, 127, 128, 129, 130, 131, 132, 133, 134, 135, 136, 137, 138, 139, 140, 141, 142, 143, 144, 145, 146, 147, 148, 149, 150, 151, 152, 153, 154, 155, 156, 157, 158, 159, 160, 161, 162, 163, 164, 165, 166, 167, 168, 169, 170, 171, 172, 173, 174, 175, 176, 177, 178, 179, 180, 181, 182, 183, 184, 185, 186, 187, 188, 189, 190, 191, 192, 193, 194, 195, 196, 197, 198, 199, 200, 201, 202, 203, 204, 205, 206, 207, 208, 209, 210, 211, 212, 213, 214, 215, 216, 217, 218, 219, 220, 221, 222, 223, 224, 225, 226, 227, 228, 229, 230, 231, 232, 233, 234, 235, 236, 237, 238, 239, 240, 241, 242, 243, 244, 245, 246, 247, 248, 249, 250, 251, 252, 253, 254, 255, 256, 257, 258, 259, 260, 261, 262, 263, 264, 265, 266, 267, 268, 269, 270, 271, 272, 273, 274, 275, 276, 277, 278, 279, 280, 281, 282, 283, 284, 285, 286, 287, 288, 289, 290, 291, 292, 293, 294, 295, 296, 297, 298, 299, 300, 301, 302, 303, 304, 305, 306, 307, 308, 309, 310, 311, 312, 313, 314, 315, 316, 317, 318, 319, 320, 321, 322, 323, 324, 325, 326, 327, 328, 329, 330, 331, 332, 333, 334, 335, 336, 337, 338, 339, 340, 341, 342, 343, 344, 345, 346, 347, 348, 349, 350, 351, 352, 353, 354, 355, 356, 357, 358, 359, 360, 361, 362, 363, 364, 365, 366, 367, 368, 369, 370, 371, 372, 373, 374, 375, 376, 377, 378, 379, 380, 381, 382, 383, 384, 385, 386, 387, 388, 389, 390, 391, 392],
