{
  "AcquisitionMatrixPE": 88,
  "AcquisitionNumber": 1,
  "AcquisitionTime": "11:48:41.297500",
  "BandwidthPerPixelPhaseEncode": 19.592,
  "BaseResolution": 88,
  "BodyPartExamined": "BRAIN",
  "ConsistencyInfo": "N4_VE11C_LATEST_20160120",
  "ConversionSoftware": "dcm2niix",
  "ConversionSoftwareVersion": "v1.0.20190902",
  "DerivedVendorReportedEchoSpacing": 0.000580014,
  "DeviceSerialNumber": "67050",
  "DwellTime": 2.6e-06,
  "EchoTime": 0.033,
  "EchoTrainLength": 88,
  "EffectiveEchoSpacing": 0.000580014,
  "FlipAngle": 62,
  "ImageOrientationPatientDICOM": [0.997424, -0.0480032, 0.0532933, 0.0522728, 0.995273, -0.0818458],
  "ImageType": [
    "ORIGINAL",
    "PRIMARY",
    "M",
    "ND",
    "MOSAIC"
],
  "ImagingFrequency": 123.251,
  "InPlanePhaseEncodingDirectionDICOM": "COL",
  "InstitutionAddress": "Olive_Street_60_Providence_RI_US_02912",
  "InstitutionName": "BROWN_UNIVERSITY_MRF",
  "InstitutionalDepartmentName": "Department",
  "MRAcquisitionType": "2D",
  "MagneticFieldStrength": 3,
  "Manufacturer": "Siemens",
  "ManufacturersModelName": "Prisma_fit",
  "Modality": "MR",
  "MultibandAccelerationFactor": 4,
  "PartialFourier": 1,
  "PatientPosition": "HFS",
  "PercentPhaseFOV": 100,
  "PhaseEncodingDirection": "j-",
  "PhaseEncodingSteps": 88,
  "PhaseResolution": 1,
  "PixelBandwidth": 2185,
  "ProcedureStepDescription": "ASHENHAV_1222",
  "ProtocolName": "func-bold_task-RDMmotion_run-04",
  "PulseSequenceDetails": "%SiemensSeq%_ep2d_bold",
  "ReceiveCoilActiveElements": "HC1-7",
  "ReceiveCoilName": "HeadNeck_64",
  "ReconMatrixPE": 88,
  "RefLinesPE": 8,
  "RepetitionTime": 1.2,
  "SAR": 0.0559722,
  "ScanOptions": "FS",
  "ScanningSequence": "EP",
  "SequenceName": "_epfid2d1_88",
  "SequenceVariant": "SK",
  "SeriesDescription": "func-bold_task-RDMmotion_run-04",
  "SeriesNumber": 13,
  "ShimSetting": [1763, -9088, 4400, 393, -46, -114, -11, -18],
  "SliceThickness": 2.4,
  "SliceTiming": [0.55, 0, 0.63, 0.08, 0.7075, 0.1575, 0.7875, 0.235, 0.865, 0.315, 0.945, 0.3925, 1.0225, 0.4725, 1.1025, 0.55, 0, 0.63, 0.08, 0.7075, 0.1575, 0.7875, 0.235, 0.865, 0.315, 0.945, 0.3925, 1.0225, 0.4725, 1.1025, 0.55, 0, 0.63, 0.08, 0.7075, 0.1575, 0.7875, 0.235, 0.865, 0.315, 0.945, 0.3925, 1.0225, 0.4725, 1.1025, 0.55, 0, 0.63, 0.08, 0.7075, 0.1575, 0.7875, 0.235, 0.865, 0.315, 0.945, 0.3925, 1.0225, 0.4725, 1.1025],
  "SoftwareVersions": "syngo_MR_E11",
  "SpacingBetweenSlices": 2.4,
  "StationName": "AWP67050",
  "TaskName": "RDMmotion",
  "TotalReadoutTime": 0.0504612,
  "TxRefAmp": 228.252,
  "dcmmeta_affine": [
    [-2.3915517330169678, 0.1253359317779541, 0.1178700253367424, 99.62566375732422],
    [0.11509868502616882, 2.3863937854766846, -0.2026098519563675, -97.7523193359375],
    [0.12778274714946747, 0.19624385237693787, 2.38852596282959, -64.01099395751953],
    [0.0, 0.0, 0.0, 1.0]
],
  "dcmmeta_reorient_transform": [
    [0.0, -1.0, 0.0, 87.0],
    [1.0, 0.0, 0.0, 0.0],
    [0.0, 0.0, 1.0, 0.0],
    [0.0, 0.0, 0.0, 1.0]
],
  "dcmmeta_shape": [88, 88, 60, 125],
  "dcmmeta_slice_dim": 2,
  "dcmmeta_version": 0.6,
  "global": {
    "const": {
      "AcquisitionMatrix": [88, 0, 0, 88],
      "AngioFlag": "N",
      "BitsAllocated": 16,
      "BitsStored": 12,
      "BodyPartExamined": "BRAIN",
      "Columns": 704,
      "DeidentificationMethodCodeSequence": [
        {
          "CodeMeaning": "XNAT DicomEdit 6 Script",
          "CodeValue": "3",
          "CodingSchemeDesignator": "XNAT",
          "CodingSchemeVersion": "1.0"}
],
      "EchoNumbers": 1,
      "EchoTime": 33.0,
      "EchoTrainLength": 88,
      "FlipAngle": 62.0,
      "HighBit": 11,
      "ImageOrientationPatient": [0.9974244408647, -0.0480032440685, 0.05329327654247, 0.05227280573031, 0.99527323992413, -0.0818457798057],
      "ImagePositionPatient": [-885.73130256621, -809.42282354443, -25.851756891126],
      "ImageType": [
        "ORIGINAL",
        "PRIMARY",
        "M",
        "ND",
        "MOSAIC"
],
      "ImagedNucleus": "1H",
      "ImagingFrequency": 123.250632,
      "InPlanePhaseEncodingDirection": "COL",
      "MRAcquisitionType": "2D",
      "MagneticFieldStrength": 3.0,
      "Manufacturer": "SIEMENS",
      "ManufacturerModelName": "Prisma_fit",
      "Modality": "MR",
      "NumberOfAverages": 1.0,
      "NumberOfPhaseEncodingSteps": 88,
      "PercentPhaseFieldOfView": 100.0,
      "PercentSampling": 100.0,
      "PerformedProcedureStepStartTime": "110350.685000",
      "PhotometricInterpretation": "MONOCHROME2",
      "PixelBandwidth": 2185.0,
      "PixelRepresentation": 0,
      "PixelSpacing": [2.3977272510529, 2.3977272510529],
      "ProtocolName": "func-bold_task-RDMmotion_run-04",
      "RepetitionTime": 1200.0,
      "Rows": 704,
      "SAR": 0.05597215009102,
      "SamplesPerPixel": 1,
      "ScanOptions": "FS",
      "ScanningSequence": "EP",
      "SequenceName": "*epfid2d1_88",
      "SequenceVariant": "SK",
      "SeriesDescription": "func-bold_task-RDMmotion_run-04",
      "SeriesNumber": 13,
      "SeriesTime": "114915.829000",
      "SliceLocation": -50.559774314888,
      "SliceThickness": 2.4000000953674,
      "SmallestImagePixelValue": 0,
      "SoftwareVersions": "syngo MR E11",
      "SpacingBetweenSlices": 2.4000000606126,
      "SpecificCharacterSet": "ISO_IR 100",
      "StudyID": "1",
      "StudyTime": "110350.614000",
      "TransmitCoilName": "Body",
      "VariableFlipAngleFlag": "N",
      "WindowCenterWidthExplanation": "Algo1",
      "dBdt": 0.0},
    "slices": {}
  },
  "time": {
    "samples": {
      "AcquisitionNumber": [1, 2, 3, 4, 5, 6, 7, 8, 9, 10, 11, 12, 13, 14, 15, 16, 17, 18, 19, 20, 21, 22, 23, 24, 25, 26, 27, 28, 29, 30, 31, 32, 33, 34, 35, 36, 37, 38, 39, 40, 41, 42, 43, 44, 45, 46, 47, 48, 49, 50, 51, 52, 53, 54, 55, 56, 57, 58, 59, 60, 61, 62, 63, 64, 65, 66, 67, 68, 69, 70, 71, 72, 73, 74, 75, 76, 77, 78, 79, 80, 81, 82, 83, 84, 85, 86, 87, 88, 89, 90, 91, 92, 93, 94, 95, 96, 97, 98, 99, 100, 101, 102, 103, 104, 105, 106, 107, 108, 109, 110, 111, 112, 113, 114, 115, 116, 117, 118, 119, 120, 121, 122, 123, 124, 125],
      "AcquisitionTime": ["114841.297500", "114842.497500", "114843.697500", "114844.897500", "114846.097500", "114847.297500", "114848.497500", "114849.697500", "114850.897500", "114852.097500", "114853.297500", "114854.497500", "114855.697500", "114856.897500", "114858.097500", "114859.297500", "114900.497500", "114901.697500", "114902.897500", "114904.097500", "114905.297500", "114906.497500", "114907.697500", "114908.897500", "114910.097500", "114911.297500", "114912.497500", "114913.697500", "114914.897500", "114916.097500", "114917.297500", "114918.497500", "114919.697500", "114920.897500", "114922.097500", "114923.297500", "114924.497500", "114925.697500", "114926.897500", "114928.097500", "114929.297500", "114930.497500", "114931.697500", "114932.897500", "114934.097500", "114935.297500", "114936.497500", "114937.697500", "114938.897500", "114940.097500", "114941.297500", "114942.497500", "114943.697500", "114944.897500", "114946.097500", "114947.297500", "114948.497500", "114949.697500", "114950.897500", "114952.097500", "114953.297500", "114954.497500", "114955.697500", "114956.897500", "114958.097500", "114959.297500", "115000.497500", "115001.697500", "115002.897500", "115004.097500", "115005.297500", "115006.497500", "115007.697500", "115008.897500", "115010.097500", "115011.297500", "115012.497500", "115013.697500", "115014.897500", "115016.097500", "115017.297500", "115018.497500", "115019.697500", "115020.897500", "115022.097500", "115023.297500", "115024.497500", "115025.697500", "115026.897500", "115028.097500", "115029.297500", "115030.497500", "115031.697500", "115032.897500", "115034.097500", "115035.297500", "115036.497500", "115037.697500", "115038.897500", "115040.097500", "115041.297500", "115042.497500", "115043.697500", "115044.897500", "115046.097500", "115047.297500", "115048.497500", "115049.697500", "115050.897500", "115052.097500", "115053.297500", "115054.497500", "115055.697500", "115056.897500", "115058.097500", "115059.297500", "115100.497500", "115101.697500", "115102.897500", "115104.097500", "115105.297500", "115106.497500", "115107.697500", "115108.897500", "115110.097500"],
      "ContentTime": ["114915.832000", "114915.835000", "114915.838000", "114915.841000", "114915.843000", "114915.846000", "114915.856000", "114915.859000", "114915.862000", "114915.873000", "114915.876000", "114915.879000", "114915.881000", "114915.884000", "114915.886000", "114915.889000", "114915.891000", "114915.894000", "114915.897000", "114915.899000", "114915.902000", "114915.904000", "114915.907000", "114915.910000", "114915.912000", "114915.915000", "114915.931000", "114915.934000", "114955.827000", "114955.830000", "114955.833000", "114955.835000", "114955.838000", "114955.841000", "114955.843000", "114955.846000", "114955.848000", "114955.851000", "114955.865000", "114955.868000", "114955.871000", "114955.873000", "114955.876000", "114955.878000", "114955.881000", "114955.883000", "114955.886000", "114955.889000", "114955.891000", "114955.894000", "114955.897000", "114955.899000", "114955.902000", "114955.904000", "114955.907000", "114955.909000", "114955.912000", "114955.915000", "114955.917000", "114955.920000", "114955.922000", "115035.827000", "115035.830000", "115035.833000", "115035.835000", "115035.838000", "115035.840000", "115035.843000", "115035.846000", "115035.848000", "115035.851000", "115035.853000", "115035.856000", "115035.859000", "115035.861000", "115035.864000", "115035.866000", "115035.869000", "115035.872000", "115035.874000", "115035.877000", "115035.879000", "115035.882000", "115035.884000", "115035.887000", "115035.890000", "115035.892000", "115035.895000", "115035.897000", "115035.900000", "115035.902000", "115035.905000", "115035.907000", "115035.910000", "115035.912000", "115111.812000", "115111.815000", "115111.818000", "115111.820000", "115111.823000", "115111.825000", "115111.828000", "115111.831000", "115111.833000", "115111.836000", "115111.839000", "115111.841000", "115111.844000", "115111.846000", "115111.849000", "115111.852000", "115111.854000", "115111.857000", "115111.859000", "115111.862000", "115111.865000", "115111.867000", "115111.870000", "115111.873000", "115111.875000", "115111.878000", "115111.880000", "115111.883000", "115111.886000", "115111.888000"],
      "InstanceCreationTime": ["114915.832000", "114915.835000", "114915.838000", "114915.841000", "114915.843000", "114915.846000", "114915.856000", "114915.859000", "114915.862000", "114915.873000", "114915.876000", "114915.879000", "114915.881000", "114915.884000", "114915.886000", "114915.889000", "114915.891000", "114915.894000", "114915.897000", "114915.899000", "114915.902000", "114915.904000", "114915.907000", "114915.910000", "114915.912000", "114915.915000", "114915.931000", "114915.934000", "114955.827000", "114955.830000", "114955.833000", "114955.835000", "114955.838000", "114955.841000", "114955.843000", "114955.846000", "114955.848000", "114955.851000", "114955.865000", "114955.868000", "114955.871000", "114955.873000", "114955.876000", "114955.878000", "114955.881000", "114955.883000", "114955.886000", "114955.889000", "114955.891000", "114955.894000", "114955.897000", "114955.899000", "114955.902000", "114955.904000", "114955.907000", "114955.909000", "114955.912000", "114955.915000", "114955.917000", "114955.920000", "114955.922000", "115035.827000", "115035.830000", "115035.833000", "115035.835000", "115035.838000", "115035.840000", "115035.843000", "115035.846000", "115035.848000", "115035.851000", "115035.853000", "115035.856000", "115035.859000", "115035.861000", "115035.864000", "115035.866000", "115035.869000", "115035.872000", "115035.874000", "115035.877000", "115035.879000", "115035.882000", "115035.884000", "115035.887000", "115035.890000", "115035.892000", "115035.895000", "115035.897000", "115035.900000", "115035.902000", "115035.905000", "115035.907000", "115035.910000", "115035.912000", "115111.812000", "115111.815000", "115111.818000", "115111.820000", "115111.823000", "115111.825000", "115111.828000", "115111.831000", "115111.833000", "115111.836000", "115111.839000", "115111.841000", "115111.844000", "115111.846000", "115111.849000", "115111.852000", "115111.854000", "115111.857000", "115111.859000", "115111.862000", "115111.865000", "115111.867000", "115111.870000", "115111.873000", "115111.875000", "115111.878000", "115111.880000", "115111.883000", "115111.886000", "115111.888000"],
      "InstanceNumber": [1, 2, 3, 4, 5, 6, 7, 8, 9, 10, 11, 12, 13, 14, 15, 16, 17, 18, 19, 20, 21, 22, 23, 24, 25, 26, 27, 28, 29, 30, 31, 32, 33, 34, 35, 36, 37, 38, 39, 40, 41, 42, 43, 44, 45, 46, 47, 48, 49, 50, 51, 52, 53, 54, 55, 56, 57, 58, 59, 60, 61, 62, 63, 64, 65, 66, 67, 68, 69, 70, 71, 72, 73, 74, 75, 76, 77, 78, 79, 80, 81, 82, 83, 84, 85, 86, 87, 88, 89, 90, 91, 92, 93, 94, 95, 96, 97, 98, 99, 100, 101, 102, 103, 104, 105, 106, 107, 108, 109, 110, 111, 112, 113, 114, 115, 116, 117, 118, 119, 120, 121, 122, 123, 124, 125],
      "LargestImagePixelValue": [2234, 2116, 2104, 2064, 2050, 2022, 2036, 2021, 2027, 2040, 2047, 2039, 2044, 2046, 2042, 2051, 2063, 2027, 2030, 2031, 2023, 2038, 2030, 2028, 2022, 2034, 2020, 2024, 2025, 2033, 2023, 2036, 2039, 2017, 2035, 2033, 2034, 2025, 2027, 2040, 2030, 2037, 2031, 2020, 2033, 2042, 2019, 2023, 2025, 2035, 2017, 2025, 2024, 2016, 2025, 2018, 2029, 2013, 2016, 2025, 2025, 2028, 2019, 2031, 2029, 2022, 2033, 2025, 2041, 2037, 2035, 2023, 2021, 2015, 2021, 2032, 2014, 2029, 2024, 2017, 2025, 2026, 2024, 2033, 2028, 2036, 2028, 2034, 2028, 2032, 2017, 2020, 2026, 2044, 2023, 2030, 2026, 2015, 2016, 2015, 2022, 2001, 2005, 2012, 2020, 2022, 2032, 2010, 2010, 2006, 1994, 2001, 2007, 1997, 2014, 2030, 2008, 1990, 2010, 1989, 2008, 1988, 2007, 2006, 2019],
      "WindowCenter": [620.0, 617.0, 615.0, 614.0, 613.0, 612.0, 611.0, 611.0, 611.0, 611.0, 611.0, 610.0, 610.0, 610.0, 610.0, 610.0, 610.0, 609.0, 609.0, 609.0, 610.0, 610.0, 609.0, 609.0, 610.0, 610.0, 609.0, 610.0, 609.0, 610.0, 610.0, 610.0, 611.0, 610.0, 611.0, 610.0, 610.0, 609.0, 609.0, 609.0, 609.0, 609.0, 609.0, 610.0, 610.0, 611.0, 611.0, 611.0, 611.0, 611.0, 611.0, 611.0, 610.0, 611.0, 610.0, 611.0, 610.0, 610.0, 611.0, 610.0, 610.0, 610.0, 610.0, 610.0, 609.0, 609.0, 610.0, 610.0, 610.0, 610.0, 610.0, 610.0, 609.0, 609.0, 609.0, 609.0, 609.0, 609.0, 609.0, 609.0, 609.0, 609.0, 609.0, 609.0, 609.0, 609.0, 608.0, 608.0, 608.0, 608.0, 608.0, 607.0, 608.0, 608.0, 608.0, 608.0, 608.0, 609.0, 609.0, 609.0, 609.0, 608.0, 608.0, 608.0, 610.0, 609.0, 609.0, 611.0, 610.0, 609.0, 608.0, 607.0, 606.0, 606.0, 605.0, 607.0, 606.0, 607.0, 608.0, 609.0, 609.0, 609.0, 610.0, 610.0, 610.0],
      "WindowWidth": [1319.0, 1312.0, 1307.0, 1304.0, 1302.0, 1300.0, 1299.0, 1298.0, 1297.0, 1297.0, 1297.0, 1296.0, 1295.0, 1295.0, 1295.0, 1295.0, 1295.0, 1293.0, 1294.0, 1294.0, 1295.0, 1295.0, 1294.0, 1294.0, 1295.0, 1295.0, 1294.0, 1295.0, 1294.0, 1294.0, 1295.0, 1296.0, 1297.0, 1297.0, 1297.0, 1296.0, 1296.0, 1294.0, 1294.0, 1294.0, 1294.0, 1294.0, 1294.0, 1295.0, 1296.0, 1297.0, 1298.0, 1299.0, 1299.0, 1299.0, 1298.0, 1298.0, 1297.0, 1298.0, 1296.0, 1297.0, 1296.0, 1297.0, 1298.0, 1297.0, 1296.0, 1296.0, 1295.0, 1295.0, 1294.0, 1295.0, 1296.0, 1295.0, 1296.0, 1296.0, 1296.0, 1296.0, 1294.0, 1293.0, 1293.0, 1294.0, 1294.0, 1294.0, 1293.0, 1294.0, 1294.0, 1294.0, 1293.0, 1294.0, 1293.0, 1294.0, 1291.0, 1292.0, 1291.0, 1291.0, 1291.0, 1290.0, 1290.0, 1291.0, 1290.0, 1291.0, 1292.0, 1293.0, 1294.0, 1293.0, 1293.0, 1292.0, 1291.0, 1292.0, 1295.0, 1293.0, 1294.0, 1297.0, 1296.0, 1293.0, 1291.0, 1288.0, 1287.0, 1286.0, 1285.0, 1288.0, 1288.0, 1288.0, 1291.0, 1293.0, 1294.0, 1294.0, 1296.0, 1296.0, 1296.0]
    },
    "slices": {}
  }
}