{
  "AcquisitionMatrixPE": 88,
  "AcquisitionNumber": 1,
  "AcquisitionTime": "12:15:54.485000",
  "BandwidthPerPixelPhaseEncode": 19.592,
  "BaseResolution": 88,
  "BodyPartExamined": "BRAIN",
  "ConsistencyInfo": "N4_VE11C_LATEST_20160120",
  "ConversionSoftware": "dcm2niix",
  "ConversionSoftwareVersion": "v1.0.20190902",
  "DerivedVendorReportedEchoSpacing": 0.000580014,
  "DeviceSerialNumber": "67050",
  "DwellTime": 2.6e-06,
  "EchoTime": 0.033,
  "EchoTrainLength": 88,
  "EffectiveEchoSpacing": 0.000580014,
  "FlipAngle": 62,
  "ImageOrientationPatientDICOM": [0.997424, -0.0480032, 0.0532933, 0.0522728, 0.995273, -0.0818458],
  "ImageType": [
    "ORIGINAL",
    "PRIMARY",
    "M",
    "ND",
    "MOSAIC"
],
  "ImagingFrequency": 123.251,
  "InPlanePhaseEncodingDirectionDICOM": "COL",
  "InstitutionAddress": "Olive_Street_60_Providence_RI_US_02912",
  "InstitutionName": "BROWN_UNIVERSITY_MRF",
  "InstitutionalDepartmentName": "Department",
  "MRAcquisitionType": "2D",
  "MagneticFieldStrength": 3,
  "Manufacturer": "Siemens",
  "ManufacturersModelName": "Prisma_fit",
  "Modality": "MR",
  "MultibandAccelerationFactor": 4,
  "PartialFourier": 1,
  "PatientPosition": "HFS",
  "PercentPhaseFOV": 100,
  "PhaseEncodingDirection": "j-",
  "PhaseEncodingSteps": 88,
  "PhaseResolution": 1,
  "PixelBandwidth": 2185,
  "ProcedureStepDescription": "ASHENHAV_1222",
  "ProtocolName": "func-bold_task-RDMcolor_run-06",
  "PulseSequenceDetails": "%SiemensSeq%_ep2d_bold",
  "ReceiveCoilActiveElements": "HC1-7",
  "ReceiveCoilName": "HeadNeck_64",
  "ReconMatrixPE": 88,
  "RefLinesPE": 8,
  "RepetitionTime": 1.2,
  "SAR": 0.0565461,
  "ScanOptions": "FS",
  "ScanningSequence": "EP",
  "SequenceName": "_epfid2d1_88",
  "SequenceVariant": "SK",
  "SeriesDescription": "func-bold_task-RDMcolor_run-06",
  "SeriesNumber": 18,
  "ShimSetting": [1763, -9088, 4400, 393, -46, -114, -11, -18],
  "SliceThickness": 2.4,
  "SliceTiming": [0.5525, 0, 0.63, 0.08, 0.71, 0.1575, 0.7875, 0.2375, 0.8675, 0.315, 0.945, 0.395, 1.0225, 0.4725, 1.1025, 0.5525, 0, 0.63, 0.08, 0.71, 0.1575, 0.7875, 0.2375, 0.8675, 0.315, 0.945, 0.395, 1.0225, 0.4725, 1.1025, 0.5525, 0, 0.63, 0.08, 0.71, 0.1575, 0.7875, 0.2375, 0.8675, 0.315, 0.945, 0.395, 1.0225, 0.4725, 1.1025, 0.5525, 0, 0.63, 0.08, 0.71, 0.1575, 0.7875, 0.2375, 0.8675, 0.315, 0.945, 0.395, 1.0225, 0.4725, 1.1025],
  "SoftwareVersions": "syngo_MR_E11",
  "SpacingBetweenSlices": 2.4,
  "StationName": "AWP67050",
  "TaskName": "RDMcolor",
  "TotalReadoutTime": 0.0504612,
  "TxRefAmp": 228.252,
  "dcmmeta_affine": [
    [-2.3915517330169678, 0.1253359317779541, 0.1178700253367424, 99.62566375732422],
    [0.11509868502616882, 2.3863937854766846, -0.2026098519563675, -97.7523193359375],
    [0.12778274714946747, 0.19624385237693787, 2.38852596282959, -64.01099395751953],
    [0.0, 0.0, 0.0, 1.0]
],
  "dcmmeta_reorient_transform": [
    [0.0, -1.0, 0.0, 87.0],
    [1.0, 0.0, 0.0, 0.0],
    [0.0, 0.0, 1.0, 0.0],
    [0.0, 0.0, 0.0, 1.0]
],
  "dcmmeta_shape": [88, 88, 60, 392],
  "dcmmeta_slice_dim": 2,
  "dcmmeta_version": 0.6,
  "global": {
    "const": {
      "AcquisitionMatrix": [88, 0, 0, 88],
      "AngioFlag": "N",
      "BitsAllocated": 16,
      "BitsStored": 12,
      "BodyPartExamined": "BRAIN",
      "Columns": 704,
      "DeidentificationMethodCodeSequence": [
        {
          "CodeMeaning": "XNAT DicomEdit 6 Script",
          "CodeValue": "3",
          "CodingSchemeDesignator": "XNAT",
          "CodingSchemeVersion": "1.0"}
],
      "EchoNumbers": 1,
      "EchoTime": 33.0,
      "EchoTrainLength": 88,
      "FlipAngle": 62.0,
      "HighBit": 11,
      "ImageOrientationPatient": [0.9974244408647, -0.0480032440685, 0.05329327654247, 0.05227280573031, 0.99527323992413, -0.0818457798057],
      "ImagePositionPatient": [-885.73130256621, -809.42282354443, -25.851756891126],
      "ImageType": [
        "ORIGINAL",
        "PRIMARY",
        "M",
        "ND",
        "MOSAIC"
],
      "ImagedNucleus": "1H",
      "ImagingFrequency": 123.250643,
      "InPlanePhaseEncodingDirection": "COL",
      "MRAcquisitionType": "2D",
      "MagneticFieldStrength": 3.0,
      "Manufacturer": "SIEMENS",
      "ManufacturerModelName": "Prisma_fit",
      "Modality": "MR",
      "NumberOfAverages": 1.0,
      "NumberOfPhaseEncodingSteps": 88,
      "PercentPhaseFieldOfView": 100.0,
      "PercentSampling": 100.0,
      "PerformedProcedureStepStartTime": "110350.685000",
      "PhotometricInterpretation": "MONOCHROME2",
      "PixelBandwidth": 2185.0,
      "PixelRepresentation": 0,
      "PixelSpacing": [2.3977272510529, 2.3977272510529],
      "ProtocolName": "func-bold_task-RDMcolor_run-06",
      "RepetitionTime": 1200.0,
      "Rows": 704,
      "SAR": 0.05654611448385,
      "SamplesPerPixel": 1,
      "ScanOptions": "FS",
      "ScanningSequence": "EP",
      "SequenceName": "*epfid2d1_88",
      "SequenceVariant": "SK",
      "SeriesDescription": "func-bold_task-RDMcolor_run-06",
      "SeriesNumber": 18,
      "SeriesTime": "121632.168000",
      "SliceLocation": -50.559774314888,
      "SliceThickness": 2.4000000953674,
      "SmallestImagePixelValue": 0,
      "SoftwareVersions": "syngo MR E11",
      "SpacingBetweenSlices": 2.4000000606126,
      "SpecificCharacterSet": "ISO_IR 100",
      "StudyID": "1",
      "StudyTime": "110350.614000",
      "TransmitCoilName": "Body",
      "VariableFlipAngleFlag": "N",
      "WindowCenterWidthExplanation": "Algo1",
      "dBdt": 0.0},
    "slices": {}
  },
  "time": {
    "samples": {
      "AcquisitionNumber": [1, 2, 3, 4, 5, 6, 7, 8, 9, 10, 11, 12, 13, 14, 15, 16, 17, 18, 19, 20, 21, 22, 23, 24, 25, 26, 27, 28, 29, 30, 31, 32, 33, 34, 35, 36, 37, 38, 39, 40, 41, 42, 43, 44, 45, 46, 47, 48, 49, 50, 51, 52, 53, 54, 55, 56, 57, 58, 59, 60, 61, 62, 63, 64, 65, 66, 67, 68, 69, 70, 71, 72, 73, 74, 75, 76, 77, 78, 79, 80, 81, 82, 83, 84, 85, 86, 87, 88, 89, 90, 91, 92, 93, 94, 95, 96, 97, 98, 99, 100, 101, 102, 103, 104, 105, 106, 107, 108, 109, 110, 111, 112, 113, 114, 115, 116, 117, 118, 119, 120, 121, 122, 123, 124, 125, 126, 127, 128, 129, 130, 131, 132, 133, 134, 135, 136, 137, 138, 139, 140, 141, 142, 143, 144, 145, 146, 147, 148, 149, 150, 151, 152, 153, 154, 155, 156, 157, 158, 159, 160, 161, 162, 163, 164, 165, 166, 167, 168, 169, 170, 171, 172, 173, 174, 175, 176, 177, 178, 179, 180, 181, 182, 183, 184, 185, 186, 187, 188, 189, 190, 191, 192, 193, 194, 195, 196, 197, 198, 199, 200, 201, 202, 203, 204, 205, 206, 207, 208, 209, 210, 211, 212, 213, 214, 215, 216, 217, 218, 219, 220, 221, 222, 223, 224, 225, 226, 227, 228, 229, 230, 231, 232, 233, 234, 235, 236, 237, 238, 239, 240, 241, 242, 243, 244, 245, 246, 247, 248, 249, 250, 251, 252, 253, 254, 255, 256, 257, 258, 259, 260, 261, 262, 263, 264, 265, 266, 267, 268, 269, 270, 271, 272, 273, 274, 275, 276, 277, 278, 279, 280, 281, 282, 283, 284, 285, 286, 287, 288, 289, 290, 291, 292, 293, 294, 295, 296, 297, 298, 299, 300, 301, 302, 303, 304, 305, 306, 307, 308, 309, 310, 311, 312, 313, 314, 315, 316, 317, 318, 319, 320, 321, 322, 323, 324, 325, 326, 327, 328, 329, 330, 331, 332, 333, 334, 335, 336, 337, 338, 339, 340, 341, 342, 343, 344, 345, 346, 347, 348, 349, 350, 351, 352, 353, 354, 355, 356, 357, 358, 359, 360, 361, 362, 363, 364, 365, 366, 367, 368, 369, 370, 371, 372, 373, 374, 375, 376, 377, 378, 379, 380, 381, 382, 383, 384, 385, 386, 387, 388, 389, 390, 391, 392],
      "AcquisitionTime": ["121554.485000", "121555.685000", "121556.885000", "121558.085000", "121559.285000", "121600.485000", "121601.685000", "121602.885000", "121604.085000", "121605.285000", "121606.485000", "121607.685000", "121608.885000", "121610.085000", "121611.285000", "121612.485000", "121613.685000", "121614.885000", "121616.085000", "121617.285000", "121618.485000", "121619.685000", "121620.885000", "121622.085000", "121623.285000", "121624.485000", "121625.685000", "121626.885000", "121628.085000", "121629.285000", "121630.485000", "121631.685000", "121632.885000", "121634.085000", "121635.285000", "121636.485000", "121637.685000", "121638.885000", "121640.085000", "121641.285000", "121642.485000", "121643.685000", "121644.885000", "121646.085000", "121647.285000", "121648.485000", "121649.685000", "121650.885000", "121652.085000", "121653.285000", "121654.485000", "121655.685000", "121656.885000", "121658.085000", "121659.285000", "121700.485000", "121701.685000", "121702.885000", "121704.085000", "121705.285000", "121706.485000", "121707.685000", "121708.885000", "121710.085000", "121711.285000", "121712.485000", "121713.685000", "121714.885000", "121716.085000", "121717.285000", "121718.485000", "121719.685000", "121720.885000", "121722.085000", "121723.285000", "121724.485000", "121725.685000", "121726.885000", "121728.085000", "121729.285000", "121730.485000", "121731.685000", "121732.885000", "121734.085000", "121735.285000", "121736.485000", "121737.685000", "121738.885000", "121740.085000", "121741.285000", "121742.485000", "121743.685000", "121744.885000", "121746.085000", "121747.285000", "121748.485000", "121749.685000", "121750.885000", "121752.085000", "121753.285000", "121754.485000", "121755.685000", "121756.885000", "121758.085000", "121759.285000", "121800.485000", "121801.685000", "121802.885000", "121804.085000", "121805.285000", "121806.485000", "121807.685000", "121808.885000", "121810.085000", "121811.285000", "121812.485000", "121813.685000", "121814.885000", "121816.085000", "121817.285000", "121818.485000", "121819.685000", "121820.885000", "121822.085000", "121823.285000", "121824.485000", "121825.685000", "121826.885000", "121828.085000", "121829.285000", "121830.485000", "121831.685000", "121832.885000", "121834.085000", "121835.285000", "121836.485000", "121837.685000", "121838.885000", "121840.085000", "121841.285000", "121842.485000", "121843.685000", "121844.885000", "121846.085000", "121847.285000", "121848.485000", "121849.685000", "121850.885000", "121852.085000", "121853.285000", "121854.485000", "121855.685000", "121856.885000", "121858.085000", "121859.285000", "121900.485000", "121901.685000", "121902.885000", "121904.085000", "121905.285000", "121906.485000", "121907.685000", "121908.885000", "121910.085000", "121911.285000", "121912.485000", "121913.685000", "121914.885000", "121916.085000", "121917.285000", "121918.485000", "121919.685000", "121920.885000", "121922.085000", "121923.285000", "121924.485000", "121925.685000", "121926.885000", "121928.085000", "121929.285000", "121930.485000", "121931.685000", "121932.885000", "121934.085000", "121935.285000", "121936.485000", "121937.685000", "121938.885000", "121940.085000", "121941.285000", "121942.485000", "121943.685000", "121944.885000", "121946.085000", "121947.285000", "121948.485000", "121949.685000", "121950.885000", "121952.085000", "121953.285000", "121954.485000", "121955.685000", "121956.885000", "121958.085000", "121959.285000", "122000.485000", "122001.685000", "122002.885000", "122004.085000", "122005.285000", "122006.485000", "122007.685000", "122008.885000", "122010.085000", "122011.285000", "122012.485000", "122013.685000", "122014.885000", "122016.085000", "122017.285000", "122018.485000", "122019.685000", "122020.885000", "122022.085000", "122023.285000", "122024.485000", "122025.685000", "122026.885000", "122028.085000", "122029.285000", "122030.485000", "122031.685000", "122032.885000", "122034.085000", "122035.285000", "122036.485000", "122037.685000", "122038.885000", "122040.085000", "122041.285000", "122042.485000", "122043.685000", "122044.885000", "122046.085000", "122047.285000", "122048.485000", "122049.685000", "122050.885000", "122052.085000", "122053.285000", "122054.485000", "122055.685000", "122056.885000", "122058.085000", "122059.285000", "122100.485000", "122101.685000", "122102.885000", "122104.085000", "122105.285000", "122106.485000", "122107.685000", "122108.885000", "122110.085000", "122111.285000", "122112.485000", "122113.685000", "122114.885000", "122116.085000", "122117.285000", "122118.485000", "122119.685000", "122120.885000", "122122.085000", "122123.285000", "122124.485000", "122125.685000", "122126.885000", "122128.085000", "122129.285000", "122130.485000", "122131.685000", "122132.885000", "122134.085000", "122135.285000", "122136.485000", "122137.685000", "122138.885000", "122140.085000", "122141.285000", "122142.485000", "122143.685000", "122144.885000", "122146.085000", "122147.285000", "122148.485000", "122149.685000", "122150.885000", "122152.085000", "122153.285000", "122154.485000", "122155.685000", "122156.885000", "122158.085000", "122159.285000", "122200.485000", "122201.685000", "122202.885000", "122204.085000", "122205.285000", "122206.485000", "122207.685000", "122208.885000", "122210.085000", "122211.285000", "122212.485000", "122213.685000", "122214.885000", "122216.085000", "122217.285000", "122218.485000", "122219.685000", "122220.885000", "122222.085000", "122223.285000", "122224.485000", "122225.685000", "122226.885000", "122228.085000", "122229.285000", "122230.485000", "122231.685000", "122232.885000", "122234.085000", "122235.285000", "122236.485000", "122237.685000", "122238.885000", "122240.085000", "122241.285000", "122242.485000", "122243.685000", "122244.885000", "122246.085000", "122247.285000", "122248.485000", "122249.685000", "122250.885000", "122252.085000", "122253.285000", "122254.485000", "122255.685000", "122256.885000", "122258.085000", "122259.285000", "122300.485000", "122301.685000", "122302.885000", "122304.085000", "122305.285000", "122306.485000", "122307.685000", "122308.885000", "122310.085000", "122311.285000", "122312.485000", "122313.685000", "122314.885000", "122316.085000", "122317.285000", "122318.485000", "122319.685000", "122320.885000", "122322.085000", "122323.285000", "122324.485000", "122325.685000", "122326.885000", "122328.085000", "122329.285000", "122330.485000", "122331.685000", "122332.885000", "122334.085000", "122335.285000", "122336.485000", "122337.685000", "122338.885000", "122340.085000", "122341.285000", "122342.485000", "122343.685000"],
      "ContentTime": ["121632.172000", "121632.175000", "121632.185000", "121632.188000", "121632.191000", "121632.193000", "121632.196000", "121632.198000", "121632.201000", "121632.204000", "121632.206000", "121632.209000", "121632.211000", "121632.214000", "121632.217000", "121632.219000", "121632.222000", "121632.224000", "121632.227000", "121632.236000", "121632.239000", "121632.241000", "121632.244000", "121632.246000", "121632.249000", "121632.252000", "121632.254000", "121632.257000", "121632.260000", "121632.262000", "121632.265000", "121712.167000", "121712.170000", "121712.173000", "121712.175000", "121712.178000", "121712.181000", "121712.183000", "121712.186000", "121712.189000", "121712.191000", "121712.194000", "121712.196000", "121712.199000", "121712.201000", "121712.212000", "121712.215000", "121712.218000", "121712.220000", "121712.223000", "121712.225000", "121712.228000", "121712.231000", "121712.233000", "121712.236000", "121712.239000", "121712.241000", "121712.244000", "121712.246000", "121712.249000", "121712.252000", "121712.254000", "121712.257000", "121712.259000", "121752.168000", "121752.171000", "121752.174000", "121752.177000", "121752.179000", "121752.182000", "121752.184000", "121752.187000", "121752.190000", "121752.193000", "121752.195000", "121752.198000", "121752.200000", "121752.203000", "121752.205000", "121752.208000", "121752.211000", "121752.213000", "121752.216000", "121752.218000", "121752.221000", "121752.224000", "121752.226000", "121752.229000", "121752.240000", "121752.243000", "121752.245000", "121752.248000", "121752.251000", "121752.262000", "121752.264000", "121752.267000", "121752.270000", "121752.272000", "121832.168000", "121832.171000", "121832.174000", "121832.176000", "121832.179000", "121832.182000", "121832.184000", "121832.187000", "121832.189000", "121832.192000", "121832.195000", "121832.197000", "121832.200000", "121832.202000", "121832.205000", "121832.208000", "121832.210000", "121832.213000", "121832.215000", "121832.218000", "121832.221000", "121832.223000", "121832.226000", "121832.228000", "121832.231000", "121832.233000", "121832.236000", "121832.239000", "121832.241000", "121832.244000", "121832.246000", "121832.249000", "121832.252000", "121912.169000", "121912.172000", "121912.174000", "121912.177000", "121912.180000", "121912.182000", "121912.185000", "121912.187000", "121912.190000", "121912.192000", "121912.195000", "121912.198000", "121912.201000", "121912.203000", "121912.206000", "121912.209000", "121912.211000", "121912.214000", "121912.216000", "121912.219000", "121912.222000", "121912.224000", "121912.227000", "121912.229000", "121912.232000", "121912.235000", "121912.253000", "121912.255000", "121912.258000", "121912.260000", "121912.263000", "121912.265000", "121912.268000", "121952.168000", "121952.170000", "121952.173000", "121952.176000", "121952.179000", "121952.181000", "121952.184000", "121952.191000", "121952.193000", "121952.196000", "121952.198000", "121952.201000", "121952.203000", "121952.206000", "121952.209000", "121952.211000", "121952.221000", "121952.224000", "121952.226000", "121952.229000", "121952.232000", "121952.234000", "121952.237000", "121952.240000", "121952.242000", "121952.245000", "121952.247000", "121952.250000", "121952.253000", "121952.255000", "121952.258000", "121952.260000", "121952.263000", "121952.266000", "122032.169000", "122032.172000", "122032.174000", "122032.177000", "122032.180000", "122032.182000", "122032.185000", "122032.188000", "122032.190000", "122032.193000", "122032.195000", "122032.198000", "122032.201000", "122032.210000", "122032.212000", "122032.215000", "122032.218000", "122032.220000", "122032.223000", "122032.225000", "122032.228000", "122032.231000", "122032.233000", "122032.236000", "122032.238000", "122032.241000", "122032.244000", "122032.246000", "122032.249000", "122032.251000", "122032.254000", "122032.257000", "122032.259000", "122112.167000", "122112.170000", "122112.173000", "122112.176000", "122112.178000", "122112.181000", "122112.184000", "122112.186000", "122112.189000", "122112.192000", "122112.194000", "122112.197000", "122112.199000", "122112.202000", "122112.205000", "122112.207000", "122112.210000", "122112.212000", "122112.215000", "122112.218000", "122112.220000", "122112.223000", "122112.226000", "122112.228000", "122112.231000", "122112.233000", "122112.236000", "122112.238000", "122112.241000", "122112.244000", "122112.246000", "122112.249000", "122112.252000", "122152.168000", "122152.170000", "122152.173000", "122152.176000", "122152.178000", "122152.181000", "122152.184000", "122152.186000", "122152.189000", "122152.192000", "122152.194000", "122152.197000", "122152.199000", "122152.202000", "122152.205000", "122152.207000", "122152.210000", "122152.212000", "122152.215000", "122152.218000", "122152.220000", "122152.223000", "122152.225000", "122152.228000", "122152.231000", "122152.233000", "122152.236000", "122152.239000", "122152.241000", "122152.244000", "122152.246000", "122152.249000", "122152.252000", "122152.254000", "122232.168000", "122232.171000", "122232.174000", "122232.189000", "122232.192000", "122232.194000", "122232.211000", "122232.214000", "122232.216000", "122232.219000", "122232.221000", "122232.224000", "122232.227000", "122232.229000", "122232.232000", "122232.234000", "122232.237000", "122232.240000", "122232.242000", "122232.245000", "122232.248000", "122232.250000", "122232.253000", "122232.255000", "122232.258000", "122232.260000", "122232.263000", "122232.266000", "122232.268000", "122232.271000", "122232.274000", "122232.276000", "122232.279000", "122312.169000", "122312.171000", "122312.174000", "122312.177000", "122312.179000", "122312.182000", "122312.184000", "122312.187000", "122312.190000", "122312.192000", "122312.195000", "122312.198000", "122312.200000", "122312.203000", "122312.205000", "122312.208000", "122312.211000", "122312.213000", "122312.216000", "122312.219000", "122312.221000", "122312.224000", "122312.227000", "122312.243000", "122312.246000", "122312.249000", "122312.251000", "122312.254000", "122312.256000", "122312.259000", "122312.262000", "122312.264000", "122312.267000", "122344.987000", "122344.990000", "122344.993000", "122344.996000", "122344.998000", "122345.002000", "122345.005000", "122345.012000", "122345.021000", "122345.023000", "122345.026000", "122345.029000", "122345.031000", "122345.034000", "122345.036000", "122345.039000", "122345.042000", "122345.045000", "122345.047000", "122345.050000", "122345.052000", "122345.059000", "122345.063000", "122345.066000", "122345.069000", "122345.072000", "122345.075000", "122345.079000"],
      "InstanceCreationTime": ["121632.172000", "121632.175000", "121632.185000", "121632.188000", "121632.191000", "121632.193000", "121632.196000", "121632.198000", "121632.201000", "121632.204000", "121632.206000", "121632.209000", "121632.211000", "121632.214000", "121632.217000", "121632.219000", "121632.222000", "121632.224000", "121632.227000", "121632.236000", "121632.239000", "121632.241000", "121632.244000", "121632.246000", "121632.249000", "121632.252000", "121632.254000", "121632.257000", "121632.260000", "121632.262000", "121632.265000", "121712.167000", "121712.170000", "121712.173000", "121712.175000", "121712.178000", "121712.181000", "121712.183000", "121712.186000", "121712.189000", "121712.191000", "121712.194000", "121712.196000", "121712.199000", "121712.201000", "121712.212000", "121712.215000", "121712.218000", "121712.220000", "121712.223000", "121712.225000", "121712.228000", "121712.231000", "121712.233000", "121712.236000", "121712.239000", "121712.241000", "121712.244000", "121712.246000", "121712.249000", "121712.252000", "121712.254000", "121712.257000", "121712.259000", "121752.168000", "121752.171000", "121752.174000", "121752.177000", "121752.179000", "121752.182000", "121752.184000", "121752.187000", "121752.190000", "121752.193000", "121752.195000", "121752.198000", "121752.200000", "121752.203000", "121752.205000", "121752.208000", "121752.211000", "121752.213000", "121752.216000", "121752.218000", "121752.221000", "121752.224000", "121752.226000", "121752.229000", "121752.240000", "121752.243000", "121752.245000", "121752.248000", "121752.251000", "121752.262000", "121752.264000", "121752.267000", "121752.270000", "121752.272000", "121832.168000", "121832.171000", "121832.174000", "121832.176000", "121832.179000", "121832.182000", "121832.184000", "121832.187000", "121832.189000", "121832.192000", "121832.195000", "121832.197000", "121832.200000", "121832.202000", "121832.205000", "121832.208000", "121832.210000", "121832.213000", "121832.215000", "121832.218000", "121832.221000", "121832.223000", "121832.226000", "121832.228000", "121832.231000", "121832.233000", "121832.236000", "121832.239000", "121832.241000", "121832.244000", "121832.246000", "121832.249000", "121832.252000", "121912.169000", "121912.172000", "121912.174000", "121912.177000", "121912.180000", "121912.182000", "121912.185000", "121912.187000", "121912.190000", "121912.192000", "121912.195000", "121912.198000", "121912.201000", "121912.203000", "121912.206000", "121912.209000", "121912.211000", "121912.214000", "121912.216000", "121912.219000", "121912.222000", "121912.224000", "121912.227000", "121912.229000", "121912.232000", "121912.235000", "121912.253000", "121912.255000", "121912.258000", "121912.260000", "121912.263000", "121912.265000", "121912.268000", "121952.168000", "121952.170000", "121952.173000", "121952.176000", "121952.179000", "121952.181000", "121952.184000", "121952.191000", "121952.193000", "121952.196000", "121952.198000", "121952.201000", "121952.203000", "121952.206000", "121952.209000", "121952.211000", "121952.221000", "121952.224000", "121952.226000", "121952.229000", "121952.232000", "121952.234000", "121952.237000", "121952.240000", "121952.242000", "121952.245000", "121952.247000", "121952.250000", "121952.253000", "121952.255000", "121952.258000", "121952.260000", "121952.263000", "121952.266000", "122032.169000", "122032.172000", "122032.174000", "122032.177000", "122032.180000", "122032.182000", "122032.185000", "122032.188000", "122032.190000", "122032.193000", "122032.195000", "122032.198000", "122032.201000", "122032.210000", "122032.212000", "122032.215000", "122032.218000", "122032.220000", "122032.223000", "122032.225000", "122032.228000", "122032.231000", "122032.233000", "122032.236000", "122032.238000", "122032.241000", "122032.244000", "122032.246000", "122032.249000", "122032.251000", "122032.254000", "122032.257000", "122032.259000", "122112.167000", "122112.170000", "122112.173000", "122112.176000", "122112.178000", "122112.181000", "122112.184000", "122112.186000", "122112.189000", "122112.192000", "122112.194000", "122112.197000", "122112.199000", "122112.202000", "122112.205000", "122112.207000", "122112.210000", "122112.212000", "122112.215000", "122112.218000", "122112.220000", "122112.223000", "122112.226000", "122112.228000", "122112.231000", "122112.233000", "122112.236000", "122112.238000", "122112.241000", "122112.244000", "122112.246000", "122112.249000", "122112.252000", "122152.168000", "122152.170000", "122152.173000", "122152.176000", "122152.178000", "122152.181000", "122152.184000", "122152.186000", "122152.189000", "122152.192000", "122152.194000", "122152.197000", "122152.199000", "122152.202000", "122152.205000", "122152.207000", "122152.210000", "122152.212000", "122152.215000", "122152.218000", "122152.220000", "122152.223000", "122152.225000", "122152.228000", "122152.231000", "122152.233000", "122152.236000", "122152.239000", "122152.241000", "122152.244000", "122152.246000", "122152.249000", "122152.252000", "122152.254000", "122232.168000", "122232.171000", "122232.174000", "122232.189000", "122232.192000", "122232.194000", "122232.211000", "122232.214000", "122232.216000", "122232.219000", "122232.221000", "122232.224000", "122232.227000", "122232.229000", "122232.232000", "122232.234000", "122232.237000", "122232.240000", "122232.242000", "122232.245000", "122232.248000", "122232.250000", "122232.253000", "122232.255000", "122232.258000", "122232.260000", "122232.263000", "122232.266000", "122232.268000", "122232.271000", "122232.274000", "122232.276000", "122232.279000", "122312.169000", "122312.171000", "122312.174000", "122312.177000", "122312.179000", "122312.182000", "122312.184000", "122312.187000", "122312.190000", "122312.192000", "122312.195000", "122312.198000", "122312.200000", "122312.203000", "122312.205000", "122312.208000", "122312.211000", "122312.213000", "122312.216000", "122312.219000", "122312.221000", "122312.224000", "122312.227000", "122312.243000", "122312.246000", "122312.249000", "122312.251000", "122312.254000", "122312.256000", "122312.259000", "122312.262000", "122312.264000", "122312.267000", "122344.987000", "122344.990000", "122344.993000", "122344.996000", "122344.998000", "122345.002000", "122345.005000", "122345.012000", "122345.021000", "122345.023000", "122345.026000", "122345.029000", "122345.031000", "122345.034000", "122345.036000", "122345.039000", "122345.042000", "122345.045000", "122345.047000", "122345.050000", "122345.052000", "122345.059000", "122345.063000", "122345.066000", "122345.069000", "122345.072000", "122345.075000", "122345.079000"],
      "InstanceNumber": [1, 2, 3, 4, 5, 6, 7, 8, 9, 10, 11, 12, 13, 14, 15, 16, 17, 18, 19, 20, 21, 22, 23, 24, 25, 26, 27, 28, 29, 30, 31, 32, 33, 34, 35, 36, 37, 38, 39, 40, 41, 42, 43, 44, 45, 46, 47, 48, 49, 50, 51, 52, 53, 54, 55, 56, 57, 58, 59, 60, 61, 62, 63, 64, 65, 66, 67, 68, 69, 70, 71, 72, 73, 74, 75, 76, 77, 78, 79, 80, 81, 82, 83, 84, 85, 86, 87, 88, 89, 90, 91, 92, 93, 94, 95, 96, 97, 98, 99, 100, 101, 102, 103, 104, 105, 106, 107, 108, 109, 110, 111, 112, 113, 114, 115, 116, 117, 118, 119, 120, 121, 122, 123, 124, 125, 126, 127, 128, 129, 130, 131, 132, 133, 134, 135, 136, 137, 138, 139, 140, 141, 142, 143, 144, 145, 146, 147, 148, 149, 150, 151, 152, 153, 154, 155, 156, 157, 158, 159, 160, 161, 162, 163, 164, 165, 166, 167, 168, 169, 170, 171, 172, 173, 174, 175, 176, 177, 178, 179, 180, 181, 182, 183, 184, 185, 186, 187, 188, 189, 190, 191, 192, 193, 194, 195, 196, 197, 198, 199, 200, 201, 202, 203, 204, 205, 206, 207, 208, 209, 210, 211, 212, 213, 214, 215, 216, 217, 218, 219, 220, 221, 222, 223, 224, 225, 226, 227, 228, 229, 230, 231, 232, 233, 234, 235, 236, 237, 238, 239, 240, 241, 242, 243, 244, 245, 246, 247, 248, 249, 250, 251, 252, 253, 254, 255, 256, 257, 258, 259, 260, 261, 262, 263, 264, 265, 266, 267, 268, 269, 270, 271, 272, 273, 274, 275, 276, 277, 278, 279, 280, 281, 282, 283, 284, 285, 286, 287, 288, 289, 290, 291, 292, 293, 294, 295, 296, 297, 298, 299, 300, 301, 302, 303, 304, 305, 306, 307, 308, 309, 310, 311, 312, 313, 314, 315, 316, 317, 318, 319, 320, 321, 322, 323, 324, 325, 326, 327, 328, 329, 330, 331, 332, 333, 334, 335, 336, 337, 338, 339, 340, 341, 342, 343, 344, 345, 346, 347, 348, 349, 350, 351, 352, 353, 354, 355, 356, 357, 358, 359, 360, 361, 362, 363, 364, 365, 366, 367, 368, 369, 370, 371, 372, 373, 374, 375, 376, 377, 378, 379, 380, 381, 382, 383, 384, 385, 386, 387, 388, 389, 390, 391, 392],
