{
  "AcquisitionMatrixPE": 88,
  "AcquisitionNumber": 1,
  "AcquisitionTime": "09:30:34.160000",
  "BandwidthPerPixelPhaseEncode": 19.592,
  "BaseResolution": 88,
  "BodyPartExamined": "BRAIN",
  "ConsistencyInfo": "N4_VE11C_LATEST_20160120",
  "ConversionSoftware": "dcm2niix",
  "ConversionSoftwareVersion": "v1.0.20190902",
  "DerivedVendorReportedEchoSpacing": 0.000580014,
  "DeviceSerialNumber": "67050",
  "DwellTime": 2.6e-06,
  "EchoTime": 0.033,
  "EchoTrainLength": 88,
  "EffectiveEchoSpacing": 0.000580014,
  "FlipAngle": 62,
  "ImageOrientationPatientDICOM": [0.998696, 0.00263815, 0.0509839, -0.00505487, 0.998866, 0.0473311],
  "ImageType": [
    "ORIGINAL",
    "PRIMARY",
    "M",
    "ND",
    "MOSAIC"
],
  "ImagingFrequency": 123.251,
  "InPlanePhaseEncodingDirectionDICOM": "COL",
  "InstitutionAddress": "Olive_Street_60_Providence_RI_US_02912",
  "InstitutionName": "BROWN_UNIVERSITY_MRF",
  "InstitutionalDepartmentName": "Department",
  "MRAcquisitionType": "2D",
  "MagneticFieldStrength": 3,
  "Manufacturer": "Siemens",
  "ManufacturersModelName": "Prisma_fit",
  "Modality": "MR",
  "MultibandAccelerationFactor": 4,
  "PartialFourier": 1,
  "PatientPosition": "HFS",
  "PercentPhaseFOV": 100,
  "PhaseEncodingDirection": "j-",
  "PhaseEncodingSteps": 88,
  "PhaseResolution": 1,
  "PixelBandwidth": 2185,
  "ProcedureStepDescription": "ASHENHAV_1222",
  "ProtocolName": "func-bold_task-RDMmotion_run-03",
  "PulseSequenceDetails": "%SiemensSeq%_ep2d_bold",
  "ReceiveCoilActiveElements": "HC1-7;NC1",
  "ReceiveCoilName": "HeadNeck_64",
  "ReconMatrixPE": 88,
  "RefLinesPE": 8,
  "RepetitionTime": 1.2,
  "SAR": 0.0557043,
  "ScanOptions": "FS",
  "ScanningSequence": "EP",
  "SequenceName": "_epfid2d1_88",
  "SequenceVariant": "SK",
  "SeriesDescription": "func-bold_task-RDMmotion_run-03",
  "SeriesNumber": 11,
  "ShimSetting": [1748, -9121, 4431, 338, -71, -222, 97, -19],
  "SliceThickness": 2.4,
  "SliceTiming": [0.55, 0, 0.6275, 0.0775, 0.7075, 0.155, 0.785, 0.235, 0.865, 0.3125, 0.9425, 0.3925, 1.0225, 0.47, 1.1, 0.55, 0, 0.6275, 0.0775, 0.7075, 0.155, 0.785, 0.235, 0.865, 0.3125, 0.9425, 0.3925, 1.0225, 0.47, 1.1, 0.55, 0, 0.6275, 0.0775, 0.7075, 0.155, 0.785, 0.235, 0.865, 0.3125, 0.9425, 0.3925, 1.0225, 0.47, 1.1, 0.55, 0, 0.6275, 0.0775, 0.7075, 0.155, 0.785, 0.235, 0.865, 0.3125, 0.9425, 0.3925, 1.0225, 0.47, 1.1],
  "SoftwareVersions": "syngo_MR_E11",
  "SpacingBetweenSlices": 2.4,
  "StationName": "AWP67050",
  "TaskName": "RDMmotion",
  "TotalReadoutTime": 0.0504612,
  "TxRefAmp": 237.206,
  "dcmmeta_affine": [
    [-2.3946006298065186, -0.012120209634304047, 0.12192308157682419, 104.74176025390625],
    [-0.006325559224933386, 2.3950092792510986, 0.11406498402357101, -97.3941421508789],
    [0.12224558740854263, -0.11348702013492584, 2.3941855430603027, -61.20684814453125],
    [0.0, 0.0, 0.0, 1.0]
],
  "dcmmeta_reorient_transform": [
    [0.0, -1.0, 0.0, 87.0],
    [1.0, 0.0, 0.0, 0.0],
    [0.0, 0.0, 1.0, 0.0],
    [0.0, 0.0, 0.0, 1.0]
],
  "dcmmeta_shape": [88, 88, 60, 125],
  "dcmmeta_slice_dim": 2,
  "dcmmeta_version": 0.6,
  "global": {
    "const": {
      "AcquisitionMatrix": [88, 0, 0, 88],
      "AngioFlag": "N",
      "BitsAllocated": 16,
      "BitsStored": 12,
      "BodyPartExamined": "BRAIN",
      "Columns": 704,
      "DeidentificationMethodCodeSequence": [
        {
          "CodeMeaning": "XNAT DicomEdit 6 Script",
          "CodeValue": "3",
          "CodingSchemeDesignator": "XNAT",
          "CodingSchemeVersion": "1.0"}
],
      "EchoNumbers": 1,
      "EchoTime": 33.0,
      "EchoTrainLength": 88,
      "FlipAngle": 62.0,
      "HighBit": 11,
      "ImageOrientationPatient": [0.99869598869741, 0.00263814799459, 0.05098394193141, -0.0050548741546, 0.99886646616035, 0.0473310788766],
      "ImagePositionPatient": [-837.49125907264, -850.58282015087, -143.68586173619],
      "ImageType": [
        "ORIGINAL",
        "PRIMARY",
        "M",
        "ND",
        "MOSAIC"
],
      "ImagedNucleus": "1H",
      "ImagingFrequency": 123.250689,
      "InPlanePhaseEncodingDirection": "COL",
      "MRAcquisitionType": "2D",
      "MagneticFieldStrength": 3.0,
      "Manufacturer": "SIEMENS",
      "ManufacturerModelName": "Prisma_fit",
      "Modality": "MR",
      "NumberOfAverages": 1.0,
      "NumberOfPhaseEncodingSteps": 88,
      "PercentPhaseFieldOfView": 100.0,
      "PercentSampling": 100.0,
      "PerformedProcedureStepStartTime": "084905.533000",
      "PhotometricInterpretation": "MONOCHROME2",
      "PixelBandwidth": 2185.0,
      "PixelRepresentation": 0,
      "PixelSpacing": [2.3977272510529, 2.3977272510529],
      "ProtocolName": "func-bold_task-RDMmotion_run-03",
      "RepetitionTime": 1200.0,
      "Rows": 704,
      "SAR": 0.05570429375917,
      "SamplesPerPixel": 1,
      "ScanOptions": "FS",
      "ScanningSequence": "EP",
      "SequenceName": "*epfid2d1_88",
      "SequenceVariant": "SK",
      "SeriesDescription": "func-bold_task-RDMmotion_run-03",
      "SeriesNumber": 11,
      "SeriesTime": "093110.760000",
      "SliceLocation": -60.366404219285,
      "SliceThickness": 2.4000000953674,
      "SmallestImagePixelValue": 0,
      "SoftwareVersions": "syngo MR E11",
      "SpacingBetweenSlices": 2.4000000258634,
      "SpecificCharacterSet": "ISO_IR 100",
      "StudyID": "1",
      "StudyTime": "084905.367000",
      "TransmitCoilName": "Body",
      "VariableFlipAngleFlag": "N",
      "WindowCenterWidthExplanation": "Algo1",
      "dBdt": 0.0},
    "slices": {}
  },
  "time": {
    "samples": {
      "AcquisitionNumber": [1, 2, 3, 4, 5, 6, 7, 8, 9, 10, 11, 12, 13, 14, 15, 16, 17, 18, 19, 20, 21, 22, 23, 24, 25, 26, 27, 28, 29, 30, 31, 32, 33, 34, 35, 36, 37, 38, 39, 40, 41, 42, 43, 44, 45, 46, 47, 48, 49, 50, 51, 52, 53, 54, 55, 56, 57, 58, 59, 60, 61, 62, 63, 64, 65, 66, 67, 68, 69, 70, 71, 72, 73, 74, 75, 76, 77, 78, 79, 80, 81, 82, 83, 84, 85, 86, 87, 88, 89, 90, 91, 92, 93, 94, 95, 96, 97, 98, 99, 100, 101, 102, 103, 104, 105, 106, 107, 108, 109, 110, 111, 112, 113, 114, 115, 116, 117, 118, 119, 120, 121, 122, 123, 124, 125],
      "AcquisitionTime": ["093034.160000", "093035.360000", "093036.560000", "093037.760000", "093038.960000", "093040.160000", "093041.360000", "093042.560000", "093043.760000", "093044.960000", "093046.160000", "093047.360000", "093048.560000", "093049.760000", "093050.960000", "093052.160000", "093053.360000", "093054.560000", "093055.760000", "093056.960000", "093058.160000", "093059.360000", "093100.560000", "093101.760000", "093102.960000", "093104.160000", "093105.360000", "093106.560000", "093107.760000", "093108.960000", "093110.160000", "093111.360000", "093112.560000", "093113.760000", "093114.960000", "093116.160000", "093117.360000", "093118.560000", "093119.760000", "093120.960000", "093122.160000", "093123.360000", "093124.560000", "093125.760000", "093126.960000", "093128.160000", "093129.360000", "093130.560000", "093131.760000", "093132.960000", "093134.160000", "093135.360000", "093136.560000", "093137.760000", "093138.960000", "093140.160000", "093141.360000", "093142.560000", "093143.760000", "093144.960000", "093146.160000", "093147.360000", "093148.560000", "093149.760000", "093150.960000", "093152.160000", "093153.360000", "093154.560000", "093155.760000", "093156.960000", "093158.160000", "093159.360000", "093200.560000", "093201.760000", "093202.960000", "093204.160000", "093205.360000", "093206.560000", "093207.760000", "093208.960000", "093210.160000", "093211.360000", "093212.560000", "093213.760000", "093214.960000", "093216.160000", "093217.360000", "093218.560000", "093219.760000", "093220.960000", "093222.160000", "093223.360000", "093224.560000", "093225.760000", "093226.960000", "093228.160000", "093229.360000", "093230.560000", "093231.760000", "093232.960000", "093234.160000", "093235.360000", "093236.560000", "093237.760000", "093238.960000", "093240.160000", "093241.360000", "093242.560000", "093243.760000", "093244.960000", "093246.160000", "093247.360000", "093248.560000", "093249.760000", "093250.960000", "093252.160000", "093253.360000", "093254.560000", "093255.760000", "093256.960000", "093258.160000", "093259.360000", "093300.560000", "093301.760000", "093302.960000"],
      "ContentTime": ["093110.763000", "093110.766000", "093110.769000", "093110.772000", "093110.775000", "093110.777000", "093110.780000", "093110.782000", "093110.785000", "093110.788000", "093110.790000", "093110.793000", "093110.795000", "093110.814000", "093110.817000", "093110.819000", "093110.822000", "093110.825000", "093110.835000", "093110.838000", "093110.841000", "093110.852000", "093110.855000", "093110.857000", "093110.860000", "093110.862000", "093110.865000", "093110.868000", "093110.870000", "093110.873000", "093150.758000", "093150.761000", "093150.764000", "093150.767000", "093150.778000", "093150.781000", "093150.783000", "093150.786000", "093150.789000", "093150.791000", "093150.794000", "093150.797000", "093150.799000", "093150.802000", "093150.804000", "093150.807000", "093150.810000", "093150.812000", "093150.815000", "093150.817000", "093150.820000", "093150.822000", "093150.825000", "093150.828000", "093150.830000", "093150.833000", "093150.835000", "093150.838000", "093150.841000", "093150.843000", "093150.846000", "093150.848000", "093150.851000", "093230.758000", "093230.761000", "093230.764000", "093230.767000", "093230.769000", "093230.772000", "093230.775000", "093230.777000", "093230.780000", "093230.782000", "093230.785000", "093230.788000", "093230.790000", "093230.793000", "093230.796000", "093230.798000", "093230.801000", "093230.803000", "093230.806000", "093230.809000", "093230.811000", "093230.814000", "093230.816000", "093230.819000", "093230.821000", "093230.824000", "093230.827000", "093230.829000", "093230.832000", "093230.841000", "093230.844000", "093230.846000", "093230.849000", "093230.852000", "093304.151000", "093304.154000", "093304.157000", "093304.159000", "093304.162000", "093304.165000", "093304.167000", "093304.170000", "093304.173000", "093304.175000", "093304.178000", "093304.181000", "093304.183000", "093304.186000", "093304.188000", "093304.191000", "093304.194000", "093304.197000", "093304.199000", "093304.202000", "093304.205000", "093304.208000", "093304.210000", "093304.213000", "093304.216000", "093304.219000", "093304.222000", "093304.224000"],
      "InstanceCreationTime": ["093110.763000", "093110.766000", "093110.769000", "093110.772000", "093110.775000", "093110.777000", "093110.780000", "093110.782000", "093110.785000", "093110.788000", "093110.790000", "093110.793000", "093110.795000", "093110.814000", "093110.817000", "093110.819000", "093110.822000", "093110.825000", "093110.835000", "093110.838000", "093110.841000", "093110.852000", "093110.855000", "093110.857000", "093110.860000", "093110.862000", "093110.865000", "093110.868000", "093110.870000", "093110.873000", "093150.758000", "093150.761000", "093150.764000", "093150.767000", "093150.778000", "093150.781000", "093150.783000", "093150.786000", "093150.789000", "093150.791000", "093150.794000", "093150.797000", "093150.799000", "093150.802000", "093150.804000", "093150.807000", "093150.810000", "093150.812000", "093150.815000", "093150.817000", "093150.820000", "093150.822000", "093150.825000", "093150.828000", "093150.830000", "093150.833000", "093150.835000", "093150.838000", "093150.841000", "093150.843000", "093150.846000", "093150.848000", "093150.851000", "093230.758000", "093230.761000", "093230.764000", "093230.767000", "093230.769000", "093230.772000", "093230.775000", "093230.777000", "093230.780000", "093230.782000", "093230.785000", "093230.788000", "093230.790000", "093230.793000", "093230.796000", "093230.798000", "093230.801000", "093230.803000", "093230.806000", "093230.809000", "093230.811000", "093230.814000", "093230.816000", "093230.819000", "093230.821000", "093230.824000", "093230.827000", "093230.829000", "093230.832000", "093230.841000", "093230.844000", "093230.846000", "093230.849000", "093230.852000", "093304.151000", "093304.154000", "093304.157000", "093304.159000", "093304.162000", "093304.165000", "093304.167000", "093304.170000", "093304.173000", "093304.175000", "093304.178000", "093304.181000", "093304.183000", "093304.186000", "093304.188000", "093304.191000", "093304.194000", "093304.197000", "093304.199000", "093304.202000", "093304.205000", "093304.208000", "093304.210000", "093304.213000", "093304.216000", "093304.219000", "093304.222000", "093304.224000"],
      "InstanceNumber": [1, 2, 3, 4, 5, 6, 7, 8, 9, 10, 11, 12, 13, 14, 15, 16, 17, 18, 19, 20, 21, 22, 23, 24, 25, 26, 27, 28, 29, 30, 31, 32, 33, 34, 35, 36, 37, 38, 39, 40, 41, 42, 43, 44, 45, 46, 47, 48, 49, 50, 51, 52, 53, 54, 55, 56, 57, 58, 59, 60, 61, 62, 63, 64, 65, 66, 67, 68, 69, 70, 71, 72, 73, 74, 75, 76, 77, 78, 79, 80, 81, 82, 83, 84, 85, 86, 87, 88, 89, 90, 91, 92, 93, 94, 95, 96, 97, 98, 99, 100, 101, 102, 103, 104, 105, 106, 107, 108, 109, 110, 111, 112, 113, 114, 115, 116, 117, 118, 119, 120, 121, 122, 123, 124, 125],
      "LargestImagePixelValue": [1860, 1798, 1763, 1757, 1737, 1722, 1731, 1711, 1740, 1736, 1734, 1738, 1717, 1730, 1732, 1709, 1719, 1710, 1711, 1716, 1716, 1717, 1718, 1696, 1688, 1698, 1715, 1715, 1718, 1727, 1712, 1735, 1721, 1732, 1723, 1718, 1710, 1707, 1708, 1710, 1696, 1712, 1691, 1704, 1725, 1708, 1699, 1712, 1710, 1717, 1712, 1717, 1751, 1716, 1712, 1716, 1715, 1715, 1740, 1719, 1710, 1733, 1699, 1699, 1700, 1718, 1708, 1696, 1698, 1693, 1701, 1692, 1689, 1688, 1697, 1698, 1696, 1699, 1687, 1711, 1696, 1707, 1702, 1696, 1700, 1705, 1707, 1704, 1706, 1714, 1715, 1723, 1712, 1712, 1719, 1722, 1701, 1717, 1698, 1709, 1733, 1695, 1714, 1697, 1709, 1700, 1715, 1727, 1718, 1718, 1719, 1719, 1711, 1702, 1702, 1716, 1718, 1701, 1693, 1707, 1703, 1718, 1704, 1712, 1711],
      "WindowCenter": [559.0, 556.0, 554.0, 553.0, 552.0, 552.0, 552.0, 552.0, 552.0, 552.0, 552.0, 552.0, 551.0, 552.0, 551.0, 550.0, 550.0, 551.0, 551.0, 551.0, 551.0, 551.0, 551.0, 550.0, 550.0, 551.0, 552.0, 554.0, 553.0, 553.0, 553.0, 552.0, 552.0, 552.0, 551.0, 551.0, 550.0, 551.0, 551.0, 551.0, 551.0, 552.0, 551.0, 551.0, 552.0, 551.0, 551.0, 551.0, 552.0, 552.0, 552.0, 553.0, 553.0, 552.0, 552.0, 552.0, 553.0, 555.0, 555.0, 554.0, 553.0, 552.0, 551.0, 550.0, 549.0, 550.0, 549.0, 548.0, 548.0, 548.0, 548.0, 547.0, 547.0, 547.0, 548.0, 549.0, 549.0, 550.0, 550.0, 550.0, 550.0, 550.0, 550.0, 550.0, 551.0, 552.0, 551.0, 551.0, 551.0, 552.0, 552.0, 553.0, 553.0, 552.0, 552.0, 553.0, 553.0, 553.0, 553.0, 553.0, 553.0, 552.0, 552.0, 551.0, 551.0, 550.0, 552.0, 553.0, 553.0, 551.0, 551.0, 549.0, 549.0, 548.0, 547.0, 547.0, 548.0, 547.0, 547.0, 549.0, 551.0, 552.0, 553.0, 554.0, 553.0],
      "WindowWidth": [1186.0, 1181.0, 1177.0, 1174.0, 1173.0, 1172.0, 1171.0, 1172.0, 1172.0, 1173.0, 1173.0, 1171.0, 1171.0, 1171.0, 1169.0, 1168.0, 1168.0, 1169.0, 1169.0, 1170.0, 1170.0, 1170.0, 1169.0, 1168.0, 1167.0, 1170.0, 1173.0, 1176.0, 1175.0, 1175.0, 1174.0, 1173.0, 1173.0, 1171.0, 1170.0, 1169.0, 1169.0, 1169.0, 1169.0, 1171.0, 1170.0, 1172.0, 1171.0, 1171.0, 1171.0, 1170.0, 1169.0, 1170.0, 1172.0, 1173.0, 1173.0, 1174.0, 1174.0, 1172.0, 1172.0, 1172.0, 1175.0, 1178.0, 1178.0, 1176.0, 1174.0, 1172.0, 1169.0, 1167.0, 1166.0, 1166.0, 1165.0, 1164.0, 1164.0, 1163.0, 1163.0, 1162.0, 1162.0, 1162.0, 1164.0, 1165.0, 1166.0, 1167.0, 1168.0, 1168.0, 1168.0, 1168.0, 1168.0, 1169.0, 1170.0, 1172.0, 1171.0, 1171.0, 1171.0, 1172.0, 1172.0, 1173.0, 1174.0, 1173.0, 1173.0, 1173.0, 1174.0, 1174.0, 1174.0, 1174.0, 1174.0, 1172.0, 1173.0, 1171.0, 1169.0, 1169.0, 1173.0, 1175.0, 1174.0, 1171.0, 1169.0, 1166.0, 1165.0, 1163.0, 1162.0, 1162.0, 1163.0, 1162.0, 1162.0, 1165.0, 1169.0, 1172.0, 1174.0, 1175.0, 1174.0]
    },
    "slices": {}
  }
}