{
  "AcquisitionMatrixPE": 88,
  "AcquisitionNumber": 1,
  "AcquisitionTime": "09:22:9.002500",
  "BandwidthPerPixelPhaseEncode": 19.592,
  "BaseResolution": 88,
  "BodyPartExamined": "BRAIN",
  "ConsistencyInfo": "N4_VE11C_LATEST_20160120",
  "ConversionSoftware": "dcm2niix",
  "ConversionSoftwareVersion": "v1.0.20190902",
  "DerivedVendorReportedEchoSpacing": 0.000580014,
  "DeviceSerialNumber": "67050",
  "DwellTime": 2.6e-06,
  "EchoTime": 0.033,
  "EchoTrainLength": 88,
  "EffectiveEchoSpacing": 0.000580014,
  "FlipAngle": 62,
  "ImageOrientationPatientDICOM": [0.998696, 0.00263815, 0.0509839, -0.00505487, 0.998866, 0.0473311],
  "ImageType": [
    "ORIGINAL",
    "PRIMARY",
    "M",
    "ND",
    "MOSAIC"
],
  "ImagingFrequency": 123.251,
  "InPlanePhaseEncodingDirectionDICOM": "COL",
  "InstitutionAddress": "Olive_Street_60_Providence_RI_US_02912",
  "InstitutionName": "BROWN_UNIVERSITY_MRF",
  "InstitutionalDepartmentName": "Department",
  "MRAcquisitionType": "2D",
  "MagneticFieldStrength": 3,
  "Manufacturer": "Siemens",
  "ManufacturersModelName": "Prisma_fit",
  "Modality": "MR",
  "MultibandAccelerationFactor": 4,
  "PartialFourier": 1,
  "PatientPosition": "HFS",
  "PercentPhaseFOV": 100,
  "PhaseEncodingDirection": "j-",
  "PhaseEncodingSteps": 88,
  "PhaseResolution": 1,
  "PixelBandwidth": 2185,
  "ProcedureStepDescription": "ASHENHAV_1222",
  "ProtocolName": "func-bold_task-RDMcolor_run-02",
  "PulseSequenceDetails": "%SiemensSeq%_ep2d_bold",
  "ReceiveCoilActiveElements": "HC1-7;NC1",
  "ReceiveCoilName": "HeadNeck_64",
  "ReconMatrixPE": 88,
  "RefLinesPE": 8,
  "RepetitionTime": 1.2,
  "SAR": 0.0562755,
  "ScanOptions": "FS",
  "ScanningSequence": "EP",
  "SequenceName": "_epfid2d1_88",
  "SequenceVariant": "SK",
  "SeriesDescription": "func-bold_task-RDMcolor_run-02",
  "SeriesNumber": 10,
  "ShimSetting": [1748, -9121, 4431, 338, -71, -222, 97, -19],
  "SliceThickness": 2.4,
  "SliceTiming": [0.55, 0, 0.63, 0.0775, 0.7075, 0.1575, 0.7875, 0.235, 0.865, 0.315, 0.945, 0.3925, 1.0225, 0.4725, 1.1, 0.55, 0, 0.63, 0.0775, 0.7075, 0.1575, 0.7875, 0.235, 0.865, 0.315, 0.945, 0.3925, 1.0225, 0.4725, 1.1, 0.55, 0, 0.63, 0.0775, 0.7075, 0.1575, 0.7875, 0.235, 0.865, 0.315, 0.945, 0.3925, 1.0225, 0.4725, 1.1, 0.55, 0, 0.63, 0.0775, 0.7075, 0.1575, 0.7875, 0.235, 0.865, 0.315, 0.945, 0.3925, 1.0225, 0.4725, 1.1],
  "SoftwareVersions": "syngo_MR_E11",
  "SpacingBetweenSlices": 2.4,
  "StationName": "AWP67050",
  "TaskName": "RDMcolor",
  "TotalReadoutTime": 0.0504612,
  "TxRefAmp": 237.206,
  "dcmmeta_affine": [
    [-2.3946006298065186, -0.012120209634304047, 0.12192308157682419, 104.74176025390625],
    [-0.006325559224933386, 2.3950092792510986, 0.11406498402357101, -97.3941421508789],
    [0.12224558740854263, -0.11348702013492584, 2.3941855430603027, -61.20684814453125],
    [0.0, 0.0, 0.0, 1.0]
],
  "dcmmeta_reorient_transform": [
    [0.0, -1.0, 0.0, 87.0],
    [1.0, 0.0, 0.0, 0.0],
    [0.0, 0.0, 1.0, 0.0],
    [0.0, 0.0, 0.0, 1.0]
],
  "dcmmeta_shape": [88, 88, 60, 392],
  "dcmmeta_slice_dim": 2,
  "dcmmeta_version": 0.6,
  "global": {
    "const": {
      "AcquisitionMatrix": [88, 0, 0, 88],
      "AngioFlag": "N",
      "BitsAllocated": 16,
      "BitsStored": 12,
      "BodyPartExamined": "BRAIN",
      "Columns": 704,
      "DeidentificationMethodCodeSequence": [
        {
          "CodeMeaning": "XNAT DicomEdit 6 Script",
          "CodeValue": "3",
          "CodingSchemeDesignator": "XNAT",
          "CodingSchemeVersion": "1.0"}
],
      "EchoNumbers": 1,
      "EchoTime": 33.0,
      "EchoTrainLength": 88,
      "FlipAngle": 62.0,
      "HighBit": 11,
      "ImageOrientationPatient": [0.99869598869741, 0.00263814799459, 0.05098394193141, -0.0050548741546, 0.99886646616035, 0.0473310788766],
      "ImagePositionPatient": [-837.49125907264, -850.58282015087, -143.68586173619],
      "ImageType": [
        "ORIGINAL",
        "PRIMARY",
        "M",
        "ND",
        "MOSAIC"
],
      "ImagedNucleus": "1H",
      "ImagingFrequency": 123.250684,
      "InPlanePhaseEncodingDirection": "COL",
      "MRAcquisitionType": "2D",
      "MagneticFieldStrength": 3.0,
      "Manufacturer": "SIEMENS",
      "ManufacturerModelName": "Prisma_fit",
      "Modality": "MR",
      "NumberOfAverages": 1.0,
      "NumberOfPhaseEncodingSteps": 88,
      "PercentPhaseFieldOfView": 100.0,
      "PercentSampling": 100.0,
      "PerformedProcedureStepStartTime": "084905.533000",
      "PhotometricInterpretation": "MONOCHROME2",
      "PixelBandwidth": 2185.0,
      "PixelRepresentation": 0,
      "PixelSpacing": [2.3977272510529, 2.3977272510529],
      "ProtocolName": "func-bold_task-RDMcolor_run-02",
      "RepetitionTime": 1200.0,
      "Rows": 704,
      "SAR": 0.0562755128823,
      "SamplesPerPixel": 1,
      "ScanOptions": "FS",
      "ScanningSequence": "EP",
      "SequenceName": "*epfid2d1_88",
      "SequenceVariant": "SK",
      "SeriesDescription": "func-bold_task-RDMcolor_run-02",
      "SeriesNumber": 10,
      "SeriesTime": "092243.798000",
      "SliceLocation": -60.366404219285,
      "SliceThickness": 2.4000000953674,
      "SmallestImagePixelValue": 0,
      "SoftwareVersions": "syngo MR E11",
      "SpacingBetweenSlices": 2.4000000258634,
      "SpecificCharacterSet": "ISO_IR 100",
      "StudyID": "1",
      "StudyTime": "084905.367000",
      "TransmitCoilName": "Body",
      "VariableFlipAngleFlag": "N",
      "WindowCenterWidthExplanation": "Algo1",
      "dBdt": 0.0},
    "slices": {}
  },
  "time": {
    "samples": {
      "AcquisitionNumber": [1, 2, 3, 4, 5, 6, 7, 8, 9, 10, 11, 12, 13, 14, 15, 16, 17, 18, 19, 20, 21, 22, 23, 24, 25, 26, 27, 28, 29, 30, 31, 32, 33, 34, 35, 36, 37, 38, 39, 40, 41, 42, 43, 44, 45, 46, 47, 48, 49, 50, 51, 52, 53, 54, 55, 56, 57, 58, 59, 60, 61, 62, 63, 64, 65, 66, 67, 68, 69, 70, 71, 72, 73, 74, 75, 76, 77, 78, 79, 80, 81, 82, 83, 84, 85, 86, 87, 88, 89, 90, 91, 92, 93, 94, 95, 96, 97, 98, 99, 100, 101, 102, 103, 104, 105, 106, 107, 108, 109, 110, 111, 112, 113, 114, 115, 116, 117, 118, 119, 120, 121, 122, 123, 124, 125, 126, 127, 128, 129, 130, 131, 132, 133, 134, 135, 136, 137, 138, 139, 140, 141, 142, 143, 144, 145, 146, 147, 148, 149, 150, 151, 152, 153, 154, 155, 156, 157, 158, 159, 160, 161, 162, 163, 164, 165, 166, 167, 168, 169, 170, 171, 172, 173, 174, 175, 176, 177, 178, 179, 180, 181, 182, 183, 184, 185, 186, 187, 188, 189, 190, 191, 192, 193, 194, 195, 196, 197, 198, 199, 200, 201, 202, 203, 204, 205, 206, 207, 208, 209, 210, 211, 212, 213, 214, 215, 216, 217, 218, 219, 220, 221, 222, 223, 224, 225, 226, 227, 228, 229, 230, 231, 232, 233, 234, 235, 236, 237, 238, 239, 240, 241, 242, 243, 244, 245, 246, 247, 248, 249, 250, 251, 252, 253, 254, 255, 256, 257, 258, 259, 260, 261, 262, 263, 264, 265, 266, 267, 268, 269, 270, 271, 272, 273, 274, 275, 276, 277, 278, 279, 280, 281, 282, 283, 284, 285, 286, 287, 288, 289, 290, 291, 292, 293, 294, 295, 296, 297, 298, 299, 300, 301, 302, 303, 304, 305, 306, 307, 308, 309, 310, 311, 312, 313, 314, 315, 316, 317, 318, 319, 320, 321, 322, 323, 324, 325, 326, 327, 328, 329, 330, 331, 332, 333, 334, 335, 336, 337, 338, 339, 340, 341, 342, 343, 344, 345, 346, 347, 348, 349, 350, 351, 352, 353, 354, 355, 356, 357, 358, 359, 360, 361, 362, 363, 364, 365, 366, 367, 368, 369, 370, 371, 372, 373, 374, 375, 376, 377, 378, 379, 380, 381, 382, 383, 384, 385, 386, 387, 388, 389, 390, 391, 392],
      "AcquisitionTime": ["092209.002500", "092210.202500", "092211.402500", "092212.602500", "092213.802500", "092215.002500", "092216.202500", "092217.402500", "092218.602500", "092219.802500", "092221.002500", "092222.202500", "092223.402500", "092224.602500", "092225.802500", "092227.002500", "092228.202500", "092229.402500", "092230.602500", "092231.802500", "092233.002500", "092234.202500", "092235.402500", "092236.602500", "092237.802500", "092239.002500", "092240.202500", "092241.402500", "092242.602500", "092243.802500", "092245.002500", "092246.202500", "092247.402500", "092248.602500", "092249.802500", "092251.002500", "092252.202500", "092253.402500", "092254.602500", "092255.802500", "092257.002500", "092258.202500", "092259.402500", "092300.602500", "092301.802500", "092303.002500", "092304.202500", "092305.402500", "092306.602500", "092307.802500", "092309.002500", "092310.202500", "092311.402500", "092312.602500", "092313.802500", "092315.002500", "092316.202500", "092317.402500", "092318.602500", "092319.802500", "092321.002500", "092322.202500", "092323.402500", "092324.602500", "092325.802500", "092327.002500", "092328.202500", "092329.402500", "092330.602500", "092331.802500", "092333.002500", "092334.202500", "092335.402500", "092336.602500", "092337.802500", "092339.002500", "092340.202500", "092341.402500", "092342.602500", "092343.802500", "092345.002500", "092346.202500", "092347.402500", "092348.602500", "092349.802500", "092351.002500", "092352.202500", "092353.402500", "092354.602500", "092355.802500", "092357.002500", "092358.202500", "092359.402500", "092400.602500", "092401.802500", "092403.002500", "092404.202500", "092405.402500", "092406.602500", "092407.802500", "092409.002500", "092410.202500", "092411.402500", "092412.602500", "092413.802500", "092415.002500", "092416.202500", "092417.402500", "092418.602500", "092419.802500", "092421.002500", "092422.202500", "092423.402500", "092424.602500", "092425.802500", "092427.002500", "092428.202500", "092429.402500", "092430.602500", "092431.802500", "092433.002500", "092434.202500", "092435.402500", "092436.602500", "092437.802500", "092439.002500", "092440.202500", "092441.402500", "092442.602500", "092443.802500", "092445.002500", "092446.202500", "092447.402500", "092448.602500", "092449.802500", "092451.002500", "092452.202500", "092453.402500", "092454.602500", "092455.802500", "092457.002500", "092458.202500", "092459.402500", "092500.602500", "092501.802500", "092503.002500", "092504.202500", "092505.402500", "092506.602500", "092507.802500", "092509.002500", "092510.202500", "092511.402500", "092512.602500", "092513.802500", "092515.002500", "092516.202500", "092517.402500", "092518.602500", "092519.802500", "092521.002500", "092522.202500", "092523.402500", "092524.602500", "092525.802500", "092527.002500", "092528.202500", "092529.402500", "092530.602500", "092531.802500", "092533.002500", "092534.202500", "092535.402500", "092536.602500", "092537.802500", "092539.002500", "092540.202500", "092541.402500", "092542.602500", "092543.802500", "092545.002500", "092546.202500", "092547.402500", "092548.602500", "092549.802500", "092551.002500", "092552.202500", "092553.402500", "092554.602500", "092555.802500", "092557.002500", "092558.202500", "092559.402500", "092600.602500", "092601.802500", "092603.002500", "092604.202500", "092605.402500", "092606.602500", "092607.802500", "092609.002500", "092610.202500", "092611.402500", "092612.602500", "092613.802500", "092615.002500", "092616.202500", "092617.402500", "092618.602500", "092619.802500", "092621.002500", "092622.202500", "092623.402500", "092624.602500", "092625.802500", "092627.002500", "092628.202500", "092629.402500", "092630.602500", "092631.802500", "092633.002500", "092634.202500", "092635.402500", "092636.602500", "092637.802500", "092639.002500", "092640.202500", "092641.402500", "092642.602500", "092643.802500", "092645.002500", "092646.202500", "092647.402500", "092648.602500", "092649.802500", "092651.002500", "092652.202500", "092653.402500", "092654.602500", "092655.802500", "092657.002500", "092658.202500", "092659.402500", "092700.602500", "092701.802500", "092703.002500", "092704.202500", "092705.402500", "092706.602500", "092707.802500", "092709.002500", "092710.202500", "092711.402500", "092712.602500", "092713.802500", "092715.002500", "092716.202500", "092717.402500", "092718.602500", "092719.802500", "092721.002500", "092722.202500", "092723.402500", "092724.602500", "092725.802500", "092727.002500", "092728.202500", "092729.402500", "092730.602500", "092731.802500", "092733.002500", "092734.202500", "092735.402500", "092736.602500", "092737.802500", "092739.002500", "092740.202500", "092741.402500", "092742.602500", "092743.802500", "092745.002500", "092746.202500", "092747.402500", "092748.602500", "092749.802500", "092751.002500", "092752.202500", "092753.402500", "092754.602500", "092755.802500", "092757.002500", "092758.202500", "092759.402500", "092800.602500", "092801.802500", "092803.002500", "092804.202500", "092805.402500", "092806.602500", "092807.802500", "092809.002500", "092810.202500", "092811.402500", "092812.602500", "092813.802500", "092815.002500", "092816.202500", "092817.402500", "092818.602500", "092819.802500", "092821.002500", "092822.202500", "092823.402500", "092824.602500", "092825.802500", "092827.002500", "092828.202500", "092829.402500", "092830.602500", "092831.802500", "092833.002500", "092834.202500", "092835.402500", "092836.602500", "092837.802500", "092839.002500", "092840.202500", "092841.402500", "092842.602500", "092843.802500", "092845.002500", "092846.202500", "092847.402500", "092848.602500", "092849.802500", "092851.002500", "092852.202500", "092853.402500", "092854.602500", "092855.802500", "092857.002500", "092858.202500", "092859.402500", "092900.602500", "092901.802500", "092903.002500", "092904.202500", "092905.402500", "092906.602500", "092907.802500", "092909.002500", "092910.202500", "092911.402500", "092912.602500", "092913.802500", "092915.002500", "092916.202500", "092917.402500", "092918.602500", "092919.802500", "092921.002500", "092922.202500", "092923.402500", "092924.602500", "092925.802500", "092927.002500", "092928.202500", "092929.402500", "092930.602500", "092931.802500", "092933.002500", "092934.202500", "092935.402500", "092936.602500", "092937.802500", "092939.002500", "092940.202500", "092941.402500", "092942.602500", "092943.802500", "092945.002500", "092946.202500", "092947.402500", "092948.602500", "092949.802500", "092951.002500", "092952.202500", "092953.402500", "092954.602500", "092955.802500", "092957.002500", "092958.202500"],
      "ContentTime": ["092243.802000", "092243.805000", "092243.808000", "092243.810000", "092243.813000", "092243.816000", "092243.818000", "092243.821000", "092243.824000", "092243.826000", "092243.836000", "092243.842000", "092243.845000", "092243.848000", "092243.850000", "092243.853000", "092243.856000", "092243.858000", "092243.861000", "092243.866000", "092243.868000", "092243.871000", "092243.874000", "092243.876000", "092243.879000", "092243.881000", "092243.884000", "092243.887000", "092323.798000", "092323.800000", "092323.803000", "092323.806000", "092323.808000", "092323.811000", "092323.813000", "092323.816000", "092323.819000", "092323.822000", "092323.824000", "092323.827000", "092323.829000", "092323.842000", "092323.845000", "092323.848000", "092323.855000", "092323.858000", "092323.860000", "092323.863000", "092323.866000", "092323.868000", "092323.871000", "092323.873000", "092323.893000", "092323.895000", "092323.898000", "092323.901000", "092323.903000", "092323.906000", "092323.909000", "092323.911000", "092323.914000", "092323.916000", "092403.798000", "092403.801000", "092403.804000", "092403.807000", "092403.809000", "092403.812000", "092403.814000", "092403.817000", "092403.820000", "092403.822000", "092403.825000", "092403.828000", "092403.830000", "092403.833000", "092403.836000", "092403.838000", "092403.841000", "092403.844000", "092403.846000", "092403.849000", "092403.852000", "092403.854000", "092403.857000", "092403.859000", "092403.862000", "092403.865000", "092403.867000", "092403.870000", "092403.872000", "092403.875000", "092403.878000", "092403.880000", "092403.883000", "092443.798000", "092443.800000", "092443.803000", "092443.806000", "092443.808000", "092443.811000", "092443.813000", "092443.816000", "092443.819000", "092443.821000", "092443.824000", "092443.826000", "092443.829000", "092443.832000", "092443.834000", "092443.837000", "092443.840000", "092443.842000", "092443.845000", "092443.847000", "092443.850000", "092443.852000", "092443.855000", "092443.858000", "092443.860000", "092443.863000", "092443.866000", "092443.868000", "092443.871000", "092443.873000", "092443.876000", "092443.879000", "092443.881000", "092523.797000", "092523.800000", "092523.803000", "092523.806000", "092523.808000", "092523.811000", "092523.813000", "092523.816000", "092523.819000", "092523.821000", "092523.824000", "092523.826000", "092523.829000", "092523.832000", "092523.834000", "092523.837000", "092523.840000", "092523.842000", "092523.845000", "092523.847000", "092523.850000", "092523.853000", "092523.855000", "092523.858000", "092523.860000", "092523.863000", "092523.865000", "092523.868000", "092523.871000", "092523.873000", "092523.876000", "092523.879000", "092523.881000", "092523.884000", "092603.798000", "092603.801000", "092603.804000", "092603.806000", "092603.809000", "092603.811000", "092603.814000", "092603.817000", "092603.819000", "092603.822000", "092603.825000", "092603.827000", "092603.830000", "092603.832000", "092603.835000", "092603.837000", "092603.840000", "092603.843000", "092603.845000", "092603.848000", "092603.850000", "092603.853000", "092603.856000", "092603.858000", "092603.861000", "092603.863000", "092603.866000", "092603.869000", "092603.877000", "092603.880000", "092603.882000", "092603.885000", "092603.888000", "092643.797000", "092643.800000", "092643.803000", "092643.818000", "092643.820000", "092643.823000", "092643.825000", "092643.828000", "092643.831000", "092643.834000", "092643.836000", "092643.839000", "092643.842000", "092643.844000", "092643.847000", "092643.850000", "092643.852000", "092643.855000", "092643.857000", "092643.860000", "092643.863000", "092643.865000", "092643.868000", "092643.870000", "092643.873000", "092643.876000", "092643.878000", "092643.881000", "092643.883000", "092643.886000", "092643.888000", "092643.891000", "092643.894000", "092723.798000", "092723.800000", "092723.803000", "092723.806000", "092723.808000", "092723.811000", "092723.814000", "092723.816000", "092723.819000", "092723.822000", "092723.825000", "092723.827000", "092723.830000", "092723.832000", "092723.835000", "092723.838000", "092723.840000", "092723.843000", "092723.846000", "092723.848000", "092723.851000", "092723.866000", "092723.868000", "092723.871000", "092723.874000", "092723.876000", "092723.879000", "092723.882000", "092723.884000", "092723.887000", "092723.890000", "092723.892000", "092723.895000", "092723.897000", "092803.797000", "092803.800000", "092803.803000", "092803.806000", "092803.808000", "092803.811000", "092803.814000", "092803.816000", "092803.819000", "092803.821000", "092803.824000", "092803.827000", "092803.829000", "092803.832000", "092803.834000", "092803.837000", "092803.840000", "092803.842000", "092803.845000", "092803.848000", "092803.850000", "092803.853000", "092803.856000", "092803.858000", "092803.861000", "092803.863000", "092803.866000", "092803.869000", "092803.871000", "092803.874000", "092803.877000", "092803.879000", "092803.882000", "092843.799000", "092843.801000", "092843.804000", "092843.807000", "092843.810000", "092843.812000", "092843.815000", "092843.818000", "092843.820000", "092843.823000", "092843.825000", "092843.828000", "092843.830000", "092843.833000", "092843.836000", "092843.838000", "092843.841000", "092843.843000", "092843.846000", "092843.849000", "092843.851000", "092843.854000", "092843.857000", "092843.859000", "092843.862000", "092843.865000", "092843.867000", "092843.870000", "092843.872000", "092843.875000", "092843.878000", "092843.880000", "092843.883000", "092923.798000", "092923.800000", "092923.804000", "092923.807000", "092923.809000", "092923.812000", "092923.815000", "092923.817000", "092923.820000", "092923.822000", "092923.825000", "092923.828000", "092923.830000", "092923.833000", "092923.836000", "092923.838000", "092923.841000", "092923.843000", "092923.846000", "092923.849000", "092923.851000", "092923.854000", "092923.856000", "092923.859000", "092923.861000", "092923.864000", "092923.867000", "092923.869000", "092923.872000", "092923.874000", "092923.877000", "092923.880000", "092923.882000", "092923.885000", "092959.720000", "092959.723000", "092959.725000", "092959.728000", "092959.731000", "092959.733000", "092959.736000", "092959.739000", "092959.741000", "092959.744000", "092959.747000", "092959.749000", "092959.752000", "092959.754000", "092959.757000", "092959.759000", "092959.762000", "092959.765000", "092959.768000", "092959.770000", "092959.773000", "092959.776000", "092959.778000", "092959.781000", "092959.784000", "092959.786000", "092959.789000", "092959.792000", "092959.794000", "092959.797000"],
      "InstanceCreationTime": ["092243.802000", "092243.805000", "092243.808000", "092243.810000", "092243.813000", "092243.816000", "092243.818000", "092243.821000", "092243.824000", "092243.826000", "092243.836000", "092243.842000", "092243.845000", "092243.848000", "092243.850000", "092243.853000", "092243.856000", "092243.858000", "092243.861000", "092243.866000", "092243.868000", "092243.871000", "092243.874000", "092243.876000", "092243.879000", "092243.881000", "092243.884000", "092243.887000", "092323.798000", "092323.800000", "092323.803000", "092323.806000", "092323.808000", "092323.811000", "092323.813000", "092323.816000", "092323.819000", "092323.822000", "092323.824000", "092323.827000", "092323.829000", "092323.842000", "092323.845000", "092323.848000", "092323.855000", "092323.858000", "092323.860000", "092323.863000", "092323.866000", "092323.868000", "092323.871000", "092323.873000", "092323.893000", "092323.895000", "092323.898000", "092323.901000", "092323.903000", "092323.906000", "092323.909000", "092323.911000", "092323.914000", "092323.916000", "092403.798000", "092403.801000", "092403.804000", "092403.807000", "092403.809000", "092403.812000", "092403.814000", "092403.817000", "092403.820000", "092403.822000", "092403.825000", "092403.828000", "092403.830000", "092403.833000", "092403.836000", "092403.838000", "092403.841000", "092403.844000", "092403.846000", "092403.849000", "092403.852000", "092403.854000", "092403.857000", "092403.859000", "092403.862000", "092403.865000", "092403.867000", "092403.870000", "092403.872000", "092403.875000", "092403.878000", "092403.880000", "092403.883000", "092443.798000", "092443.800000", "092443.803000", "092443.806000", "092443.808000", "092443.811000", "092443.813000", "092443.816000", "092443.819000", "092443.821000", "092443.824000", "092443.826000", "092443.829000", "092443.832000", "092443.834000", "092443.837000", "092443.840000", "092443.842000", "092443.845000", "092443.847000", "092443.850000", "092443.852000", "092443.855000", "092443.858000", "092443.860000", "092443.863000", "092443.866000", "092443.868000", "092443.871000", "092443.873000", "092443.876000", "092443.879000", "092443.881000", "092523.797000", "092523.800000", "092523.803000", "092523.806000", "092523.808000", "092523.811000", "092523.813000", "092523.816000", "092523.819000", "092523.821000", "092523.824000", "092523.826000", "092523.829000", "092523.832000", "092523.834000", "092523.837000", "092523.840000", "092523.842000", "092523.845000", "092523.847000", "092523.850000", "092523.853000", "092523.855000", "092523.858000", "092523.860000", "092523.863000", "092523.865000", "092523.868000", "092523.871000", "092523.873000", "092523.876000", "092523.879000", "092523.881000", "092523.884000", "092603.798000", "092603.801000", "092603.804000", "092603.806000", "092603.809000", "092603.811000", "092603.814000", "092603.817000", "092603.819000", "092603.822000", "092603.825000", "092603.827000", "092603.830000", "092603.832000", "092603.835000", "092603.837000", "092603.840000", "092603.843000", "092603.845000", "092603.848000", "092603.850000", "092603.853000", "092603.856000", "092603.858000", "092603.861000", "092603.863000", "092603.866000", "092603.869000", "092603.877000", "092603.880000", "092603.882000", "092603.885000", "092603.888000", "092643.797000", "092643.800000", "092643.803000", "092643.818000", "092643.820000", "092643.823000", "092643.825000", "092643.828000", "092643.831000", "092643.834000", "092643.836000", "092643.839000", "092643.842000", "092643.844000", "092643.847000", "092643.850000", "092643.852000", "092643.855000", "092643.857000", "092643.860000", "092643.863000", "092643.865000", "092643.868000", "092643.870000", "092643.873000", "092643.876000", "092643.878000", "092643.881000", "092643.883000", "092643.886000", "092643.888000", "092643.891000", "092643.894000", "092723.798000", "092723.800000", "092723.803000", "092723.806000", "092723.808000", "092723.811000", "092723.814000", "092723.816000", "092723.819000", "092723.822000", "092723.825000", "092723.827000", "092723.830000", "092723.832000", "092723.835000", "092723.838000", "092723.840000", "092723.843000", "092723.846000", "092723.848000", "092723.851000", "092723.866000", "092723.868000", "092723.871000", "092723.874000", "092723.876000", "092723.879000", "092723.882000", "092723.884000", "092723.887000", "092723.890000", "092723.892000", "092723.895000", "092723.897000", "092803.797000", "092803.800000", "092803.803000", "092803.806000", "092803.808000", "092803.811000", "092803.814000", "092803.816000", "092803.819000", "092803.821000", "092803.824000", "092803.827000", "092803.829000", "092803.832000", "092803.834000", "092803.837000", "092803.840000", "092803.842000", "092803.845000", "092803.848000", "092803.850000", "092803.853000", "092803.856000", "092803.858000", "092803.861000", "092803.863000", "092803.866000", "092803.869000", "092803.871000", "092803.874000", "092803.877000", "092803.879000", "092803.882000", "092843.799000", "092843.801000", "092843.804000", "092843.807000", "092843.810000", "092843.812000", "092843.815000", "092843.818000", "092843.820000", "092843.823000", "092843.825000", "092843.828000", "092843.830000", "092843.833000", "092843.836000", "092843.838000", "092843.841000", "092843.843000", "092843.846000", "092843.849000", "092843.851000", "092843.854000", "092843.857000", "092843.859000", "092843.862000", "092843.865000", "092843.867000", "092843.870000", "092843.872000", "092843.875000", "092843.878000", "092843.880000", "092843.883000", "092923.798000", "092923.800000", "092923.804000", "092923.807000", "092923.809000", "092923.812000", "092923.815000", "092923.817000", "092923.820000", "092923.822000", "092923.825000", "092923.828000", "092923.830000", "092923.833000", "092923.836000", "092923.838000", "092923.841000", "092923.843000", "092923.846000", "092923.849000", "092923.851000", "092923.854000", "092923.856000", "092923.859000", "092923.861000", "092923.864000", "092923.867000", "092923.869000", "092923.872000", "092923.874000", "092923.877000", "092923.880000", "092923.882000", "092923.885000", "092959.720000", "092959.723000", "092959.725000", "092959.728000", "092959.731000", "092959.733000", "092959.736000", "092959.739000", "092959.741000", "092959.744000", "092959.747000", "092959.749000", "092959.752000", "092959.754000", "092959.757000", "092959.759000", "092959.762000", "092959.765000", "092959.768000", "092959.770000", "092959.773000", "092959.776000", "092959.778000", "092959.781000", "092959.784000", "092959.786000", "092959.789000", "092959.792000", "092959.794000", "092959.797000"],
      "InstanceNumber": [1, 2, 3, 4, 5, 6, 7, 8, 9, 10, 11, 12, 13, 14, 15, 16, 17, 18, 19, 20, 21, 22, 23, 24, 25, 26, 27, 28, 29, 30, 31, 32, 33, 34, 35, 36, 37, 38, 39, 40, 41, 42, 43, 44, 45, 46, 47, 48, 49, 50, 51, 52, 53, 54, 55, 56, 57, 58, 59, 60, 61, 62, 63, 64, 65, 66, 67, 68, 69, 70, 71, 72, 73, 74, 75, 76, 77, 78, 79, 80, 81, 82, 83, 84, 85, 86, 87, 88, 89, 90, 91, 92, 93, 94, 95, 96, 97, 98, 99, 100, 101, 102, 103, 104, 105, 106, 107, 108, 109, 110, 111, 112, 113, 114, 115, 116, 117, 118, 119, 120, 121, 122, 123, 124, 125, 126, 127, 128, 129, 130, 131, 132, 133, 134, 135, 136, 137, 138, 139, 140, 141, 142, 143, 144, 145, 146, 147, 148, 149, 150, 151, 152, 153, 154, 155, 156, 157, 158, 159, 160, 161, 162, 163, 164, 165, 166, 167, 168, 169, 170, 171, 172, 173, 174, 175, 176, 177, 178, 179, 180, 181, 182, 183, 184, 185, 186, 187, 188, 189, 190, 191, 192, 193, 194, 195, 196, 197, 198, 199, 200, 201, 202, 203, 204, 205, 206, 207, 208, 209, 210, 211, 212, 213, 214, 215, 216, 217, 218, 219, 220, 221, 222, 223, 224, 225, 226, 227, 228, 229, 230, 231, 232, 233, 234, 235, 236, 237, 238, 239, 240, 241, 242, 243, 244, 245, 246, 247, 248, 249, 250, 251, 252, 253, 254, 255, 256, 257, 258, 259, 260, 261, 262, 263, 264, 265, 266, 267, 268, 269, 270, 271, 272, 273, 274, 275, 276, 277, 278, 279, 280, 281, 282, 283, 284, 285, 286, 287, 288, 289, 290, 291, 292, 293, 294, 295, 296, 297, 298, 299, 300, 301, 302, 303, 304, 305, 306, 307, 308, 309, 310, 311, 312, 313, 314, 315, 316, 317, 318, 319, 320, 321, 322, 323, 324, 325, 326, 327, 328, 329, 330, 331, 332, 333, 334, 335, 336, 337, 338, 339, 340, 341, 342, 343, 344, 345, 346, 347, 348, 349, 350, 351, 352, 353, 354, 355, 356, 357, 358, 359, 360, 361, 362, 363, 364, 365, 366, 367, 368, 369, 370, 371, 372, 373, 374, 375, 376, 377, 378, 379, 380, 381, 382, 383, 384, 385, 386, 387, 388, 389, 390, 391, 392],
