{
  "AcquisitionMatrixPE": 88,
  "AcquisitionNumber": 1,
  "AcquisitionTime": "10:23:33.687500",
  "BandwidthPerPixelPhaseEncode": 19.592,
  "BaseResolution": 88,
  "BodyPartExamined": "BRAIN",
  "ConsistencyInfo": "N4_VE11C_LATEST_20160120",
  "ConversionSoftware": "dcm2niix",
  "ConversionSoftwareVersion": "v1.0.20190902",
  "DerivedVendorReportedEchoSpacing": 0.000580014,
  "DeviceSerialNumber": "67050",
  "DwellTime": 2.6e-06,
  "EchoTime": 0.033,
  "EchoTrainLength": 88,
  "EffectiveEchoSpacing": 0.000580014,
  "FlipAngle": 62,
  "ImageOrientationPatientDICOM": [0.998696, 0.00263815, 0.0509839, -0.00505487, 0.998866, 0.0473311],
  "ImageType": [
    "ORIGINAL",
    "PRIMARY",
    "M",
    "ND",
    "MOSAIC"
],
  "ImagingFrequency": 123.251,
  "InPlanePhaseEncodingDirectionDICOM": "COL",
  "InstitutionAddress": "Olive_Street_60_Providence_RI_US_02912",
  "InstitutionName": "BROWN_UNIVERSITY_MRF",
  "InstitutionalDepartmentName": "Department",
  "MRAcquisitionType": "2D",
  "MagneticFieldStrength": 3,
  "Manufacturer": "Siemens",
  "ManufacturersModelName": "Prisma_fit",
  "Modality": "MR",
  "MultibandAccelerationFactor": 4,
  "PartialFourier": 1,
  "PatientPosition": "HFS",
  "PercentPhaseFOV": 100,
  "PhaseEncodingDirection": "j-",
  "PhaseEncodingSteps": 88,
  "PhaseResolution": 1,
  "PixelBandwidth": 2185,
  "ProcedureStepDescription": "ASHENHAV_1222",
  "ProtocolName": "func-bold_task-RDMlocalizer_run-02",
  "PulseSequenceDetails": "%SiemensSeq%_ep2d_bold",
  "ReceiveCoilActiveElements": "HC1-7;NC1",
  "ReceiveCoilName": "HeadNeck_64",
  "ReconMatrixPE": 88,
  "RefLinesPE": 8,
  "RepetitionTime": 1.2,
  "SAR": 0.0560003,
  "ScanOptions": "FS",
  "ScanningSequence": "EP",
  "SequenceName": "_epfid2d1_88",
  "SequenceVariant": "SK",
  "SeriesDescription": "func-bold_task-RDMlocalizer_run-02",
  "SeriesNumber": 20,
  "ShimSetting": [1748, -9121, 4431, 338, -71, -222, 97, -19],
  "SliceThickness": 2.4,
  "SliceTiming": [0.55, 0, 0.63, 0.0775, 0.7075, 0.1575, 0.7875, 0.235, 0.865, 0.315, 0.9425, 0.3925, 1.0225, 0.4725, 1.1, 0.55, 0, 0.63, 0.0775, 0.7075, 0.1575, 0.7875, 0.235, 0.865, 0.315, 0.9425, 0.3925, 1.0225, 0.4725, 1.1, 0.55, 0, 0.63, 0.0775, 0.7075, 0.1575, 0.7875, 0.235, 0.865, 0.315, 0.9425, 0.3925, 1.0225, 0.4725, 1.1, 0.55, 0, 0.63, 0.0775, 0.7075, 0.1575, 0.7875, 0.235, 0.865, 0.315, 0.9425, 0.3925, 1.0225, 0.4725, 1.1],
  "SoftwareVersions": "syngo_MR_E11",
  "SpacingBetweenSlices": 2.4,
  "StationName": "AWP67050",
  "TaskName": "RDMlocalizer",
  "TotalReadoutTime": 0.0504612,
  "TxRefAmp": 237.206,
  "dcmmeta_affine": [
    [-2.3946006298065186, -0.012120209634304047, 0.12192308157682419, 104.74176025390625],
    [-0.006325559224933386, 2.3950092792510986, 0.11406498402357101, -97.3941421508789],
    [0.12224558740854263, -0.11348702013492584, 2.3941855430603027, -61.20684814453125],
    [0.0, 0.0, 0.0, 1.0]
],
  "dcmmeta_reorient_transform": [
    [0.0, -1.0, 0.0, 87.0],
    [1.0, 0.0, 0.0, 0.0],
    [0.0, 0.0, 1.0, 0.0],
    [0.0, 0.0, 0.0, 1.0]
],
  "dcmmeta_shape": [88, 88, 60, 195],
  "dcmmeta_slice_dim": 2,
  "dcmmeta_version": 0.6,
  "global": {
    "const": {
      "AcquisitionMatrix": [88, 0, 0, 88],
      "AngioFlag": "N",
      "BitsAllocated": 16,
      "BitsStored": 12,
      "BodyPartExamined": "BRAIN",
      "Columns": 704,
      "DeidentificationMethodCodeSequence": [
        {
          "CodeMeaning": "XNAT DicomEdit 6 Script",
          "CodeValue": "3",
          "CodingSchemeDesignator": "XNAT",
          "CodingSchemeVersion": "1.0"}
],
      "EchoNumbers": 1,
      "EchoTime": 33.0,
      "EchoTrainLength": 88,
      "FlipAngle": 62.0,
      "HighBit": 11,
      "ImageOrientationPatient": [0.99869598869741, 0.00263814799459, 0.05098394193141, -0.0050548741546, 0.99886646616035, 0.0473310788766],
      "ImagePositionPatient": [-837.49125907264, -850.58282015087, -143.68586173619],
      "ImageType": [
        "ORIGINAL",
        "PRIMARY",
        "M",
        "ND",
        "MOSAIC"
],
      "ImagedNucleus": "1H",
      "ImagingFrequency": 123.250708,
      "InPlanePhaseEncodingDirection": "COL",
      "MRAcquisitionType": "2D",
      "MagneticFieldStrength": 3.0,
      "Manufacturer": "SIEMENS",
      "ManufacturerModelName": "Prisma_fit",
      "Modality": "MR",
      "NumberOfAverages": 1.0,
      "NumberOfPhaseEncodingSteps": 88,
      "PercentPhaseFieldOfView": 100.0,
      "PercentSampling": 100.0,
      "PerformedProcedureStepStartTime": "084905.533000",
      "PhotometricInterpretation": "MONOCHROME2",
      "PixelBandwidth": 2185.0,
      "PixelRepresentation": 0,
      "PixelSpacing": [2.3977272510529, 2.3977272510529],
      "ProtocolName": "func-bold_task-RDMlocalizer_run-02",
      "RepetitionTime": 1200.0,
      "Rows": 704,
      "SAR": 0.05600026583016,
      "SamplesPerPixel": 1,
      "ScanOptions": "FS",
      "ScanningSequence": "EP",
      "SequenceName": "*epfid2d1_88",
      "SequenceVariant": "SK",
      "SeriesDescription": "func-bold_task-RDMlocalizer_run-02",
      "SeriesNumber": 20,
      "SeriesTime": "102410.760000",
      "SliceLocation": -60.366404219285,
      "SliceThickness": 2.4000000953674,
      "SmallestImagePixelValue": 0,
      "SoftwareVersions": "syngo MR E11",
      "SpacingBetweenSlices": 2.4000000258634,
      "SpecificCharacterSet": "ISO_IR 100",
      "StudyID": "1",
      "StudyTime": "084905.367000",
      "TransmitCoilName": "Body",
      "VariableFlipAngleFlag": "N",
      "WindowCenterWidthExplanation": "Algo1",
      "dBdt": 0.0},
    "slices": {}
  },
  "time": {
    "samples": {
      "AcquisitionNumber": [1, 2, 3, 4, 5, 6, 7, 8, 9, 10, 11, 12, 13, 14, 15, 16, 17, 18, 19, 20, 21, 22, 23, 24, 25, 26, 27, 28, 29, 30, 31, 32, 33, 34, 35, 36, 37, 38, 39, 40, 41, 42, 43, 44, 45, 46, 47, 48, 49, 50, 51, 52, 53, 54, 55, 56, 57, 58, 59, 60, 61, 62, 63, 64, 65, 66, 67, 68, 69, 70, 71, 72, 73, 74, 75, 76, 77, 78, 79, 80, 81, 82, 83, 84, 85, 86, 87, 88, 89, 90, 91, 92, 93, 94, 95, 96, 97, 98, 99, 100, 101, 102, 103, 104, 105, 106, 107, 108, 109, 110, 111, 112, 113, 114, 115, 116, 117, 118, 119, 120, 121, 122, 123, 124, 125, 126, 127, 128, 129, 130, 131, 132, 133, 134, 135, 136, 137, 138, 139, 140, 141, 142, 143, 144, 145, 146, 147, 148, 149, 150, 151, 152, 153, 154, 155, 156, 157, 158, 159, 160, 161, 162, 163, 164, 165, 166, 167, 168, 169, 170, 171, 172, 173, 174, 175, 176, 177, 178, 179, 180, 181, 182, 183, 184, 185, 186, 187, 188, 189, 190, 191, 192, 193, 194, 195],
      "AcquisitionTime": ["102333.687500", "102334.887500", "102336.087500", "102337.287500", "102338.487500", "102339.687500", "102340.887500", "102342.087500", "102343.287500", "102344.487500", "102345.687500", "102346.887500", "102348.087500", "102349.287500", "102350.487500", "102351.687500", "102352.887500", "102354.087500", "102355.287500", "102356.487500", "102357.687500", "102358.887500", "102400.087500", "102401.287500", "102402.487500", "102403.687500", "102404.887500", "102406.087500", "102407.287500", "102408.487500", "102409.687500", "102410.887500", "102412.087500", "102413.287500", "102414.487500", "102415.687500", "102416.887500", "102418.087500", "102419.287500", "102420.487500", "102421.687500", "102422.887500", "102424.087500", "102425.287500", "102426.487500", "102427.687500", "102428.887500", "102430.087500", "102431.287500", "102432.487500", "102433.687500", "102434.887500", "102436.087500", "102437.287500", "102438.487500", "102439.687500", "102440.887500", "102442.087500", "102443.287500", "102444.487500", "102445.687500", "102446.887500", "102448.087500", "102449.287500", "102450.487500", "102451.687500", "102452.887500", "102454.087500", "102455.287500", "102456.487500", "102457.687500", "102458.887500", "102500.087500", "102501.287500", "102502.487500", "102503.687500", "102504.887500", "102506.087500", "102507.287500", "102508.487500", "102509.687500", "102510.887500", "102512.087500", "102513.287500", "102514.487500", "102515.687500", "102516.887500", "102518.087500", "102519.287500", "102520.487500", "102521.687500", "102522.887500", "102524.087500", "102525.287500", "102526.487500", "102527.687500", "102528.887500", "102530.087500", "102531.287500", "102532.487500", "102533.687500", "102534.887500", "102536.087500", "102537.287500", "102538.487500", "102539.687500", "102540.887500", "102542.087500", "102543.287500", "102544.487500", "102545.687500", "102546.887500", "102548.087500", "102549.287500", "102550.487500", "102551.687500", "102552.887500", "102554.087500", "102555.287500", "102556.487500", "102557.687500", "102558.887500", "102600.087500", "102601.287500", "102602.487500", "102603.687500", "102604.887500", "102606.087500", "102607.287500", "102608.487500", "102609.687500", "102610.887500", "102612.087500", "102613.287500", "102614.487500", "102615.687500", "102616.887500", "102618.087500", "102619.287500", "102620.487500", "102621.687500", "102622.887500", "102624.087500", "102625.287500", "102626.487500", "102627.687500", "102628.887500", "102630.087500", "102631.287500", "102632.487500", "102633.687500", "102634.887500", "102636.087500", "102637.287500", "102638.487500", "102639.687500", "102640.887500", "102642.087500", "102643.287500", "102644.487500", "102645.687500", "102646.887500", "102648.087500", "102649.287500", "102650.487500", "102651.687500", "102652.887500", "102654.087500", "102655.287500", "102656.487500", "102657.687500", "102658.887500", "102700.087500", "102701.287500", "102702.487500", "102703.687500", "102704.887500", "102706.087500", "102707.287500", "102708.487500", "102709.687500", "102710.887500", "102712.087500", "102713.287500", "102714.487500", "102715.687500", "102716.887500", "102718.087500", "102719.287500", "102720.487500", "102721.687500", "102722.887500", "102724.087500", "102725.287500", "102726.487500"],
      "ContentTime": ["102410.763000", "102410.773000", "102410.775000", "102410.778000", "102410.780000", "102410.783000", "102410.797000", "102410.799000", "102410.802000", "102410.805000", "102410.807000", "102410.810000", "102410.812000", "102410.815000", "102410.818000", "102410.820000", "102410.823000", "102410.826000", "102410.828000", "102410.831000", "102410.833000", "102410.836000", "102410.839000", "102410.841000", "102410.844000", "102410.846000", "102410.849000", "102410.851000", "102410.854000", "102410.857000", "102450.758000", "102450.761000", "102450.764000", "102450.766000", "102450.769000", "102450.772000", "102450.774000", "102450.777000", "102450.779000", "102450.782000", "102450.785000", "102450.787000", "102450.794000", "102450.796000", "102450.799000", "102450.801000", "102450.804000", "102450.806000", "102450.809000", "102450.812000", "102450.814000", "102450.817000", "102450.819000", "102450.822000", "102450.825000", "102450.827000", "102450.830000", "102450.832000", "102450.835000", "102450.837000", "102450.840000", "102450.843000", "102450.845000", "102450.848000", "102530.758000", "102530.762000", "102530.764000", "102530.767000", "102530.769000", "102530.772000", "102530.774000", "102530.777000", "102530.779000", "102530.782000", "102530.784000", "102530.787000", "102530.790000", "102530.792000", "102530.795000", "102530.797000", "102530.800000", "102530.803000", "102530.805000", "102530.808000", "102530.810000", "102530.813000", "102530.816000", "102530.818000", "102530.821000", "102530.823000", "102530.826000", "102530.829000", "102530.831000", "102530.834000", "102530.836000", "102530.839000", "102530.841000", "102610.759000", "102610.762000", "102610.764000", "102610.767000", "102610.769000", "102610.772000", "102610.775000", "102610.777000", "102610.780000", "102610.782000", "102610.785000", "102610.788000", "102610.790000", "102610.793000", "102610.795000", "102610.798000", "102610.801000", "102610.803000", "102610.806000", "102610.808000", "102610.811000", "102610.814000", "102610.816000", "102610.819000", "102610.822000", "102610.824000", "102610.827000", "102610.829000", "102610.832000", "102610.835000", "102610.837000", "102610.840000", "102610.842000", "102650.758000", "102650.761000", "102650.764000", "102650.766000", "102650.769000", "102650.772000", "102650.774000", "102650.777000", "102650.780000", "102650.782000", "102650.785000", "102650.787000", "102650.790000", "102650.793000", "102650.811000", "102650.814000", "102650.817000", "102650.819000", "102650.822000", "102650.824000", "102650.827000", "102650.830000", "102650.832000", "102650.835000", "102650.837000", "102650.840000", "102650.843000", "102650.845000", "102650.848000", "102650.850000", "102650.853000", "102650.856000", "102650.858000", "102650.861000", "102727.803000", "102727.806000", "102727.808000", "102727.811000", "102727.814000", "102727.816000", "102727.822000", "102727.825000", "102727.828000", "102727.830000", "102727.833000", "102727.837000", "102727.839000", "102727.842000", "102727.845000", "102727.848000", "102727.851000", "102727.854000", "102727.857000", "102727.860000", "102727.863000", "102727.865000", "102727.869000", "102727.872000", "102727.875000", "102727.879000", "102727.884000", "102727.887000", "102727.890000", "102727.893000", "102727.896000"],
      "InstanceCreationTime": ["102410.763000", "102410.773000", "102410.775000", "102410.778000", "102410.780000", "102410.783000", "102410.797000", "102410.799000", "102410.802000", "102410.805000", "102410.807000", "102410.810000", "102410.812000", "102410.815000", "102410.818000", "102410.820000", "102410.823000", "102410.826000", "102410.828000", "102410.831000", "102410.833000", "102410.836000", "102410.839000", "102410.841000", "102410.844000", "102410.846000", "102410.849000", "102410.851000", "102410.854000", "102410.857000", "102450.758000", "102450.761000", "102450.764000", "102450.766000", "102450.769000", "102450.772000", "102450.774000", "102450.777000", "102450.779000", "102450.782000", "102450.785000", "102450.787000", "102450.794000", "102450.796000", "102450.799000", "102450.801000", "102450.804000", "102450.806000", "102450.809000", "102450.812000", "102450.814000", "102450.817000", "102450.819000", "102450.822000", "102450.825000", "102450.827000", "102450.830000", "102450.832000", "102450.835000", "102450.837000", "102450.840000", "102450.843000", "102450.845000", "102450.848000", "102530.758000", "102530.762000", "102530.764000", "102530.767000", "102530.769000", "102530.772000", "102530.774000", "102530.777000", "102530.779000", "102530.782000", "102530.784000", "102530.787000", "102530.790000", "102530.792000", "102530.795000", "102530.797000", "102530.800000", "102530.803000", "102530.805000", "102530.808000", "102530.810000", "102530.813000", "102530.816000", "102530.818000", "102530.821000", "102530.823000", "102530.826000", "102530.829000", "102530.831000", "102530.834000", "102530.836000", "102530.839000", "102530.841000", "102610.759000", "102610.762000", "102610.764000", "102610.767000", "102610.769000", "102610.772000", "102610.775000", "102610.777000", "102610.780000", "102610.782000", "102610.785000", "102610.788000", "102610.790000", "102610.793000", "102610.795000", "102610.798000", "102610.801000", "102610.803000", "102610.806000", "102610.808000", "102610.811000", "102610.814000", "102610.816000", "102610.819000", "102610.822000", "102610.824000", "102610.827000", "102610.829000", "102610.832000", "102610.835000", "102610.837000", "102610.840000", "102610.842000", "102650.758000", "102650.761000", "102650.764000", "102650.766000", "102650.769000", "102650.772000", "102650.774000", "102650.777000", "102650.780000", "102650.782000", "102650.785000", "102650.787000", "102650.790000", "102650.793000", "102650.811000", "102650.814000", "102650.817000", "102650.819000", "102650.822000", "102650.824000", "102650.827000", "102650.830000", "102650.832000", "102650.835000", "102650.837000", "102650.840000", "102650.843000", "102650.845000", "102650.848000", "102650.850000", "102650.853000", "102650.856000", "102650.858000", "102650.861000", "102727.803000", "102727.806000", "102727.808000", "102727.811000", "102727.814000", "102727.816000", "102727.822000", "102727.825000", "102727.828000", "102727.830000", "102727.833000", "102727.837000", "102727.839000", "102727.842000", "102727.845000", "102727.848000", "102727.851000", "102727.854000", "102727.857000", "102727.860000", "102727.863000", "102727.865000", "102727.869000", "102727.872000", "102727.875000", "102727.879000", "102727.884000", "102727.887000", "102727.890000", "102727.893000", "102727.896000"],
      "InstanceNumber": [1, 2, 3, 4, 5, 6, 7, 8, 9, 10, 11, 12, 13, 14, 15, 16, 17, 18, 19, 20, 21, 22, 23, 24, 25, 26, 27, 28, 29, 30, 31, 32, 33, 34, 35, 36, 37, 38, 39, 40, 41, 42, 43, 44, 45, 46, 47, 48, 49, 50, 51, 52, 53, 54, 55, 56, 57, 58, 59, 60, 61, 62, 63, 64, 65, 66, 67, 68, 69, 70, 71, 72, 73, 74, 75, 76, 77, 78, 79, 80, 81, 82, 83, 84, 85, 86, 87, 88, 89, 90, 91, 92, 93, 94, 95, 96, 97, 98, 99, 100, 101, 102, 103, 104, 105, 106, 107, 108, 109, 110, 111, 112, 113, 114, 115, 116, 117, 118, 119, 120, 121, 122, 123, 124, 125, 126, 127, 128, 129, 130, 131, 132, 133, 134, 135, 136, 137, 138, 139, 140, 141, 142, 143, 144, 145, 146, 147, 148, 149, 150, 151, 152, 153, 154, 155, 156, 157, 158, 159, 160, 161, 162, 163, 164, 165, 166, 167, 168, 169, 170, 171, 172, 173, 174, 175, 176, 177, 178, 179, 180, 181, 182, 183, 184, 185, 186, 187, 188, 189, 190, 191, 192, 193, 194, 195],
      "LargestImagePixelValue": [1780, 1714, 1709, 1674, 1673, 1675, 1649, 1665, 1659, 1657, 1663, 1648, 1652, 1653, 1646, 1702, 1649, 1650, 1640, 1655, 1661, 1671, 1660, 1655, 1655, 1648, 1665, 1646, 1661, 1641, 1639, 1647, 1641, 1654, 1657, 1655, 1665, 1650, 1674, 1659, 1661, 1646, 1665, 1651, 1656, 1661, 1657, 1670, 1662, 1661, 1648, 1646, 1645, 1657, 1750, 1661, 1657, 1644, 1646, 1639, 1634, 1646, 1655, 1640, 1648, 1635, 1630, 1655, 1650, 1639, 1645, 1643, 1638, 1653, 1648, 1666, 1651, 1652, 1649, 1647, 1649, 1647, 1635, 1659, 1638, 1645, 1628, 1639, 1633, 1633, 1630, 1620, 1626, 1632, 1630, 1644, 1654, 1644, 1646, 1633, 1654, 1660, 1664, 1661, 1664, 1657, 1646, 1743, 1640, 1631, 1636, 1640, 1644, 1650, 1644, 1651, 1660, 1663, 1664, 1659, 1667, 1655, 1649, 1672, 1684, 1672, 1681, 1672, 1675, 1667, 1670, 1667, 1651, 1657, 1654, 1636, 1625, 1634, 1642, 1663, 1660, 1670, 1656, 1676, 1656, 1663, 1661, 1669, 1675, 1660, 1669, 1645, 1658, 1671, 1665, 1674, 1654, 1756, 1662, 1655, 1656, 1667, 1645, 1668, 1644, 1647, 1668, 1657, 1664, 1662, 1656, 1665, 1671, 1664, 1658, 1662, 1662, 1650, 1640, 1650, 1649, 1656, 1663, 1679, 1692, 1682, 1689, 1673, 1671, 1680, 1654, 1663, 1665, 1646, 1655],
      "WindowCenter": [553.0, 550.0, 548.0, 547.0, 546.0, 546.0, 545.0, 546.0, 547.0, 547.0, 547.0, 547.0, 548.0, 548.0, 547.0, 548.0, 546.0, 546.0, 547.0, 548.0, 549.0, 549.0, 548.0, 548.0, 547.0, 547.0, 547.0, 547.0, 547.0, 546.0, 546.0, 546.0, 547.0, 547.0, 547.0, 548.0, 548.0, 549.0, 549.0, 548.0, 548.0, 547.0, 548.0, 548.0, 548.0, 549.0, 549.0, 548.0, 548.0, 547.0, 547.0, 548.0, 549.0, 549.0, 550.0, 547.0, 546.0, 545.0, 545.0, 544.0, 545.0, 544.0, 545.0, 544.0, 544.0, 544.0, 544.0, 544.0, 545.0, 546.0, 546.0, 546.0, 546.0, 546.0, 545.0, 545.0, 545.0, 545.0, 546.0, 546.0, 547.0, 547.0, 547.0, 547.0, 546.0, 546.0, 545.0, 545.0, 544.0, 544.0, 544.0, 544.0, 543.0, 543.0, 544.0, 545.0, 546.0, 546.0, 546.0, 546.0, 547.0, 547.0, 547.0, 548.0, 547.0, 547.0, 546.0, 547.0, 544.0, 544.0, 543.0, 544.0, 545.0, 545.0, 546.0, 547.0, 547.0, 546.0, 546.0, 545.0, 545.0, 545.0, 546.0, 548.0, 549.0, 548.0, 547.0, 546.0, 545.0, 545.0, 546.0, 546.0, 546.0, 546.0, 545.0, 544.0, 544.0, 545.0, 546.0, 547.0, 548.0, 548.0, 547.0, 548.0, 548.0, 549.0, 549.0, 549.0, 549.0, 548.0, 548.0, 548.0, 550.0, 550.0, 549.0, 549.0, 547.0, 547.0, 546.0, 545.0, 545.0, 545.0, 545.0, 545.0, 544.0, 544.0, 544.0, 545.0, 546.0, 546.0, 547.0, 547.0, 547.0, 547.0, 547.0, 546.0, 546.0, 546.0, 546.0, 545.0, 546.0, 547.0, 548.0, 550.0, 549.0, 549.0, 548.0, 548.0, 548.0, 548.0, 547.0, 547.0, 547.0, 546.0, 546.0],
      "WindowWidth": [1176.0, 1169.0, 1164.0, 1162.0, 1160.0, 1160.0, 1159.0, 1161.0, 1162.0, 1163.0, 1164.0, 1164.0, 1165.0, 1165.0, 1164.0, 1165.0, 1162.0, 1162.0, 1162.0, 1165.0, 1167.0, 1167.0, 1165.0, 1164.0, 1162.0, 1162.0, 1163.0, 1162.0, 1161.0, 1160.0, 1160.0, 1161.0, 1162.0, 1163.0, 1163.0, 1164.0, 1166.0, 1167.0, 1167.0, 1165.0, 1164.0, 1163.0, 1164.0, 1164.0, 1165.0, 1167.0, 1167.0, 1165.0, 1164.0, 1163.0, 1163.0, 1166.0, 1166.0, 1167.0, 1167.0, 1163.0, 1160.0, 1159.0, 1158.0, 1156.0, 1157.0, 1156.0, 1157.0, 1156.0, 1156.0, 1156.0, 1156.0, 1156.0, 1158.0, 1159.0, 1160.0, 1161.0, 1161.0, 1160.0, 1158.0, 1159.0, 1157.0, 1159.0, 1159.0, 1160.0, 1162.0, 1162.0, 1162.0, 1162.0, 1160.0, 1160.0, 1158.0, 1158.0, 1155.0, 1155.0, 1157.0, 1155.0, 1155.0, 1154.0, 1155.0, 1158.0, 1159.0, 1159.0, 1160.0, 1160.0, 1161.0, 1162.0, 1163.0, 1164.0, 1163.0, 1162.0, 1160.0, 1160.0, 1156.0, 1155.0, 1154.0, 1155.0, 1157.0, 1159.0, 1160.0, 1161.0, 1162.0, 1161.0, 1159.0, 1159.0, 1159.0, 1159.0, 1161.0, 1166.0, 1167.0, 1165.0, 1163.0, 1160.0, 1158.0, 1158.0, 1159.0, 1160.0, 1161.0, 1160.0, 1158.0, 1156.0, 1155.0, 1158.0, 1160.0, 1163.0, 1165.0, 1165.0, 1163.0, 1164.0, 1165.0, 1167.0, 1167.0, 1166.0, 1166.0, 1165.0, 1165.0, 1165.0, 1169.0, 1170.0, 1168.0, 1166.0, 1163.0, 1162.0, 1159.0, 1158.0, 1158.0, 1157.0, 1157.0, 1156.0, 1156.0, 1156.0, 1157.0, 1157.0, 1160.0, 1161.0, 1161.0, 1162.0, 1162.0, 1162.0, 1162.0, 1160.0, 1160.0, 1160.0, 1159.0, 1159.0, 1159.0, 1162.0, 1165.0, 1168.0, 1167.0, 1166.0, 1165.0, 1164.0, 1164.0, 1163.0, 1163.0, 1161.0, 1161.0, 1160.0, 1161.0]
    },
    "slices": {}
  }
}