{
  "AcquisitionMatrixPE": 88,
  "AcquisitionNumber": 1,
  "AcquisitionTime": "16:25:44.662500",
  "BandwidthPerPixelPhaseEncode": 19.592,
  "BaseResolution": 88,
  "BodyPartExamined": "BRAIN",
  "ConsistencyInfo": "N4_VE11C_LATEST_20160120",
  "ConversionSoftware": "dcm2niix",
  "ConversionSoftwareVersion": "v1.0.20190902",
  "DerivedVendorReportedEchoSpacing": 0.000580014,
  "DeviceSerialNumber": "67050",
  "DwellTime": 2.6e-06,
  "EchoTime": 0.033,
  "EchoTrainLength": 88,
  "EffectiveEchoSpacing": 0.000580014,
  "FlipAngle": 62,
  "ImageOrientationPatientDICOM": [0.998606, 0.0290735, 0.0440563, -0.0210922, 0.984895, -0.171861],
  "ImageType": [
    "ORIGINAL",
    "PRIMARY",
    "M",
    "ND",
    "MOSAIC"
],
  "ImagingFrequency": 123.251,
  "InPlanePhaseEncodingDirectionDICOM": "COL",
  "InstitutionAddress": "Olive_Street_60_Providence_RI_US_02912",
  "InstitutionName": "BROWN_UNIVERSITY_MRF",
  "InstitutionalDepartmentName": "Department",
  "MRAcquisitionType": "2D",
  "MagneticFieldStrength": 3,
  "Manufacturer": "Siemens",
  "ManufacturersModelName": "Prisma_fit",
  "Modality": "MR",
  "MultibandAccelerationFactor": 4,
  "PartialFourier": 1,
  "PatientPosition": "HFS",
  "PercentPhaseFOV": 100,
  "PhaseEncodingDirection": "j-",
  "PhaseEncodingSteps": 88,
  "PhaseResolution": 1,
  "PixelBandwidth": 2185,
  "ProcedureStepDescription": "ASHENHAV_1222",
  "ProtocolName": "func-bold_task-RDMcolor_run-06",
  "PulseSequenceDetails": "%SiemensSeq%_ep2d_bold",
  "ReceiveCoilActiveElements": "HC1-7",
  "ReceiveCoilName": "HeadNeck_64",
  "ReconMatrixPE": 88,
  "RefLinesPE": 8,
  "RepetitionTime": 1.2,
  "SAR": 0.0620651,
  "ScanOptions": "FS",
  "ScanningSequence": "EP",
  "SequenceName": "_epfid2d1_88",
  "SequenceVariant": "SK",
  "SeriesDescription": "func-bold_task-RDMcolor_run-06",
  "SeriesNumber": 18,
  "ShimSetting": [1769, -9091, 4399, 428, -70, -249, 43, 12],
  "SliceThickness": 2.4,
  "SliceTiming": [0.55, 0, 0.63, 0.08, 0.7075, 0.1575, 0.7875, 0.2375, 0.865, 0.315, 0.945, 0.3925, 1.0225, 0.4725, 1.1025, 0.55, 0, 0.63, 0.08, 0.7075, 0.1575, 0.7875, 0.2375, 0.865, 0.315, 0.945, 0.3925, 1.0225, 0.4725, 1.1025, 0.55, 0, 0.63, 0.08, 0.7075, 0.1575, 0.7875, 0.2375, 0.865, 0.315, 0.945, 0.3925, 1.0225, 0.4725, 1.1025, 0.55, 0, 0.63, 0.08, 0.7075, 0.1575, 0.7875, 0.2375, 0.865, 0.315, 0.945, 0.3925, 1.0225, 0.4725, 1.1025],
  "SoftwareVersions": "syngo_MR_E11",
  "SpacingBetweenSlices": 2.4,
  "StationName": "AWP67050",
  "TaskName": "RDMcolor",
  "TotalReadoutTime": 0.0504612,
  "TxRefAmp": 254.149,
  "dcmmeta_affine": [
    [-2.3943846225738525, -0.05057332664728165, 0.11612989753484726, 108.64788818359375],
    [-0.06971030682325363, 2.3615105152130127, -0.4096611440181732, -79.7043685913086],
    [0.10563502460718155, 0.4120757579803467, 2.3619253635406494, -80.73521423339844],
    [0.0, 0.0, 0.0, 1.0]
],
  "dcmmeta_reorient_transform": [
    [0.0, -1.0, 0.0, 87.0],
    [1.0, 0.0, 0.0, 0.0],
    [0.0, 0.0, 1.0, 0.0],
    [0.0, 0.0, 0.0, 1.0]
],
  "dcmmeta_shape": [88, 88, 60, 392],
  "dcmmeta_slice_dim": 2,
  "dcmmeta_version": 0.6,
  "global": {
    "const": {
      "AcquisitionMatrix": [88, 0, 0, 88],
      "AngioFlag": "N",
      "BitsAllocated": 16,
      "BitsStored": 12,
      "BodyPartExamined": "BRAIN",
      "Columns": 704,
      "DeidentificationMethodCodeSequence": [
        {
          "CodeMeaning": "XNAT DicomEdit 6 Script",
          "CodeValue": "3",
          "CodingSchemeDesignator": "XNAT",
          "CodingSchemeVersion": "1.0"}
],
      "EchoNumbers": 1,
      "EchoTime": 33.0,
      "EchoTrainLength": 88,
      "FlipAngle": 62.0,
      "HighBit": 11,
      "ImageOrientationPatient": [0.99860591488418, 0.0290734943836, 0.0440563126313, -0.0210921938825, 0.98489538727105, -0.1718609772154],
      "ImagePositionPatient": [-826.141881586, -874.56305525433, 49.499116829894],
      "ImageType": [
        "ORIGINAL",
        "PRIMARY",
        "M",
        "ND",
        "MOSAIC"
],
      "ImagedNucleus": "1H",
      "ImagingFrequency": 123.25072,
      "InPlanePhaseEncodingDirection": "COL",
      "MRAcquisitionType": "2D",
      "MagneticFieldStrength": 3.0,
      "Manufacturer": "SIEMENS",
      "ManufacturerModelName": "Prisma_fit",
      "Modality": "MR",
      "NumberOfAverages": 1.0,
      "NumberOfPhaseEncodingSteps": 88,
      "PercentPhaseFieldOfView": 100.0,
      "PercentSampling": 100.0,
      "PerformedProcedureStepStartTime": "151453.303000",
      "PhotometricInterpretation": "MONOCHROME2",
      "PixelBandwidth": 2185.0,
      "PixelRepresentation": 0,
      "PixelSpacing": [2.3977272510529, 2.3977272510529],
      "ProtocolName": "func-bold_task-RDMcolor_run-06",
      "RepetitionTime": 1200.0,
      "Rows": 704,
      "SAR": 0.06206509210554,
      "SamplesPerPixel": 1,
      "ScanOptions": "FS",
      "ScanningSequence": "EP",
      "SequenceName": "*epfid2d1_88",
      "SequenceVariant": "SK",
      "SeriesDescription": "func-bold_task-RDMcolor_run-06",
      "SeriesNumber": 18,
      "SeriesTime": "162612.930000",
      "SliceLocation": -60.592295046741,
      "SliceThickness": 2.4000000953674,
      "SmallestImagePixelValue": 0,
      "SoftwareVersions": "syngo MR E11",
      "SpacingBetweenSlices": 2.4000000129153,
      "SpecificCharacterSet": "ISO_IR 100",
      "StudyID": "1",
      "StudyTime": "151453.174000",
      "TransmitCoilName": "Body",
      "VariableFlipAngleFlag": "N",
      "WindowCenterWidthExplanation": "Algo1",
      "dBdt": 0.0},
    "slices": {}
  },
  "time": {
    "samples": {
      "AcquisitionNumber": [1, 2, 3, 4, 5, 6, 7, 8, 9, 10, 11, 12, 13, 14, 15, 16, 17, 18, 19, 20, 21, 22, 23, 24, 25, 26, 27, 28, 29, 30, 31, 32, 33, 34, 35, 36, 37, 38, 39, 40, 41, 42, 43, 44, 45, 46, 47, 48, 49, 50, 51, 52, 53, 54, 55, 56, 57, 58, 59, 60, 61, 62, 63, 64, 65, 66, 67, 68, 69, 70, 71, 72, 73, 74, 75, 76, 77, 78, 79, 80, 81, 82, 83, 84, 85, 86, 87, 88, 89, 90, 91, 92, 93, 94, 95, 96, 97, 98, 99, 100, 101, 102, 103, 104, 105, 106, 107, 108, 109, 110, 111, 112, 113, 114, 115, 116, 117, 118, 119, 120, 121, 122, 123, 124, 125, 126, 127, 128, 129, 130, 131, 132, 133, 134, 135, 136, 137, 138, 139, 140, 141, 142, 143, 144, 145, 146, 147, 148, 149, 150, 151, 152, 153, 154, 155, 156, 157, 158, 159, 160, 161, 162, 163, 164, 165, 166, 167, 168, 169, 170, 171, 172, 173, 174, 175, 176, 177, 178, 179, 180, 181, 182, 183, 184, 185, 186, 187, 188, 189, 190, 191, 192, 193, 194, 195, 196, 197, 198, 199, 200, 201, 202, 203, 204, 205, 206, 207, 208, 209, 210, 211, 212, 213, 214, 215, 216, 217, 218, 219, 220, 221, 222, 223, 224, 225, 226, 227, 228, 229, 230, 231, 232, 233, 234, 235, 236, 237, 238, 239, 240, 241, 242, 243, 244, 245, 246, 247, 248, 249, 250, 251, 252, 253, 254, 255, 256, 257, 258, 259, 260, 261, 262, 263, 264, 265, 266, 267, 268, 269, 270, 271, 272, 273, 274, 275, 276, 277, 278, 279, 280, 281, 282, 283, 284, 285, 286, 287, 288, 289, 290, 291, 292, 293, 294, 295, 296, 297, 298, 299, 300, 301, 302, 303, 304, 305, 306, 307, 308, 309, 310, 311, 312, 313, 314, 315, 316, 317, 318, 319, 320, 321, 322, 323, 324, 325, 326, 327, 328, 329, 330, 331, 332, 333, 334, 335, 336, 337, 338, 339, 340, 341, 342, 343, 344, 345, 346, 347, 348, 349, 350, 351, 352, 353, 354, 355, 356, 357, 358, 359, 360, 361, 362, 363, 364, 365, 366, 367, 368, 369, 370, 371, 372, 373, 374, 375, 376, 377, 378, 379, 380, 381, 382, 383, 384, 385, 386, 387, 388, 389, 390, 391, 392],
      "AcquisitionTime": ["162544.662500", "162545.862500", "162547.062500", "162548.262500", "162549.462500", "162550.662500", "162551.862500", "162553.062500", "162554.262500", "162555.462500", "162556.662500", "162557.862500", "162559.062500", "162600.262500", "162601.462500", "162602.662500", "162603.862500", "162605.062500", "162606.262500", "162607.462500", "162608.662500", "162609.862500", "162611.062500", "162612.262500", "162613.462500", "162614.662500", "162615.862500", "162617.062500", "162618.262500", "162619.462500", "162620.662500", "162621.862500", "162623.062500", "162624.262500", "162625.462500", "162626.662500", "162627.862500", "162629.062500", "162630.262500", "162631.462500", "162632.662500", "162633.862500", "162635.062500", "162636.262500", "162637.462500", "162638.662500", "162639.862500", "162641.062500", "162642.262500", "162643.462500", "162644.662500", "162645.862500", "162647.062500", "162648.262500", "162649.462500", "162650.662500", "162651.862500", "162653.062500", "162654.262500", "162655.462500", "162656.662500", "162657.862500", "162659.062500", "162700.262500", "162701.462500", "162702.662500", "162703.862500", "162705.062500", "162706.262500", "162707.462500", "162708.662500", "162709.862500", "162711.062500", "162712.262500", "162713.462500", "162714.662500", "162715.862500", "162717.062500", "162718.262500", "162719.462500", "162720.662500", "162721.862500", "162723.062500", "162724.262500", "162725.462500", "162726.662500", "162727.862500", "162729.062500", "162730.262500", "162731.462500", "162732.662500", "162733.862500", "162735.062500", "162736.262500", "162737.462500", "162738.662500", "162739.862500", "162741.062500", "162742.262500", "162743.462500", "162744.662500", "162745.862500", "162747.062500", "162748.262500", "162749.462500", "162750.662500", "162751.862500", "162753.062500", "162754.262500", "162755.462500", "162756.662500", "162757.862500", "162759.062500", "162800.262500", "162801.462500", "162802.662500", "162803.862500", "162805.062500", "162806.262500", "162807.462500", "162808.662500", "162809.862500", "162811.062500", "162812.262500", "162813.462500", "162814.662500", "162815.862500", "162817.062500", "162818.262500", "162819.462500", "162820.662500", "162821.862500", "162823.062500", "162824.262500", "162825.462500", "162826.662500", "162827.862500", "162829.062500", "162830.262500", "162831.462500", "162832.662500", "162833.862500", "162835.062500", "162836.262500", "162837.462500", "162838.662500", "162839.862500", "162841.062500", "162842.262500", "162843.462500", "162844.662500", "162845.862500", "162847.062500", "162848.262500", "162849.462500", "162850.662500", "162851.862500", "162853.062500", "162854.262500", "162855.462500", "162856.662500", "162857.862500", "162859.062500", "162900.262500", "162901.462500", "162902.662500", "162903.862500", "162905.062500", "162906.262500", "162907.462500", "162908.662500", "162909.862500", "162911.062500", "162912.262500", "162913.462500", "162914.662500", "162915.862500", "162917.062500", "162918.262500", "162919.462500", "162920.662500", "162921.862500", "162923.062500", "162924.262500", "162925.462500", "162926.662500", "162927.862500", "162929.062500", "162930.262500", "162931.462500", "162932.662500", "162933.862500", "162935.062500", "162936.262500", "162937.462500", "162938.662500", "162939.862500", "162941.062500", "162942.262500", "162943.462500", "162944.662500", "162945.862500", "162947.062500", "162948.262500", "162949.462500", "162950.662500", "162951.862500", "162953.062500", "162954.262500", "162955.462500", "162956.662500", "162957.862500", "162959.062500", "163000.262500", "163001.462500", "163002.662500", "163003.862500", "163005.062500", "163006.262500", "163007.462500", "163008.662500", "163009.862500", "163011.062500", "163012.262500", "163013.462500", "163014.662500", "163015.862500", "163017.062500", "163018.262500", "163019.462500", "163020.662500", "163021.862500", "163023.062500", "163024.262500", "163025.462500", "163026.662500", "163027.862500", "163029.062500", "163030.262500", "163031.462500", "163032.662500", "163033.862500", "163035.062500", "163036.262500", "163037.462500", "163038.662500", "163039.862500", "163041.062500", "163042.262500", "163043.462500", "163044.662500", "163045.862500", "163047.062500", "163048.262500", "163049.462500", "163050.662500", "163051.862500", "163053.062500", "163054.262500", "163055.462500", "163056.662500", "163057.862500", "163059.062500", "163100.262500", "163101.462500", "163102.662500", "163103.862500", "163105.062500", "163106.262500", "163107.462500", "163108.662500", "163109.862500", "163111.062500", "163112.262500", "163113.462500", "163114.662500", "163115.862500", "163117.062500", "163118.262500", "163119.462500", "163120.662500", "163121.862500", "163123.062500", "163124.262500", "163125.462500", "163126.662500", "163127.862500", "163129.062500", "163130.262500", "163131.462500", "163132.662500", "163133.862500", "163135.062500", "163136.262500", "163137.462500", "163138.662500", "163139.862500", "163141.062500", "163142.262500", "163143.462500", "163144.662500", "163145.862500", "163147.062500", "163148.262500", "163149.462500", "163150.662500", "163151.862500", "163153.062500", "163154.262500", "163155.462500", "163156.662500", "163157.862500", "163159.062500", "163200.262500", "163201.462500", "163202.662500", "163203.862500", "163205.062500", "163206.262500", "163207.462500", "163208.662500", "163209.862500", "163211.062500", "163212.262500", "163213.462500", "163214.662500", "163215.862500", "163217.062500", "163218.262500", "163219.462500", "163220.662500", "163221.862500", "163223.062500", "163224.262500", "163225.462500", "163226.662500", "163227.862500", "163229.062500", "163230.262500", "163231.462500", "163232.662500", "163233.862500", "163235.062500", "163236.262500", "163237.462500", "163238.662500", "163239.862500", "163241.062500", "163242.262500", "163243.462500", "163244.662500", "163245.862500", "163247.062500", "163248.262500", "163249.462500", "163250.662500", "163251.862500", "163253.062500", "163254.262500", "163255.462500", "163256.662500", "163257.862500", "163259.062500", "163300.262500", "163301.462500", "163302.662500", "163303.862500", "163305.062500", "163306.262500", "163307.462500", "163308.662500", "163309.862500", "163311.062500", "163312.262500", "163313.462500", "163314.662500", "163315.862500", "163317.062500", "163318.262500", "163319.462500", "163320.662500", "163321.862500", "163323.062500", "163324.262500", "163325.462500", "163326.662500", "163327.862500", "163329.062500", "163330.262500", "163331.462500", "163332.662500", "163333.862500"],
      "ContentTime": ["162612.934000", "162612.937000", "162612.940000", "162612.946000", "162612.948000", "162612.955000", "162612.958000", "162612.960000", "162612.963000", "162612.965000", "162612.968000", "162612.970000", "162612.973000", "162612.976000", "162612.978000", "162612.981000", "162612.983000", "162612.986000", "162612.988000", "162612.991000", "162612.994000", "162612.996000", "162612.999000", "162652.930000", "162652.933000", "162652.936000", "162652.938000", "162652.941000", "162652.944000", "162652.946000", "162652.949000", "162652.951000", "162652.954000", "162652.957000", "162652.960000", "162652.962000", "162652.965000", "162652.967000", "162652.970000", "162652.972000", "162652.975000", "162652.978000", "162652.980000", "162652.983000", "162652.985000", "162652.988000", "162652.990000", "162652.993000", "162652.996000", "162652.998000", "162653.002000", "162653.004000", "162653.007000", "162653.010000", "162653.012000", "162653.015000", "162732.931000", "162732.934000", "162732.936000", "162732.939000", "162732.941000", "162732.944000", "162732.947000", "162732.949000", "162732.952000", "162732.954000", "162732.957000", "162732.960000", "162732.964000", "162732.966000", "162732.969000", "162732.972000", "162732.975000", "162732.978000", "162732.980000", "162732.983000", "162732.986000", "162732.988000", "162733.002000", "162733.004000", "162733.007000", "162733.009000", "162733.012000", "162733.015000", "162733.017000", "162733.020000", "162733.023000", "162733.025000", "162733.028000", "162812.929000", "162812.932000", "162812.935000", "162812.937000", "162812.940000", "162812.943000", "162812.945000", "162812.948000", "162812.951000", "162812.953000", "162812.956000", "162812.959000", "162812.961000", "162812.964000", "162812.966000", "162812.969000", "162812.971000", "162812.980000", "162812.982000", "162812.985000", "162812.987000", "162812.990000", "162812.992000", "162812.995000", "162812.998000", "162813.001000", "162813.004000", "162813.015000", "162813.017000", "162813.020000", "162813.023000", "162813.025000", "162813.028000", "162813.030000", "162852.931000", "162852.933000", "162852.936000", "162852.939000", "162852.942000", "162852.944000", "162852.947000", "162852.949000", "162852.952000", "162852.955000", "162852.957000", "162852.960000", "162852.963000", "162852.965000", "162852.968000", "162852.970000", "162852.973000", "162852.976000", "162852.978000", "162852.981000", "162852.983000", "162852.986000", "162852.989000", "162852.991000", "162852.994000", "162852.996000", "162853.000000", "162853.003000", "162853.005000", "162853.008000", "162853.010000", "162853.013000", "162853.016000", "162932.931000", "162932.933000", "162932.936000", "162932.939000", "162932.942000", "162932.944000", "162932.947000", "162932.959000", "162932.961000", "162932.964000", "162932.966000", "162932.969000", "162932.971000", "162932.974000", "162932.977000", "162932.979000", "162932.982000", "162932.984000", "162932.987000", "162932.990000", "162932.992000", "162932.995000", "162932.998000", "162933.002000", "162933.005000", "162933.007000", "162933.010000", "162933.013000", "162933.016000", "162933.019000", "162933.021000", "162933.024000", "162933.026000", "163012.930000", "163012.933000", "163012.936000", "163012.938000", "163012.941000", "163012.943000", "163012.946000", "163012.949000", "163012.957000", "163012.960000", "163012.963000", "163012.965000", "163012.968000", "163012.970000", "163012.973000", "163012.976000", "163012.978000", "163012.981000", "163012.983000", "163012.986000", "163012.988000", "163012.991000", "163012.994000", "163012.996000", "163012.999000", "163013.001000", "163013.004000", "163013.006000", "163013.009000", "163013.011000", "163013.014000", "163013.017000", "163013.019000", "163013.022000", "163052.930000", "163052.932000", "163052.935000", "163052.937000", "163052.940000", "163052.943000", "163052.945000", "163052.948000", "163052.950000", "163052.953000", "163052.956000", "163052.958000", "163052.961000", "163052.963000", "163052.966000", "163052.969000", "163052.971000", "163052.974000", "163052.976000", "163052.979000", "163052.981000", "163052.984000", "163052.987000", "163052.995000", "163052.998000", "163053.001000", "163053.004000", "163053.006000", "163053.009000", "163053.012000", "163053.014000", "163053.017000", "163053.019000", "163132.931000", "163132.933000", "163132.936000", "163132.939000", "163132.941000", "163132.944000", "163132.946000", "163132.949000", "163132.951000", "163132.954000", "163132.957000", "163132.959000", "163132.962000", "163132.964000", "163132.967000", "163132.969000", "163132.972000", "163132.975000", "163132.978000", "163132.981000", "163132.984000", "163132.987000", "163132.990000", "163132.993000", "163132.996000", "163132.998000", "163133.002000", "163133.005000", "163133.007000", "163133.010000", "163133.013000", "163133.015000", "163133.018000", "163212.931000", "163212.933000", "163212.936000", "163212.939000", "163212.941000", "163212.944000", "163212.947000", "163212.950000", "163212.953000", "163212.955000", "163212.958000", "163212.961000", "163212.964000", "163212.967000", "163212.969000", "163212.972000", "163212.974000", "163212.977000", "163212.980000", "163212.982000", "163212.985000", "163212.987000", "163212.990000", "163212.992000", "163212.995000", "163212.998000", "163213.001000", "163213.004000", "163213.007000", "163213.009000", "163213.012000", "163213.015000", "163213.017000", "163213.020000", "163252.930000", "163252.933000", "163252.935000", "163252.938000", "163252.940000", "163252.943000", "163252.946000", "163252.948000", "163252.951000", "163252.953000", "163252.956000", "163252.959000", "163252.961000", "163252.964000", "163252.966000", "163252.969000", "163252.972000", "163252.974000", "163252.977000", "163252.980000", "163252.982000", "163252.985000", "163252.987000", "163252.990000", "163252.992000", "163252.995000", "163252.998000", "163253.001000", "163253.004000", "163253.007000", "163253.009000", "163253.012000", "163253.014000", "163332.931000", "163332.933000", "163332.936000", "163332.938000", "163332.941000", "163332.953000", "163332.955000", "163332.958000", "163332.960000", "163332.963000", "163332.966000", "163332.969000", "163332.972000", "163332.975000", "163332.978000", "163332.980000", "163332.983000", "163332.986000", "163332.988000", "163332.991000", "163332.994000", "163332.996000", "163333.000000", "163333.002000", "163333.014000", "163333.016000", "163333.019000", "163333.022000", "163333.024000", "163333.027000", "163333.030000", "163333.032000", "163333.035000", "163335.456000", "163335.459000", "163335.462000"],
      "InstanceCreationTime": ["162612.934000", "162612.937000", "162612.940000", "162612.946000", "162612.948000", "162612.955000", "162612.958000", "162612.960000", "162612.963000", "162612.965000", "162612.968000", "162612.970000", "162612.973000", "162612.976000", "162612.978000", "162612.981000", "162612.983000", "162612.986000", "162612.988000", "162612.991000", "162612.994000", "162612.996000", "162612.999000", "162652.930000", "162652.933000", "162652.936000", "162652.938000", "162652.941000", "162652.944000", "162652.946000", "162652.949000", "162652.951000", "162652.954000", "162652.957000", "162652.960000", "162652.962000", "162652.965000", "162652.967000", "162652.970000", "162652.972000", "162652.975000", "162652.978000", "162652.980000", "162652.983000", "162652.985000", "162652.988000", "162652.990000", "162652.993000", "162652.996000", "162652.998000", "162653.002000", "162653.004000", "162653.007000", "162653.010000", "162653.012000", "162653.015000", "162732.931000", "162732.934000", "162732.936000", "162732.939000", "162732.941000", "162732.944000", "162732.947000", "162732.949000", "162732.952000", "162732.954000", "162732.957000", "162732.960000", "162732.964000", "162732.966000", "162732.969000", "162732.972000", "162732.975000", "162732.978000", "162732.980000", "162732.983000", "162732.986000", "162732.988000", "162733.002000", "162733.004000", "162733.007000", "162733.009000", "162733.012000", "162733.015000", "162733.017000", "162733.020000", "162733.023000", "162733.025000", "162733.028000", "162812.929000", "162812.932000", "162812.935000", "162812.937000", "162812.940000", "162812.943000", "162812.945000", "162812.948000", "162812.951000", "162812.953000", "162812.956000", "162812.959000", "162812.961000", "162812.964000", "162812.966000", "162812.969000", "162812.971000", "162812.980000", "162812.982000", "162812.985000", "162812.987000", "162812.990000", "162812.992000", "162812.995000", "162812.998000", "162813.001000", "162813.004000", "162813.015000", "162813.017000", "162813.020000", "162813.023000", "162813.025000", "162813.028000", "162813.030000", "162852.931000", "162852.933000", "162852.936000", "162852.939000", "162852.942000", "162852.944000", "162852.947000", "162852.949000", "162852.952000", "162852.955000", "162852.957000", "162852.960000", "162852.963000", "162852.965000", "162852.968000", "162852.970000", "162852.973000", "162852.976000", "162852.978000", "162852.981000", "162852.983000", "162852.986000", "162852.989000", "162852.991000", "162852.994000", "162852.996000", "162853.000000", "162853.003000", "162853.005000", "162853.008000", "162853.010000", "162853.013000", "162853.016000", "162932.931000", "162932.933000", "162932.936000", "162932.939000", "162932.942000", "162932.944000", "162932.947000", "162932.959000", "162932.961000", "162932.964000", "162932.966000", "162932.969000", "162932.971000", "162932.974000", "162932.977000", "162932.979000", "162932.982000", "162932.984000", "162932.987000", "162932.990000", "162932.992000", "162932.995000", "162932.998000", "162933.002000", "162933.005000", "162933.007000", "162933.010000", "162933.013000", "162933.016000", "162933.019000", "162933.021000", "162933.024000", "162933.026000", "163012.930000", "163012.933000", "163012.936000", "163012.938000", "163012.941000", "163012.943000", "163012.946000", "163012.949000", "163012.957000", "163012.960000", "163012.963000", "163012.965000", "163012.968000", "163012.970000", "163012.973000", "163012.976000", "163012.978000", "163012.981000", "163012.983000", "163012.986000", "163012.988000", "163012.991000", "163012.994000", "163012.996000", "163012.999000", "163013.001000", "163013.004000", "163013.006000", "163013.009000", "163013.011000", "163013.014000", "163013.017000", "163013.019000", "163013.022000", "163052.930000", "163052.932000", "163052.935000", "163052.937000", "163052.940000", "163052.943000", "163052.945000", "163052.948000", "163052.950000", "163052.953000", "163052.956000", "163052.958000", "163052.961000", "163052.963000", "163052.966000", "163052.969000", "163052.971000", "163052.974000", "163052.976000", "163052.979000", "163052.981000", "163052.984000", "163052.987000", "163052.995000", "163052.998000", "163053.001000", "163053.004000", "163053.006000", "163053.009000", "163053.012000", "163053.014000", "163053.017000", "163053.019000", "163132.931000", "163132.933000", "163132.936000", "163132.939000", "163132.941000", "163132.944000", "163132.946000", "163132.949000", "163132.951000", "163132.954000", "163132.957000", "163132.959000", "163132.962000", "163132.964000", "163132.967000", "163132.969000", "163132.972000", "163132.975000", "163132.978000", "163132.981000", "163132.984000", "163132.987000", "163132.990000", "163132.993000", "163132.996000", "163132.998000", "163133.002000", "163133.005000", "163133.007000", "163133.010000", "163133.013000", "163133.015000", "163133.018000", "163212.931000", "163212.933000", "163212.936000", "163212.939000", "163212.941000", "163212.944000", "163212.947000", "163212.950000", "163212.953000", "163212.955000", "163212.958000", "163212.961000", "163212.964000", "163212.967000", "163212.969000", "163212.972000", "163212.974000", "163212.977000", "163212.980000", "163212.982000", "163212.985000", "163212.987000", "163212.990000", "163212.992000", "163212.995000", "163212.998000", "163213.001000", "163213.004000", "163213.007000", "163213.009000", "163213.012000", "163213.015000", "163213.017000", "163213.020000", "163252.930000", "163252.933000", "163252.935000", "163252.938000", "163252.940000", "163252.943000", "163252.946000", "163252.948000", "163252.951000", "163252.953000", "163252.956000", "163252.959000", "163252.961000", "163252.964000", "163252.966000", "163252.969000", "163252.972000", "163252.974000", "163252.977000", "163252.980000", "163252.982000", "163252.985000", "163252.987000", "163252.990000", "163252.992000", "163252.995000", "163252.998000", "163253.001000", "163253.004000", "163253.007000", "163253.009000", "163253.012000", "163253.014000", "163332.931000", "163332.933000", "163332.936000", "163332.938000", "163332.941000", "163332.953000", "163332.955000", "163332.958000", "163332.960000", "163332.963000", "163332.966000", "163332.969000", "163332.972000", "163332.975000", "163332.978000", "163332.980000", "163332.983000", "163332.986000", "163332.988000", "163332.991000", "163332.994000", "163332.996000", "163333.000000", "163333.002000", "163333.014000", "163333.016000", "163333.019000", "163333.022000", "163333.024000", "163333.027000", "163333.030000", "163333.032000", "163333.035000", "163335.456000", "163335.459000", "163335.462000"],
      "InstanceNumber": [1, 2, 3, 4, 5, 6, 7, 8, 9, 10, 11, 12, 13, 14, 15, 16, 17, 18, 19, 20, 21, 22, 23, 24, 25, 26, 27, 28, 29, 30, 31, 32, 33, 34, 35, 36, 37, 38, 39, 40, 41, 42, 43, 44, 45, 46, 47, 48, 49, 50, 51, 52, 53, 54, 55, 56, 57, 58, 59, 60, 61, 62, 63, 64, 65, 66, 67, 68, 69, 70, 71, 72, 73, 74, 75, 76, 77, 78, 79, 80, 81, 82, 83, 84, 85, 86, 87, 88, 89, 90, 91, 92, 93, 94, 95, 96, 97, 98, 99, 100, 101, 102, 103, 104, 105, 106, 107, 108, 109, 110, 111, 112, 113, 114, 115, 116, 117, 118, 119, 120, 121, 122, 123, 124, 125, 126, 127, 128, 129, 130, 131, 132, 133, 134, 135, 136, 137, 138, 139, 140, 141, 142, 143, 144, 145, 146, 147, 148, 149, 150, 151, 152, 153, 154, 155, 156, 157, 158, 159, 160, 161, 162, 163, 164, 165, 166, 167, 168, 169, 170, 171, 172, 173, 174, 175, 176, 177, 178, 179, 180, 181, 182, 183, 184, 185, 186, 187, 188, 189, 190, 191, 192, 193, 194, 195, 196, 197, 198, 199, 200, 201, 202, 203, 204, 205, 206, 207, 208, 209, 210, 211, 212, 213, 214, 215, 216, 217, 218, 219, 220, 221, 222, 223, 224, 225, 226, 227, 228, 229, 230, 231, 232, 233, 234, 235, 236, 237, 238, 239, 240, 241, 242, 243, 244, 245, 246, 247, 248, 249, 250, 251, 252, 253, 254, 255, 256, 257, 258, 259, 260, 261, 262, 263, 264, 265, 266, 267, 268, 269, 270, 271, 272, 273, 274, 275, 276, 277, 278, 279, 280, 281, 282, 283, 284, 285, 286, 287, 288, 289, 290, 291, 292, 293, 294, 295, 296, 297, 298, 299, 300, 301, 302, 303, 304, 305, 306, 307, 308, 309, 310, 311, 312, 313, 314, 315, 316, 317, 318, 319, 320, 321, 322, 323, 324, 325, 326, 327, 328, 329, 330, 331, 332, 333, 334, 335, 336, 337, 338, 339, 340, 341, 342, 343, 344, 345, 346, 347, 348, 349, 350, 351, 352, 353, 354, 355, 356, 357, 358, 359, 360, 361, 362, 363, 364, 365, 366, 367, 368, 369, 370, 371, 372, 373, 374, 375, 376, 377, 378, 379, 380, 381, 382, 383, 384, 385, 386, 387, 388, 389, 390, 391, 392],
