{
  "AcquisitionMatrixPE": 88,
  "AcquisitionNumber": 1,
  "AcquisitionTime": "16:02:17.510000",
  "BandwidthPerPixelPhaseEncode": 19.592,
  "BaseResolution": 88,
  "BodyPartExamined": "BRAIN",
  "ConsistencyInfo": "N4_VE11C_LATEST_20160120",
  "ConversionSoftware": "dcm2niix",
  "ConversionSoftwareVersion": "v1.0.20190902",
  "DerivedVendorReportedEchoSpacing": 0.000580014,
  "DeviceSerialNumber": "67050",
  "DwellTime": 2.6e-06,
  "EchoTime": 0.033,
  "EchoTrainLength": 88,
  "EffectiveEchoSpacing": 0.000580014,
  "FlipAngle": 62,
  "ImageOrientationPatientDICOM": [0.998606, 0.0290735, 0.0440563, -0.0210922, 0.984895, -0.171861],
  "ImageType": [
    "ORIGINAL",
    "PRIMARY",
    "M",
    "ND",
    "MOSAIC"
],
  "ImagingFrequency": 123.251,
  "InPlanePhaseEncodingDirectionDICOM": "COL",
  "InstitutionAddress": "Olive_Street_60_Providence_RI_US_02912",
  "InstitutionName": "BROWN_UNIVERSITY_MRF",
  "InstitutionalDepartmentName": "Department",
  "MRAcquisitionType": "2D",
  "MagneticFieldStrength": 3,
  "Manufacturer": "Siemens",
  "ManufacturersModelName": "Prisma_fit",
  "Modality": "MR",
  "MultibandAccelerationFactor": 4,
  "PartialFourier": 1,
  "PatientPosition": "HFS",
  "PercentPhaseFOV": 100,
  "PhaseEncodingDirection": "j-",
  "PhaseEncodingSteps": 88,
  "PhaseResolution": 1,
  "PixelBandwidth": 2185,
  "ProcedureStepDescription": "ASHENHAV_1222",
  "ProtocolName": "func-bold_task-RDMcolor_run-04",
  "PulseSequenceDetails": "%SiemensSeq%_ep2d_bold",
  "ReceiveCoilActiveElements": "HC1-7",
  "ReceiveCoilName": "HeadNeck_64",
  "ReconMatrixPE": 88,
  "RefLinesPE": 8,
  "RepetitionTime": 1.2,
  "SAR": 0.0620651,
  "ScanOptions": "FS",
  "ScanningSequence": "EP",
  "SequenceName": "_epfid2d1_88",
  "SequenceVariant": "SK",
  "SeriesDescription": "func-bold_task-RDMcolor_run-04",
  "SeriesNumber": 14,
  "ShimSetting": [1769, -9091, 4399, 428, -70, -249, 43, 12],
  "SliceThickness": 2.4,
  "SliceTiming": [0.55, 0, 0.6275, 0.0775, 0.7075, 0.1575, 0.785, 0.235, 0.865, 0.315, 0.9425, 0.3925, 1.0225, 0.4725, 1.1, 0.55, 0, 0.6275, 0.0775, 0.7075, 0.1575, 0.785, 0.235, 0.865, 0.315, 0.9425, 0.3925, 1.0225, 0.4725, 1.1, 0.55, 0, 0.6275, 0.0775, 0.7075, 0.1575, 0.785, 0.235, 0.865, 0.315, 0.9425, 0.3925, 1.0225, 0.4725, 1.1, 0.55, 0, 0.6275, 0.0775, 0.7075, 0.1575, 0.785, 0.235, 0.865, 0.315, 0.9425, 0.3925, 1.0225, 0.4725, 1.1],
  "SoftwareVersions": "syngo_MR_E11",
  "SpacingBetweenSlices": 2.4,
  "StationName": "AWP67050",
  "TaskName": "RDMcolor",
  "TotalReadoutTime": 0.0504612,
  "TxRefAmp": 254.149,
  "dcmmeta_affine": [
    [-2.3943846225738525, -0.05057332664728165, 0.11612989753484726, 108.64788818359375],
    [-0.06971030682325363, 2.3615105152130127, -0.4096611440181732, -79.7043685913086],
    [0.10563502460718155, 0.4120757579803467, 2.3619253635406494, -80.73521423339844],
    [0.0, 0.0, 0.0, 1.0]
],
  "dcmmeta_reorient_transform": [
    [0.0, -1.0, 0.0, 87.0],
    [1.0, 0.0, 0.0, 0.0],
    [0.0, 0.0, 1.0, 0.0],
    [0.0, 0.0, 0.0, 1.0]
],
  "dcmmeta_shape": [88, 88, 60, 392],
  "dcmmeta_slice_dim": 2,
  "dcmmeta_version": 0.6,
  "global": {
    "const": {
      "AcquisitionMatrix": [88, 0, 0, 88],
      "AngioFlag": "N",
      "BitsAllocated": 16,
      "BitsStored": 12,
      "BodyPartExamined": "BRAIN",
      "Columns": 704,
      "DeidentificationMethodCodeSequence": [
        {
          "CodeMeaning": "XNAT DicomEdit 6 Script",
          "CodeValue": "3",
          "CodingSchemeDesignator": "XNAT",
          "CodingSchemeVersion": "1.0"}
],
      "EchoNumbers": 1,
      "EchoTime": 33.0,
      "EchoTrainLength": 88,
      "FlipAngle": 62.0,
      "HighBit": 11,
      "ImageOrientationPatient": [0.99860591488418, 0.0290734943836, 0.0440563126313, -0.0210921938825, 0.98489538727105, -0.1718609772154],
      "ImagePositionPatient": [-826.141881586, -874.56305525433, 49.499116829894],
      "ImageType": [
        "ORIGINAL",
        "PRIMARY",
        "M",
        "ND",
        "MOSAIC"
],
      "ImagedNucleus": "1H",
      "ImagingFrequency": 123.250714,
      "InPlanePhaseEncodingDirection": "COL",
      "MRAcquisitionType": "2D",
      "MagneticFieldStrength": 3.0,
      "Manufacturer": "SIEMENS",
      "ManufacturerModelName": "Prisma_fit",
      "Modality": "MR",
      "NumberOfAverages": 1.0,
      "NumberOfPhaseEncodingSteps": 88,
      "PercentPhaseFieldOfView": 100.0,
      "PercentSampling": 100.0,
      "PerformedProcedureStepStartTime": "151453.303000",
      "PhotometricInterpretation": "MONOCHROME2",
      "PixelBandwidth": 2185.0,
      "PixelRepresentation": 0,
      "PixelSpacing": [2.3977272510529, 2.3977272510529],
      "ProtocolName": "func-bold_task-RDMcolor_run-04",
      "RepetitionTime": 1200.0,
      "Rows": 704,
      "SAR": 0.06206509210554,
      "SamplesPerPixel": 1,
      "ScanOptions": "FS",
      "ScanningSequence": "EP",
      "SequenceName": "*epfid2d1_88",
      "SequenceVariant": "SK",
      "SeriesDescription": "func-bold_task-RDMcolor_run-04",
      "SeriesNumber": 14,
      "SeriesTime": "160246.215000",
      "SliceLocation": -60.592295046741,
      "SliceThickness": 2.4000000953674,
      "SmallestImagePixelValue": 0,
      "SoftwareVersions": "syngo MR E11",
      "SpacingBetweenSlices": 2.4000000129153,
      "SpecificCharacterSet": "ISO_IR 100",
      "StudyID": "1",
      "StudyTime": "151453.174000",
      "TransmitCoilName": "Body",
      "VariableFlipAngleFlag": "N",
      "WindowCenterWidthExplanation": "Algo1",
      "dBdt": 0.0},
    "slices": {}
  },
  "time": {
    "samples": {
      "AcquisitionNumber": [1, 2, 3, 4, 5, 6, 7, 8, 9, 10, 11, 12, 13, 14, 15, 16, 17, 18, 19, 20, 21, 22, 23, 24, 25, 26, 27, 28, 29, 30, 31, 32, 33, 34, 35, 36, 37, 38, 39, 40, 41, 42, 43, 44, 45, 46, 47, 48, 49, 50, 51, 52, 53, 54, 55, 56, 57, 58, 59, 60, 61, 62, 63, 64, 65, 66, 67, 68, 69, 70, 71, 72, 73, 74, 75, 76, 77, 78, 79, 80, 81, 82, 83, 84, 85, 86, 87, 88, 89, 90, 91, 92, 93, 94, 95, 96, 97, 98, 99, 100, 101, 102, 103, 104, 105, 106, 107, 108, 109, 110, 111, 112, 113, 114, 115, 116, 117, 118, 119, 120, 121, 122, 123, 124, 125, 126, 127, 128, 129, 130, 131, 132, 133, 134, 135, 136, 137, 138, 139, 140, 141, 142, 143, 144, 145, 146, 147, 148, 149, 150, 151, 152, 153, 154, 155, 156, 157, 158, 159, 160, 161, 162, 163, 164, 165, 166, 167, 168, 169, 170, 171, 172, 173, 174, 175, 176, 177, 178, 179, 180, 181, 182, 183, 184, 185, 186, 187, 188, 189, 190, 191, 192, 193, 194, 195, 196, 197, 198, 199, 200, 201, 202, 203, 204, 205, 206, 207, 208, 209, 210, 211, 212, 213, 214, 215, 216, 217, 218, 219, 220, 221, 222, 223, 224, 225, 226, 227, 228, 229, 230, 231, 232, 233, 234, 235, 236, 237, 238, 239, 240, 241, 242, 243, 244, 245, 246, 247, 248, 249, 250, 251, 252, 253, 254, 255, 256, 257, 258, 259, 260, 261, 262, 263, 264, 265, 266, 267, 268, 269, 270, 271, 272, 273, 274, 275, 276, 277, 278, 279, 280, 281, 282, 283, 284, 285, 286, 287, 288, 289, 290, 291, 292, 293, 294, 295, 296, 297, 298, 299, 300, 301, 302, 303, 304, 305, 306, 307, 308, 309, 310, 311, 312, 313, 314, 315, 316, 317, 318, 319, 320, 321, 322, 323, 324, 325, 326, 327, 328, 329, 330, 331, 332, 333, 334, 335, 336, 337, 338, 339, 340, 341, 342, 343, 344, 345, 346, 347, 348, 349, 350, 351, 352, 353, 354, 355, 356, 357, 358, 359, 360, 361, 362, 363, 364, 365, 366, 367, 368, 369, 370, 371, 372, 373, 374, 375, 376, 377, 378, 379, 380, 381, 382, 383, 384, 385, 386, 387, 388, 389, 390, 391, 392],
      "AcquisitionTime": ["160217.510000", "160218.710000", "160219.910000", "160221.110000", "160222.310000", "160223.510000", "160224.710000", "160225.910000", "160227.110000", "160228.310000", "160229.510000", "160230.710000", "160231.910000", "160233.110000", "160234.310000", "160235.510000", "160236.710000", "160237.910000", "160239.110000", "160240.310000", "160241.510000", "160242.710000", "160243.910000", "160245.110000", "160246.310000", "160247.510000", "160248.710000", "160249.910000", "160251.110000", "160252.310000", "160253.510000", "160254.710000", "160255.910000", "160257.110000", "160258.310000", "160259.510000", "160300.710000", "160301.910000", "160303.110000", "160304.310000", "160305.510000", "160306.710000", "160307.910000", "160309.110000", "160310.310000", "160311.510000", "160312.710000", "160313.910000", "160315.110000", "160316.310000", "160317.510000", "160318.710000", "160319.910000", "160321.110000", "160322.310000", "160323.510000", "160324.710000", "160325.910000", "160327.110000", "160328.310000", "160329.510000", "160330.710000", "160331.910000", "160333.110000", "160334.310000", "160335.510000", "160336.710000", "160337.910000", "160339.110000", "160340.310000", "160341.510000", "160342.710000", "160343.910000", "160345.110000", "160346.310000", "160347.510000", "160348.710000", "160349.910000", "160351.110000", "160352.310000", "160353.510000", "160354.710000", "160355.910000", "160357.110000", "160358.310000", "160359.510000", "160400.710000", "160401.910000", "160403.110000", "160404.310000", "160405.510000", "160406.710000", "160407.910000", "160409.110000", "160410.310000", "160411.510000", "160412.710000", "160413.910000", "160415.110000", "160416.310000", "160417.510000", "160418.710000", "160419.910000", "160421.110000", "160422.310000", "160423.510000", "160424.710000", "160425.910000", "160427.110000", "160428.310000", "160429.510000", "160430.710000", "160431.910000", "160433.110000", "160434.310000", "160435.510000", "160436.710000", "160437.910000", "160439.110000", "160440.310000", "160441.510000", "160442.710000", "160443.910000", "160445.110000", "160446.310000", "160447.510000", "160448.710000", "160449.910000", "160451.110000", "160452.310000", "160453.510000", "160454.710000", "160455.910000", "160457.110000", "160458.310000", "160459.510000", "160500.710000", "160501.910000", "160503.110000", "160504.310000", "160505.510000", "160506.710000", "160507.910000", "160509.110000", "160510.310000", "160511.510000", "160512.710000", "160513.910000", "160515.110000", "160516.310000", "160517.510000", "160518.710000", "160519.910000", "160521.110000", "160522.310000", "160523.510000", "160524.710000", "160525.910000", "160527.110000", "160528.310000", "160529.510000", "160530.710000", "160531.910000", "160533.110000", "160534.310000", "160535.510000", "160536.710000", "160537.910000", "160539.110000", "160540.310000", "160541.510000", "160542.710000", "160543.910000", "160545.110000", "160546.310000", "160547.510000", "160548.710000", "160549.910000", "160551.110000", "160552.310000", "160553.510000", "160554.710000", "160555.910000", "160557.110000", "160558.310000", "160559.510000", "160600.710000", "160601.910000", "160603.110000", "160604.310000", "160605.510000", "160606.710000", "160607.910000", "160609.110000", "160610.310000", "160611.510000", "160612.710000", "160613.910000", "160615.110000", "160616.310000", "160617.510000", "160618.710000", "160619.910000", "160621.110000", "160622.310000", "160623.510000", "160624.710000", "160625.910000", "160627.110000", "160628.310000", "160629.510000", "160630.710000", "160631.910000", "160633.110000", "160634.310000", "160635.510000", "160636.710000", "160637.910000", "160639.110000", "160640.310000", "160641.510000", "160642.710000", "160643.910000", "160645.110000", "160646.310000", "160647.510000", "160648.710000", "160649.910000", "160651.110000", "160652.310000", "160653.510000", "160654.710000", "160655.910000", "160657.110000", "160658.310000", "160659.510000", "160700.710000", "160701.910000", "160703.110000", "160704.310000", "160705.510000", "160706.710000", "160707.910000", "160709.110000", "160710.310000", "160711.510000", "160712.710000", "160713.910000", "160715.110000", "160716.310000", "160717.510000", "160718.710000", "160719.910000", "160721.110000", "160722.310000", "160723.510000", "160724.710000", "160725.910000", "160727.110000", "160728.310000", "160729.510000", "160730.710000", "160731.910000", "160733.110000", "160734.310000", "160735.510000", "160736.710000", "160737.910000", "160739.110000", "160740.310000", "160741.510000", "160742.710000", "160743.910000", "160745.110000", "160746.310000", "160747.510000", "160748.710000", "160749.910000", "160751.110000", "160752.310000", "160753.510000", "160754.710000", "160755.910000", "160757.110000", "160758.310000", "160759.510000", "160800.710000", "160801.910000", "160803.110000", "160804.310000", "160805.510000", "160806.710000", "160807.910000", "160809.110000", "160810.310000", "160811.510000", "160812.710000", "160813.910000", "160815.110000", "160816.310000", "160817.510000", "160818.710000", "160819.910000", "160821.110000", "160822.310000", "160823.510000", "160824.710000", "160825.910000", "160827.110000", "160828.310000", "160829.510000", "160830.710000", "160831.910000", "160833.110000", "160834.310000", "160835.510000", "160836.710000", "160837.910000", "160839.110000", "160840.310000", "160841.510000", "160842.710000", "160843.910000", "160845.110000", "160846.310000", "160847.510000", "160848.710000", "160849.910000", "160851.110000", "160852.310000", "160853.510000", "160854.710000", "160855.910000", "160857.110000", "160858.310000", "160859.510000", "160900.710000", "160901.910000", "160903.110000", "160904.310000", "160905.510000", "160906.710000", "160907.910000", "160909.110000", "160910.310000", "160911.510000", "160912.710000", "160913.910000", "160915.110000", "160916.310000", "160917.510000", "160918.710000", "160919.910000", "160921.110000", "160922.310000", "160923.510000", "160924.710000", "160925.910000", "160927.110000", "160928.310000", "160929.510000", "160930.710000", "160931.910000", "160933.110000", "160934.310000", "160935.510000", "160936.710000", "160937.910000", "160939.110000", "160940.310000", "160941.510000", "160942.710000", "160943.910000", "160945.110000", "160946.310000", "160947.510000", "160948.710000", "160949.910000", "160951.110000", "160952.310000", "160953.510000", "160954.710000", "160955.910000", "160957.110000", "160958.310000", "160959.510000", "161000.710000", "161001.910000", "161003.110000", "161004.310000", "161005.510000", "161006.710000"],
      "ContentTime": ["160246.218000", "160246.223000", "160246.234000", "160246.237000", "160246.239000", "160246.255000", "160246.257000", "160246.260000", "160246.262000", "160246.265000", "160246.270000", "160246.273000", "160246.276000", "160246.288000", "160246.290000", "160246.293000", "160246.295000", "160246.298000", "160246.300000", "160246.303000", "160246.306000", "160246.308000", "160246.311000", "160326.213000", "160326.216000", "160326.219000", "160326.222000", "160326.224000", "160326.227000", "160326.229000", "160326.232000", "160326.235000", "160326.237000", "160326.240000", "160326.242000", "160326.245000", "160326.248000", "160326.250000", "160326.253000", "160326.255000", "160326.258000", "160326.260000", "160326.263000", "160326.266000", "160326.268000", "160326.271000", "160326.273000", "160326.276000", "160326.279000", "160326.281000", "160326.284000", "160326.286000", "160326.289000", "160326.291000", "160326.294000", "160326.297000", "160326.299000", "160406.214000", "160406.217000", "160406.220000", "160406.222000", "160406.225000", "160406.228000", "160406.230000", "160406.233000", "160406.235000", "160406.238000", "160406.240000", "160406.243000", "160406.246000", "160406.248000", "160406.251000", "160406.254000", "160406.257000", "160406.259000", "160406.262000", "160406.265000", "160406.267000", "160406.270000", "160406.272000", "160406.275000", "160406.278000", "160406.280000", "160406.283000", "160406.285000", "160406.288000", "160406.291000", "160406.293000", "160406.296000", "160406.298000", "160446.213000", "160446.216000", "160446.219000", "160446.221000", "160446.224000", "160446.226000", "160446.229000", "160446.231000", "160446.239000", "160446.242000", "160446.244000", "160446.247000", "160446.249000", "160446.252000", "160446.255000", "160446.257000", "160446.260000", "160446.262000", "160446.265000", "160446.267000", "160446.270000", "160446.272000", "160446.275000", "160446.277000", "160446.280000", "160446.282000", "160446.285000", "160446.288000", "160446.290000", "160446.293000", "160446.295000", "160446.298000", "160446.300000", "160526.214000", "160526.316000", "160526.319000", "160526.321000", "160526.324000", "160526.326000", "160526.329000", "160526.331000", "160526.334000", "160526.336000", "160526.339000", "160526.341000", "160526.344000", "160526.347000", "160526.349000", "160526.353000", "160526.355000", "160526.358000", "160526.360000", "160526.363000", "160526.365000", "160526.368000", "160526.371000", "160526.373000", "160526.376000", "160526.378000", "160526.381000", "160526.383000", "160526.386000", "160526.389000", "160526.391000", "160526.394000", "160526.396000", "160526.399000", "160606.213000", "160606.216000", "160606.219000", "160606.222000", "160606.224000", "160606.227000", "160606.229000", "160606.232000", "160606.235000", "160606.237000", "160606.240000", "160606.242000", "160606.245000", "160606.248000", "160606.250000", "160606.253000", "160606.255000", "160606.258000", "160606.261000", "160606.271000", "160606.274000", "160606.276000", "160606.279000", "160606.282000", "160606.284000", "160606.287000", "160606.307000", "160606.309000", "160606.312000", "160606.315000", "160606.317000", "160606.320000", "160606.322000", "160646.214000", "160646.217000", "160646.220000", "160646.222000", "160646.225000", "160646.228000", "160646.230000", "160646.233000", "160646.235000", "160646.238000", "160646.240000", "160646.243000", "160646.246000", "160646.248000", "160646.251000", "160646.253000", "160646.256000", "160646.259000", "160646.261000", "160646.264000", "160646.266000", "160646.269000", "160646.271000", "160646.274000", "160646.277000", "160646.279000", "160646.282000", "160646.285000", "160646.287000", "160646.290000", "160646.292000", "160646.295000", "160646.298000", "160726.214000", "160726.216000", "160726.219000", "160726.222000", "160726.224000", "160726.227000", "160726.229000", "160726.232000", "160726.234000", "160726.237000", "160726.240000", "160726.242000", "160726.245000", "160726.247000", "160726.250000", "160726.252000", "160726.255000", "160726.258000", "160726.260000", "160726.263000", "160726.265000", "160726.268000", "160726.271000", "160726.278000", "160726.281000", "160726.284000", "160726.286000", "160726.289000", "160726.291000", "160726.294000", "160726.297000", "160726.299000", "160726.302000", "160726.304000", "160806.213000", "160806.216000", "160806.219000", "160806.221000", "160806.224000", "160806.227000", "160806.229000", "160806.232000", "160806.234000", "160806.237000", "160806.240000", "160806.242000", "160806.245000", "160806.248000", "160806.250000", "160806.253000", "160806.256000", "160806.258000", "160806.261000", "160806.264000", "160806.266000", "160806.269000", "160806.272000", "160806.274000", "160806.277000", "160806.279000", "160806.282000", "160806.285000", "160806.287000", "160806.290000", "160806.293000", "160806.295000", "160806.298000", "160846.215000", "160846.217000", "160846.220000", "160846.222000", "160846.225000", "160846.228000", "160846.230000", "160846.233000", "160846.235000", "160846.238000", "160846.240000", "160846.243000", "160846.246000", "160846.248000", "160846.251000", "160846.254000", "160846.256000", "160846.259000", "160846.261000", "160846.264000", "160846.267000", "160846.269000", "160846.272000", "160846.274000", "160846.277000", "160846.279000", "160846.282000", "160846.285000", "160846.287000", "160846.290000", "160846.293000", "160846.295000", "160846.298000", "160926.214000", "160926.216000", "160926.219000", "160926.222000", "160926.224000", "160926.227000", "160926.230000", "160926.232000", "160926.235000", "160926.237000", "160926.240000", "160926.243000", "160926.245000", "160926.248000", "160926.250000", "160926.253000", "160926.256000", "160926.259000", "160926.261000", "160926.264000", "160926.271000", "160926.274000", "160926.276000", "160926.279000", "160926.281000", "160926.284000", "160926.287000", "160926.289000", "160926.292000", "160926.294000", "160926.297000", "160926.299000", "160926.302000", "160926.305000", "161006.213000", "161006.216000", "161006.219000", "161006.222000", "161006.224000", "161006.227000", "161006.229000", "161006.232000", "161006.235000", "161006.237000", "161006.240000", "161006.243000", "161006.245000", "161006.248000", "161006.250000", "161006.253000", "161006.256000", "161006.259000", "161006.261000", "161006.264000", "161006.267000", "161006.277000", "161006.280000", "161006.301000", "161006.304000", "161006.307000", "161006.309000", "161006.312000", "161006.315000", "161006.317000", "161006.320000", "161006.323000", "161006.325000", "161008.015000", "161008.018000"],
      "InstanceCreationTime": ["160246.218000", "160246.223000", "160246.234000", "160246.237000", "160246.239000", "160246.255000", "160246.257000", "160246.260000", "160246.262000", "160246.265000", "160246.270000", "160246.273000", "160246.276000", "160246.288000", "160246.290000", "160246.293000", "160246.295000", "160246.298000", "160246.300000", "160246.303000", "160246.306000", "160246.308000", "160246.311000", "160326.213000", "160326.216000", "160326.219000", "160326.222000", "160326.224000", "160326.227000", "160326.229000", "160326.232000", "160326.235000", "160326.237000", "160326.240000", "160326.242000", "160326.245000", "160326.248000", "160326.250000", "160326.253000", "160326.255000", "160326.258000", "160326.260000", "160326.263000", "160326.266000", "160326.268000", "160326.271000", "160326.273000", "160326.276000", "160326.279000", "160326.281000", "160326.284000", "160326.286000", "160326.289000", "160326.291000", "160326.294000", "160326.297000", "160326.299000", "160406.214000", "160406.217000", "160406.220000", "160406.222000", "160406.225000", "160406.228000", "160406.230000", "160406.233000", "160406.235000", "160406.238000", "160406.240000", "160406.243000", "160406.246000", "160406.248000", "160406.251000", "160406.254000", "160406.257000", "160406.259000", "160406.262000", "160406.265000", "160406.267000", "160406.270000", "160406.272000", "160406.275000", "160406.278000", "160406.280000", "160406.283000", "160406.285000", "160406.288000", "160406.291000", "160406.293000", "160406.296000", "160406.298000", "160446.213000", "160446.216000", "160446.219000", "160446.221000", "160446.224000", "160446.226000", "160446.229000", "160446.231000", "160446.239000", "160446.242000", "160446.244000", "160446.247000", "160446.249000", "160446.252000", "160446.255000", "160446.257000", "160446.260000", "160446.262000", "160446.265000", "160446.267000", "160446.270000", "160446.272000", "160446.275000", "160446.277000", "160446.280000", "160446.282000", "160446.285000", "160446.288000", "160446.290000", "160446.293000", "160446.295000", "160446.298000", "160446.300000", "160526.214000", "160526.316000", "160526.319000", "160526.321000", "160526.324000", "160526.326000", "160526.329000", "160526.331000", "160526.334000", "160526.336000", "160526.339000", "160526.341000", "160526.344000", "160526.347000", "160526.349000", "160526.353000", "160526.355000", "160526.358000", "160526.360000", "160526.363000", "160526.365000", "160526.368000", "160526.371000", "160526.373000", "160526.376000", "160526.378000", "160526.381000", "160526.383000", "160526.386000", "160526.389000", "160526.391000", "160526.394000", "160526.396000", "160526.399000", "160606.213000", "160606.216000", "160606.219000", "160606.222000", "160606.224000", "160606.227000", "160606.229000", "160606.232000", "160606.235000", "160606.237000", "160606.240000", "160606.242000", "160606.245000", "160606.248000", "160606.250000", "160606.253000", "160606.255000", "160606.258000", "160606.261000", "160606.271000", "160606.274000", "160606.276000", "160606.279000", "160606.282000", "160606.284000", "160606.287000", "160606.307000", "160606.309000", "160606.312000", "160606.315000", "160606.317000", "160606.320000", "160606.322000", "160646.214000", "160646.217000", "160646.220000", "160646.222000", "160646.225000", "160646.228000", "160646.230000", "160646.233000", "160646.235000", "160646.238000", "160646.240000", "160646.243000", "160646.246000", "160646.248000", "160646.251000", "160646.253000", "160646.256000", "160646.259000", "160646.261000", "160646.264000", "160646.266000", "160646.269000", "160646.271000", "160646.274000", "160646.277000", "160646.279000", "160646.282000", "160646.285000", "160646.287000", "160646.290000", "160646.292000", "160646.295000", "160646.298000", "160726.214000", "160726.216000", "160726.219000", "160726.222000", "160726.224000", "160726.227000", "160726.229000", "160726.232000", "160726.234000", "160726.237000", "160726.240000", "160726.242000", "160726.245000", "160726.247000", "160726.250000", "160726.252000", "160726.255000", "160726.258000", "160726.260000", "160726.263000", "160726.265000", "160726.268000", "160726.271000", "160726.278000", "160726.281000", "160726.284000", "160726.286000", "160726.289000", "160726.291000", "160726.294000", "160726.297000", "160726.299000", "160726.302000", "160726.304000", "160806.213000", "160806.216000", "160806.219000", "160806.221000", "160806.224000", "160806.227000", "160806.229000", "160806.232000", "160806.234000", "160806.237000", "160806.240000", "160806.242000", "160806.245000", "160806.248000", "160806.250000", "160806.253000", "160806.256000", "160806.258000", "160806.261000", "160806.264000", "160806.266000", "160806.269000", "160806.272000", "160806.274000", "160806.277000", "160806.279000", "160806.282000", "160806.285000", "160806.287000", "160806.290000", "160806.293000", "160806.295000", "160806.298000", "160846.215000", "160846.217000", "160846.220000", "160846.222000", "160846.225000", "160846.228000", "160846.230000", "160846.233000", "160846.235000", "160846.238000", "160846.240000", "160846.243000", "160846.246000", "160846.248000", "160846.251000", "160846.254000", "160846.256000", "160846.259000", "160846.261000", "160846.264000", "160846.267000", "160846.269000", "160846.272000", "160846.274000", "160846.277000", "160846.279000", "160846.282000", "160846.285000", "160846.287000", "160846.290000", "160846.293000", "160846.295000", "160846.298000", "160926.214000", "160926.216000", "160926.219000", "160926.222000", "160926.224000", "160926.227000", "160926.230000", "160926.232000", "160926.235000", "160926.237000", "160926.240000", "160926.243000", "160926.245000", "160926.248000", "160926.250000", "160926.253000", "160926.256000", "160926.259000", "160926.261000", "160926.264000", "160926.271000", "160926.274000", "160926.276000", "160926.279000", "160926.281000", "160926.284000", "160926.287000", "160926.289000", "160926.292000", "160926.294000", "160926.297000", "160926.299000", "160926.302000", "160926.305000", "161006.213000", "161006.216000", "161006.219000", "161006.222000", "161006.224000", "161006.227000", "161006.229000", "161006.232000", "161006.235000", "161006.237000", "161006.240000", "161006.243000", "161006.245000", "161006.248000", "161006.250000", "161006.253000", "161006.256000", "161006.259000", "161006.261000", "161006.264000", "161006.267000", "161006.277000", "161006.280000", "161006.301000", "161006.304000", "161006.307000", "161006.309000", "161006.312000", "161006.315000", "161006.317000", "161006.320000", "161006.323000", "161006.325000", "161008.015000", "161008.018000"],
      "InstanceNumber": [1, 2, 3, 4, 5, 6, 7, 8, 9, 10, 11, 12, 13, 14, 15, 16, 17, 18, 19, 20, 21, 22, 23, 24, 25, 26, 27, 28, 29, 30, 31, 32, 33, 34, 35, 36, 37, 38, 39, 40, 41, 42, 43, 44, 45, 46, 47, 48, 49, 50, 51, 52, 53, 54, 55, 56, 57, 58, 59, 60, 61, 62, 63, 64, 65, 66, 67, 68, 69, 70, 71, 72, 73, 74, 75, 76, 77, 78, 79, 80, 81, 82, 83, 84, 85, 86, 87, 88, 89, 90, 91, 92, 93, 94, 95, 96, 97, 98, 99, 100, 101, 102, 103, 104, 105, 106, 107, 108, 109, 110, 111, 112, 113, 114, 115, 116, 117, 118, 119, 120, 121, 122, 123, 124, 125, 126, 127, 128, 129, 130, 131, 132, 133, 134, 135, 136, 137, 138, 139, 140, 141, 142, 143, 144, 145, 146, 147, 148, 149, 150, 151, 152, 153, 154, 155, 156, 157, 158, 159, 160, 161, 162, 163, 164, 165, 166, 167, 168, 169, 170, 171, 172, 173, 174, 175, 176, 177, 178, 179, 180, 181, 182, 183, 184, 185, 186, 187, 188, 189, 190, 191, 192, 193, 194, 195, 196, 197, 198, 199, 200, 201, 202, 203, 204, 205, 206, 207, 208, 209, 210, 211, 212, 213, 214, 215, 216, 217, 218, 219, 220, 221, 222, 223, 224, 225, 226, 227, 228, 229, 230, 231, 232, 233, 234, 235, 236, 237, 238, 239, 240, 241, 242, 243, 244, 245, 246, 247, 248, 249, 250, 251, 252, 253, 254, 255, 256, 257, 258, 259, 260, 261, 262, 263, 264, 265, 266, 267, 268, 269, 270, 271, 272, 273, 274, 275, 276, 277, 278, 279, 280, 281, 282, 283, 284, 285, 286, 287, 288, 289, 290, 291, 292, 293, 294, 295, 296, 297, 298, 299, 300, 301, 302, 303, 304, 305, 306, 307, 308, 309, 310, 311, 312, 313, 314, 315, 316, 317, 318, 319, 320, 321, 322, 323, 324, 325, 326, 327, 328, 329, 330, 331, 332, 333, 334, 335, 336, 337, 338, 339, 340, 341, 342, 343, 344, 345, 346, 347, 348, 349, 350, 351, 352, 353, 354, 355, 356, 357, 358, 359, 360, 361, 362, 363, 364, 365, 366, 367, 368, 369, 370, 371, 372, 373, 374, 375, 376, 377, 378, 379, 380, 381, 382, 383, 384, 385, 386, 387, 388, 389, 390, 391, 392],
