{
  "AcquisitionMatrixPE": 88,
  "AcquisitionNumber": 1,
  "AcquisitionTime": "16:34:36.937500",
  "BandwidthPerPixelPhaseEncode": 19.592,
  "BaseResolution": 88,
  "BodyPartExamined": "BRAIN",
  "ConsistencyInfo": "N4_VE11C_LATEST_20160120",
  "ConversionSoftware": "dcm2niix",
  "ConversionSoftwareVersion": "v1.0.20190902",
  "DerivedVendorReportedEchoSpacing": 0.000580014,
  "DeviceSerialNumber": "67050",
  "DwellTime": 2.6e-06,
  "EchoTime": 0.033,
  "EchoTrainLength": 88,
  "EffectiveEchoSpacing": 0.000580014,
  "FlipAngle": 62,
  "ImageOrientationPatientDICOM": [0.998606, 0.0290735, 0.0440563, -0.0210922, 0.984895, -0.171861],
  "ImageType": [
    "ORIGINAL",
    "PRIMARY",
    "M",
    "ND",
    "MOSAIC"
],
  "ImagingFrequency": 123.251,
  "InPlanePhaseEncodingDirectionDICOM": "COL",
  "InstitutionAddress": "Olive_Street_60_Providence_RI_US_02912",
  "InstitutionName": "BROWN_UNIVERSITY_MRF",
  "InstitutionalDepartmentName": "Department",
  "MRAcquisitionType": "2D",
  "MagneticFieldStrength": 3,
  "Manufacturer": "Siemens",
  "ManufacturersModelName": "Prisma_fit",
  "Modality": "MR",
  "MultibandAccelerationFactor": 4,
  "PartialFourier": 1,
  "PatientPosition": "HFS",
  "PercentPhaseFOV": 100,
  "PhaseEncodingDirection": "j-",
  "PhaseEncodingSteps": 88,
  "PhaseResolution": 1,
  "PixelBandwidth": 2185,
  "ProcedureStepDescription": "ASHENHAV_1222",
  "ProtocolName": "func-bold_task-RDMlocalizer_run-01",
  "PulseSequenceDetails": "%SiemensSeq%_ep2d_bold",
  "ReceiveCoilActiveElements": "HC1-7",
  "ReceiveCoilName": "HeadNeck_64",
  "ReconMatrixPE": 88,
  "RefLinesPE": 8,
  "RepetitionTime": 1.2,
  "SAR": 0.0617615,
  "ScanOptions": "FS",
  "ScanningSequence": "EP",
  "SequenceName": "_epfid2d1_88",
  "SequenceVariant": "SK",
  "SeriesDescription": "func-bold_task-RDMlocalizer_run-01",
  "SeriesNumber": 19,
  "ShimSetting": [1769, -9091, 4399, 428, -70, -249, 43, 12],
  "SliceThickness": 2.4,
  "SliceTiming": [0.5525, 0, 0.63, 0.08, 0.71, 0.1575, 0.7875, 0.2375, 0.8675, 0.315, 0.945, 0.395, 1.025, 0.4725, 1.1025, 0.5525, 0, 0.63, 0.08, 0.71, 0.1575, 0.7875, 0.2375, 0.8675, 0.315, 0.945, 0.395, 1.025, 0.4725, 1.1025, 0.5525, 0, 0.63, 0.08, 0.71, 0.1575, 0.7875, 0.2375, 0.8675, 0.315, 0.945, 0.395, 1.025, 0.4725, 1.1025, 0.5525, 0, 0.63, 0.08, 0.71, 0.1575, 0.7875, 0.2375, 0.8675, 0.315, 0.945, 0.395, 1.025, 0.4725, 1.1025],
  "SoftwareVersions": "syngo_MR_E11",
  "SpacingBetweenSlices": 2.4,
  "StationName": "AWP67050",
  "TaskName": "RDMlocalizer",
  "TotalReadoutTime": 0.0504612,
  "TxRefAmp": 254.149,
  "dcmmeta_affine": [
    [-2.3943846225738525, -0.05057332664728165, 0.11612989753484726, 108.64788818359375],
    [-0.06971030682325363, 2.3615105152130127, -0.4096611440181732, -79.7043685913086],
    [0.10563502460718155, 0.4120757579803467, 2.3619253635406494, -80.73521423339844],
    [0.0, 0.0, 0.0, 1.0]
],
  "dcmmeta_reorient_transform": [
    [0.0, -1.0, 0.0, 87.0],
    [1.0, 0.0, 0.0, 0.0],
    [0.0, 0.0, 1.0, 0.0],
    [0.0, 0.0, 0.0, 1.0]
],
  "dcmmeta_shape": [88, 88, 60, 195],
  "dcmmeta_slice_dim": 2,
  "dcmmeta_version": 0.6,
  "global": {
    "const": {
      "AcquisitionMatrix": [88, 0, 0, 88],
      "AngioFlag": "N",
      "BitsAllocated": 16,
      "BitsStored": 12,
      "BodyPartExamined": "BRAIN",
      "Columns": 704,
      "DeidentificationMethodCodeSequence": [
        {
          "CodeMeaning": "XNAT DicomEdit 6 Script",
          "CodeValue": "3",
          "CodingSchemeDesignator": "XNAT",
          "CodingSchemeVersion": "1.0"}
],
      "EchoNumbers": 1,
      "EchoTime": 33.0,
      "EchoTrainLength": 88,
      "FlipAngle": 62.0,
      "HighBit": 11,
      "ImageOrientationPatient": [0.99860591488418, 0.0290734943836, 0.0440563126313, -0.0210921938825, 0.98489538727105, -0.1718609772154],
      "ImagePositionPatient": [-826.141881586, -874.56305525433, 49.499116829894],
      "ImageType": [
        "ORIGINAL",
        "PRIMARY",
        "M",
        "ND",
        "MOSAIC"
],
      "ImagedNucleus": "1H",
      "ImagingFrequency": 123.250722,
      "InPlanePhaseEncodingDirection": "COL",
      "MRAcquisitionType": "2D",
      "MagneticFieldStrength": 3.0,
      "Manufacturer": "SIEMENS",
      "ManufacturerModelName": "Prisma_fit",
      "Modality": "MR",
      "NumberOfAverages": 1.0,
      "NumberOfPhaseEncodingSteps": 88,
      "PercentPhaseFieldOfView": 100.0,
      "PercentSampling": 100.0,
      "PerformedProcedureStepStartTime": "151453.303000",
      "PhotometricInterpretation": "MONOCHROME2",
      "PixelBandwidth": 2185.0,
      "PixelRepresentation": 0,
      "PixelSpacing": [2.3977272510529, 2.3977272510529],
      "ProtocolName": "func-bold_task-RDMlocalizer_run-01",
      "RepetitionTime": 1200.0,
      "Rows": 704,
      "SAR": 0.06176153489563,
      "SamplesPerPixel": 1,
      "ScanOptions": "FS",
      "ScanningSequence": "EP",
      "SequenceName": "*epfid2d1_88",
      "SequenceVariant": "SK",
      "SeriesDescription": "func-bold_task-RDMlocalizer_run-01",
      "SeriesNumber": 19,
      "SeriesTime": "163509.229000",
      "SliceLocation": -60.592295046741,
      "SliceThickness": 2.4000000953674,
      "SmallestImagePixelValue": 0,
      "SoftwareVersions": "syngo MR E11",
      "SpacingBetweenSlices": 2.4000000129153,
      "SpecificCharacterSet": "ISO_IR 100",
      "StudyID": "1",
      "StudyTime": "151453.174000",
      "TransmitCoilName": "Body",
      "VariableFlipAngleFlag": "N",
      "WindowCenterWidthExplanation": "Algo1",
      "dBdt": 0.0},
    "slices": {}
  },
  "time": {
    "samples": {
      "AcquisitionNumber": [1, 2, 3, 4, 5, 6, 7, 8, 9, 10, 11, 12, 13, 14, 15, 16, 17, 18, 19, 20, 21, 22, 23, 24, 25, 26, 27, 28, 29, 30, 31, 32, 33, 34, 35, 36, 37, 38, 39, 40, 41, 42, 43, 44, 45, 46, 47, 48, 49, 50, 51, 52, 53, 54, 55, 56, 57, 58, 59, 60, 61, 62, 63, 64, 65, 66, 67, 68, 69, 70, 71, 72, 73, 74, 75, 76, 77, 78, 79, 80, 81, 82, 83, 84, 85, 86, 87, 88, 89, 90, 91, 92, 93, 94, 95, 96, 97, 98, 99, 100, 101, 102, 103, 104, 105, 106, 107, 108, 109, 110, 111, 112, 113, 114, 115, 116, 117, 118, 119, 120, 121, 122, 123, 124, 125, 126, 127, 128, 129, 130, 131, 132, 133, 134, 135, 136, 137, 138, 139, 140, 141, 142, 143, 144, 145, 146, 147, 148, 149, 150, 151, 152, 153, 154, 155, 156, 157, 158, 159, 160, 161, 162, 163, 164, 165, 166, 167, 168, 169, 170, 171, 172, 173, 174, 175, 176, 177, 178, 179, 180, 181, 182, 183, 184, 185, 186, 187, 188, 189, 190, 191, 192, 193, 194, 195],
      "AcquisitionTime": ["163436.937500", "163438.137500", "163439.337500", "163440.537500", "163441.737500", "163442.937500", "163444.137500", "163445.337500", "163446.537500", "163447.737500", "163448.937500", "163450.137500", "163451.337500", "163452.537500", "163453.737500", "163454.937500", "163456.137500", "163457.337500", "163458.537500", "163459.737500", "163500.937500", "163502.137500", "163503.337500", "163504.537500", "163505.737500", "163506.937500", "163508.137500", "163509.337500", "163510.537500", "163511.737500", "163512.937500", "163514.137500", "163515.337500", "163516.537500", "163517.737500", "163518.937500", "163520.137500", "163521.337500", "163522.537500", "163523.737500", "163524.937500", "163526.137500", "163527.337500", "163528.537500", "163529.737500", "163530.937500", "163532.137500", "163533.337500", "163534.537500", "163535.737500", "163536.937500", "163538.137500", "163539.337500", "163540.537500", "163541.737500", "163542.937500", "163544.137500", "163545.337500", "163546.537500", "163547.737500", "163548.937500", "163550.137500", "163551.337500", "163552.537500", "163553.737500", "163554.937500", "163556.137500", "163557.337500", "163558.537500", "163559.737500", "163600.937500", "163602.137500", "163603.337500", "163604.537500", "163605.737500", "163606.937500", "163608.137500", "163609.337500", "163610.537500", "163611.737500", "163612.937500", "163614.137500", "163615.337500", "163616.537500", "163617.737500", "163618.937500", "163620.137500", "163621.337500", "163622.537500", "163623.737500", "163624.937500", "163626.137500", "163627.337500", "163628.537500", "163629.737500", "163630.937500", "163632.137500", "163633.337500", "163634.537500", "163635.737500", "163636.937500", "163638.137500", "163639.337500", "163640.537500", "163641.737500", "163642.937500", "163644.137500", "163645.337500", "163646.537500", "163647.737500", "163648.937500", "163650.137500", "163651.337500", "163652.537500", "163653.737500", "163654.937500", "163656.137500", "163657.337500", "163658.537500", "163659.737500", "163700.937500", "163702.137500", "163703.337500", "163704.537500", "163705.737500", "163706.937500", "163708.137500", "163709.337500", "163710.537500", "163711.737500", "163712.937500", "163714.137500", "163715.337500", "163716.537500", "163717.737500", "163718.937500", "163720.137500", "163721.337500", "163722.537500", "163723.737500", "163724.937500", "163726.137500", "163727.337500", "163728.537500", "163729.737500", "163730.937500", "163732.137500", "163733.337500", "163734.537500", "163735.737500", "163736.937500", "163738.137500", "163739.337500", "163740.537500", "163741.737500", "163742.937500", "163744.137500", "163745.337500", "163746.537500", "163747.737500", "163748.937500", "163750.137500", "163751.337500", "163752.537500", "163753.737500", "163754.937500", "163756.137500", "163757.337500", "163758.537500", "163759.737500", "163800.937500", "163802.137500", "163803.337500", "163804.537500", "163805.737500", "163806.937500", "163808.137500", "163809.337500", "163810.537500", "163811.737500", "163812.937500", "163814.137500", "163815.337500", "163816.537500", "163817.737500", "163818.937500", "163820.137500", "163821.337500", "163822.537500", "163823.737500", "163824.937500", "163826.137500", "163827.337500", "163828.537500", "163829.737500"],
      "ContentTime": ["163509.232000", "163509.244000", "163509.246000", "163509.249000", "163509.251000", "163509.254000", "163509.257000", "163509.259000", "163509.262000", "163509.264000", "163509.267000", "163509.270000", "163509.272000", "163509.275000", "163509.278000", "163509.280000", "163509.283000", "163509.286000", "163509.288000", "163509.291000", "163509.293000", "163509.296000", "163509.305000", "163509.307000", "163509.310000", "163509.312000", "163549.247000", "163549.250000", "163549.253000", "163549.255000", "163549.258000", "163549.260000", "163549.263000", "163549.265000", "163549.268000", "163549.271000", "163549.273000", "163549.283000", "163549.286000", "163549.289000", "163549.291000", "163549.294000", "163549.297000", "163549.299000", "163549.302000", "163549.304000", "163549.307000", "163549.310000", "163549.312000", "163549.315000", "163549.317000", "163549.320000", "163549.323000", "163549.325000", "163549.328000", "163549.330000", "163549.333000", "163549.336000", "163549.338000", "163629.227000", "163629.230000", "163629.233000", "163629.235000", "163629.238000", "163629.241000", "163629.243000", "163629.246000", "163629.249000", "163629.251000", "163629.254000", "163629.256000", "163629.259000", "163629.262000", "163629.264000", "163629.267000", "163629.269000", "163629.272000", "163629.274000", "163629.277000", "163629.280000", "163629.282000", "163629.285000", "163629.287000", "163629.290000", "163629.292000", "163629.295000", "163629.297000", "163629.300000", "163629.303000", "163629.305000", "163629.308000", "163629.310000", "163629.313000", "163709.227000", "163709.230000", "163709.233000", "163709.236000", "163709.238000", "163709.241000", "163709.244000", "163709.246000", "163709.249000", "163709.251000", "163709.254000", "163709.256000", "163709.259000", "163709.262000", "163709.264000", "163709.267000", "163709.269000", "163709.272000", "163709.274000", "163709.277000", "163709.279000", "163709.282000", "163709.285000", "163709.287000", "163709.290000", "163709.293000", "163709.295000", "163709.298000", "163709.300000", "163709.303000", "163709.306000", "163709.308000", "163709.311000", "163729.227000", "163729.230000", "163729.233000", "163729.236000", "163729.238000", "163729.241000", "163729.243000", "163729.246000", "163729.248000", "163729.251000", "163729.254000", "163729.256000", "163729.259000", "163729.261000", "163729.264000", "163729.266000", "163729.269000", "163809.228000", "163809.230000", "163809.233000", "163809.236000", "163809.238000", "163809.241000", "163809.243000", "163809.246000", "163809.249000", "163809.251000", "163809.254000", "163809.256000", "163809.259000", "163809.261000", "163809.264000", "163809.267000", "163809.269000", "163809.272000", "163809.274000", "163809.277000", "163809.280000", "163809.282000", "163809.285000", "163809.288000", "163809.290000", "163809.293000", "163809.295000", "163809.298000", "163809.301000", "163809.303000", "163809.306000", "163809.309000", "163809.315000", "163831.672000", "163831.675000", "163831.678000", "163831.680000", "163831.683000", "163831.685000", "163831.688000", "163831.691000", "163831.694000", "163831.706000", "163831.709000", "163831.711000", "163831.714000", "163831.717000", "163831.719000", "163831.722000", "163831.725000", "163831.727000", "163831.730000"],
      "InstanceCreationTime": ["163509.232000", "163509.244000", "163509.246000", "163509.249000", "163509.251000", "163509.254000", "163509.257000", "163509.259000", "163509.262000", "163509.264000", "163509.267000", "163509.270000", "163509.272000", "163509.275000", "163509.278000", "163509.280000", "163509.283000", "163509.286000", "163509.288000", "163509.291000", "163509.293000", "163509.296000", "163509.305000", "163509.307000", "163509.310000", "163509.312000", "163549.247000", "163549.250000", "163549.253000", "163549.255000", "163549.258000", "163549.260000", "163549.263000", "163549.265000", "163549.268000", "163549.271000", "163549.273000", "163549.283000", "163549.286000", "163549.289000", "163549.291000", "163549.294000", "163549.297000", "163549.299000", "163549.302000", "163549.304000", "163549.307000", "163549.310000", "163549.312000", "163549.315000", "163549.317000", "163549.320000", "163549.323000", "163549.325000", "163549.328000", "163549.330000", "163549.333000", "163549.336000", "163549.338000", "163629.227000", "163629.230000", "163629.233000", "163629.235000", "163629.238000", "163629.241000", "163629.243000", "163629.246000", "163629.249000", "163629.251000", "163629.254000", "163629.256000", "163629.259000", "163629.262000", "163629.264000", "163629.267000", "163629.269000", "163629.272000", "163629.274000", "163629.277000", "163629.280000", "163629.282000", "163629.285000", "163629.287000", "163629.290000", "163629.292000", "163629.295000", "163629.297000", "163629.300000", "163629.303000", "163629.305000", "163629.308000", "163629.310000", "163629.313000", "163709.227000", "163709.230000", "163709.233000", "163709.236000", "163709.238000", "163709.241000", "163709.244000", "163709.246000", "163709.249000", "163709.251000", "163709.254000", "163709.256000", "163709.259000", "163709.262000", "163709.264000", "163709.267000", "163709.269000", "163709.272000", "163709.274000", "163709.277000", "163709.279000", "163709.282000", "163709.285000", "163709.287000", "163709.290000", "163709.293000", "163709.295000", "163709.298000", "163709.300000", "163709.303000", "163709.306000", "163709.308000", "163709.311000", "163729.227000", "163729.230000", "163729.233000", "163729.236000", "163729.238000", "163729.241000", "163729.243000", "163729.246000", "163729.248000", "163729.251000", "163729.254000", "163729.256000", "163729.259000", "163729.261000", "163729.264000", "163729.266000", "163729.269000", "163809.228000", "163809.230000", "163809.233000", "163809.236000", "163809.238000", "163809.241000", "163809.243000", "163809.246000", "163809.249000", "163809.251000", "163809.254000", "163809.256000", "163809.259000", "163809.261000", "163809.264000", "163809.267000", "163809.269000", "163809.272000", "163809.274000", "163809.277000", "163809.280000", "163809.282000", "163809.285000", "163809.288000", "163809.290000", "163809.293000", "163809.295000", "163809.298000", "163809.301000", "163809.303000", "163809.306000", "163809.309000", "163809.315000", "163831.672000", "163831.675000", "163831.678000", "163831.680000", "163831.683000", "163831.685000", "163831.688000", "163831.691000", "163831.694000", "163831.706000", "163831.709000", "163831.711000", "163831.714000", "163831.717000", "163831.719000", "163831.722000", "163831.725000", "163831.727000", "163831.730000"],
      "InstanceNumber": [1, 2, 3, 4, 5, 6, 7, 8, 9, 10, 11, 12, 13, 14, 15, 16, 17, 18, 19, 20, 21, 22, 23, 24, 25, 26, 27, 28, 29, 30, 31, 32, 33, 34, 35, 36, 37, 38, 39, 40, 41, 42, 43, 44, 45, 46, 47, 48, 49, 50, 51, 52, 53, 54, 55, 56, 57, 58, 59, 60, 61, 62, 63, 64, 65, 66, 67, 68, 69, 70, 71, 72, 73, 74, 75, 76, 77, 78, 79, 80, 81, 82, 83, 84, 85, 86, 87, 88, 89, 90, 91, 92, 93, 94, 95, 96, 97, 98, 99, 100, 101, 102, 103, 104, 105, 106, 107, 108, 109, 110, 111, 112, 113, 114, 115, 116, 117, 118, 119, 120, 121, 122, 123, 124, 125, 126, 127, 128, 129, 130, 131, 132, 133, 134, 135, 136, 137, 138, 139, 140, 141, 142, 143, 144, 145, 146, 147, 148, 149, 150, 151, 152, 153, 154, 155, 156, 157, 158, 159, 160, 161, 162, 163, 164, 165, 166, 167, 168, 169, 170, 171, 172, 173, 174, 175, 176, 177, 178, 179, 180, 181, 182, 183, 184, 185, 186, 187, 188, 189, 190, 191, 192, 193, 194, 195],
      "LargestImagePixelValue": [2384, 2321, 2305, 2275, 2272, 2286, 2274, 2259, 2256, 2250, 2253, 2242, 2238, 2238, 2246, 2238, 2259, 2245, 2247, 2248, 2253, 2248, 2262, 2275, 2273, 2273, 2262, 2285, 2289, 2298, 2269, 2281, 2267, 2250, 2235, 2235, 2248, 2252, 2245, 2248, 2263, 2269, 2277, 2278, 2280, 2261, 2245, 2246, 2232, 2240, 2275, 2270, 2268, 2259, 2279, 2247, 2249, 2255, 2243, 2266, 2244, 2256, 2254, 2239, 2226, 2225, 2224, 2218, 2227, 2244, 2270, 2274, 2276, 2279, 2276, 2240, 2236, 2233, 2246, 2269, 2247, 2254, 2238, 2234, 2238, 2250, 2217, 2201, 2218, 2226, 2238, 2220, 2221, 2244, 2254, 2242, 2218, 2257, 2255, 2265, 2276, 2243, 2238, 2226, 2194, 2153, 2164, 2230, 2169, 2213, 2207, 2200, 2200, 2220, 2233, 2196, 2192, 2215, 2218, 2212, 2222, 2207, 2207, 2206, 2211, 2202, 2196, 2208, 2218, 2191, 2216, 2210, 2180, 2225, 2221, 2221, 2220, 2207, 2246, 2260, 2265, 2267, 2261, 2230, 2234, 2227, 2249, 2274, 2286, 2252, 2245, 2194, 2191, 2192, 2211, 2198, 2237, 2249, 2245, 2235, 2210, 2195, 2208, 2220, 2221, 2202, 2203, 2222, 2222, 2222, 2224, 2245, 2256, 2267, 2258, 2275, 2252, 2252, 2247, 2232, 2224, 2217, 2213, 2209, 2215, 2209, 2233, 2227, 2210, 2225, 2224, 2227, 2238, 2235, 2245],
      "WindowCenter": [595.0, 592.0, 590.0, 589.0, 589.0, 589.0, 589.0, 588.0, 588.0, 588.0, 587.0, 586.0, 586.0, 585.0, 586.0, 585.0, 585.0, 586.0, 586.0, 585.0, 586.0, 586.0, 587.0, 587.0, 587.0, 587.0, 588.0, 589.0, 590.0, 589.0, 588.0, 587.0, 587.0, 587.0, 586.0, 586.0, 586.0, 586.0, 587.0, 587.0, 589.0, 590.0, 591.0, 591.0, 590.0, 589.0, 587.0, 587.0, 587.0, 587.0, 588.0, 589.0, 589.0, 589.0, 588.0, 588.0, 588.0, 587.0, 586.0, 586.0, 586.0, 586.0, 586.0, 586.0, 584.0, 584.0, 583.0, 584.0, 585.0, 586.0, 588.0, 590.0, 590.0, 589.0, 587.0, 586.0, 586.0, 587.0, 587.0, 587.0, 587.0, 586.0, 585.0, 585.0, 585.0, 585.0, 584.0, 584.0, 585.0, 585.0, 586.0, 585.0, 586.0, 587.0, 586.0, 586.0, 586.0, 588.0, 588.0, 589.0, 590.0, 588.0, 587.0, 585.0, 584.0, 583.0, 582.0, 584.0, 583.0, 585.0, 584.0, 585.0, 585.0, 585.0, 584.0, 583.0, 584.0, 584.0, 583.0, 583.0, 585.0, 584.0, 585.0, 585.0, 586.0, 586.0, 585.0, 584.0, 585.0, 585.0, 586.0, 585.0, 584.0, 584.0, 584.0, 585.0, 586.0, 587.0, 587.0, 588.0, 589.0, 588.0, 587.0, 586.0, 587.0, 587.0, 586.0, 587.0, 587.0, 587.0, 587.0, 586.0, 584.0, 584.0, 585.0, 585.0, 587.0, 588.0, 587.0, 585.0, 583.0, 583.0, 585.0, 585.0, 585.0, 584.0, 583.0, 584.0, 585.0, 586.0, 585.0, 586.0, 587.0, 588.0, 587.0, 587.0, 587.0, 587.0, 587.0, 587.0, 586.0, 585.0, 585.0, 583.0, 584.0, 584.0, 584.0, 584.0, 584.0, 584.0, 583.0, 584.0, 585.0, 585.0, 586.0],
      "WindowWidth": [1271.0, 1263.0, 1259.0, 1257.0, 1257.0, 1257.0, 1256.0, 1253.0, 1253.0, 1253.0, 1252.0, 1250.0, 1249.0, 1249.0, 1249.0, 1248.0, 1248.0, 1249.0, 1249.0, 1248.0, 1250.0, 1249.0, 1251.0, 1253.0, 1252.0, 1253.0, 1255.0, 1257.0, 1258.0, 1257.0, 1254.0, 1252.0, 1252.0, 1251.0, 1250.0, 1250.0, 1250.0, 1250.0, 1251.0, 1253.0, 1256.0, 1259.0, 1262.0, 1261.0, 1260.0, 1256.0, 1253.0, 1252.0, 1252.0, 1252.0, 1254.0, 1256.0, 1257.0, 1256.0, 1255.0, 1253.0, 1254.0, 1253.0, 1251.0, 1250.0, 1249.0, 1250.0, 1248.0, 1248.0, 1245.0, 1245.0, 1244.0, 1245.0, 1246.0, 1250.0, 1254.0, 1258.0, 1258.0, 1256.0, 1252.0, 1250.0, 1249.0, 1251.0, 1253.0, 1253.0, 1251.0, 1250.0, 1248.0, 1247.0, 1248.0, 1248.0, 1246.0, 1246.0, 1247.0, 1248.0, 1248.0, 1247.0, 1250.0, 1252.0, 1250.0, 1250.0, 1250.0, 1253.0, 1255.0, 1257.0, 1258.0, 1255.0, 1252.0, 1248.0, 1245.0, 1243.0, 1241.0, 1244.0, 1244.0, 1247.0, 1245.0, 1247.0, 1248.0, 1247.0, 1245.0, 1243.0, 1245.0, 1244.0, 1244.0, 1244.0, 1246.0, 1244.0, 1247.0, 1249.0, 1250.0, 1249.0, 1248.0, 1246.0, 1247.0, 1248.0, 1250.0, 1246.0, 1245.0, 1244.0, 1245.0, 1247.0, 1250.0, 1252.0, 1253.0, 1255.0, 1256.0, 1255.0, 1252.0, 1250.0, 1251.0, 1252.0, 1250.0, 1251.0, 1252.0, 1252.0, 1251.0, 1249.0, 1246.0, 1245.0, 1247.0, 1248.0, 1253.0, 1253.0, 1251.0, 1246.0, 1242.0, 1242.0, 1246.0, 1248.0, 1247.0, 1245.0, 1244.0, 1246.0, 1248.0, 1249.0, 1248.0, 1250.0, 1253.0, 1255.0, 1251.0, 1251.0, 1252.0, 1251.0, 1252.0, 1251.0, 1249.0, 1248.0, 1248.0, 1244.0, 1246.0, 1245.0, 1245.0, 1244.0, 1245.0, 1244.0, 1243.0, 1244.0, 1246.0, 1248.0, 1248.0]
    },
    "slices": {}
  }
}