{
  "AcquisitionMatrixPE": 88,
  "AcquisitionNumber": 1,
  "AcquisitionTime": "15:35:34.760000",
  "BandwidthPerPixelPhaseEncode": 19.592,
  "BaseResolution": 88,
  "BodyPartExamined": "BRAIN",
  "ConsistencyInfo": "N4_VE11C_LATEST_20160120",
  "ConversionSoftware": "dcm2niix",
  "ConversionSoftwareVersion": "v1.0.20190902",
  "DerivedVendorReportedEchoSpacing": 0.000580014,
  "DeviceSerialNumber": "67050",
  "DwellTime": 2.6e-06,
  "EchoTime": 0.033,
  "EchoTrainLength": 88,
  "EffectiveEchoSpacing": 0.000580014,
  "FlipAngle": 62,
  "ImageOrientationPatientDICOM": [0.998606, 0.0290735, 0.0440563, -0.0210922, 0.984895, -0.171861],
  "ImageType": [
    "ORIGINAL",
    "PRIMARY",
    "M",
    "ND",
    "MOSAIC"
],
  "ImagingFrequency": 123.251,
  "InPlanePhaseEncodingDirectionDICOM": "COL",
  "InstitutionAddress": "Olive_Street_60_Providence_RI_US_02912",
  "InstitutionName": "BROWN_UNIVERSITY_MRF",
  "InstitutionalDepartmentName": "Department",
  "MRAcquisitionType": "2D",
  "MagneticFieldStrength": 3,
  "Manufacturer": "Siemens",
  "ManufacturersModelName": "Prisma_fit",
  "Modality": "MR",
  "MultibandAccelerationFactor": 4,
  "PartialFourier": 1,
  "PatientPosition": "HFS",
  "PercentPhaseFOV": 100,
  "PhaseEncodingDirection": "j-",
  "PhaseEncodingSteps": 88,
  "PhaseResolution": 1,
  "PixelBandwidth": 2185,
  "ProcedureStepDescription": "ASHENHAV_1222",
  "ProtocolName": "func-bold_task-RDMmotion_run-02",
  "PulseSequenceDetails": "%SiemensSeq%_ep2d_bold",
  "ReceiveCoilActiveElements": "HC1-7",
  "ReceiveCoilName": "HeadNeck_64",
  "ReconMatrixPE": 88,
  "RefLinesPE": 8,
  "RepetitionTime": 1.2,
  "SAR": 0.0614351,
  "ScanOptions": "FS",
  "ScanningSequence": "EP",
  "SequenceName": "_epfid2d1_88",
  "SequenceVariant": "SK",
  "SeriesDescription": "func-bold_task-RDMmotion_run-02",
  "SeriesNumber": 9,
  "ShimSetting": [1769, -9091, 4399, 428, -70, -249, 43, 12],
  "SliceThickness": 2.4,
  "SliceTiming": [0.55, 0, 0.63, 0.0775, 0.7075, 0.1575, 0.7875, 0.235, 0.865, 0.315, 0.945, 0.3925, 1.0225, 0.4725, 1.1, 0.55, 0, 0.63, 0.0775, 0.7075, 0.1575, 0.7875, 0.235, 0.865, 0.315, 0.945, 0.3925, 1.0225, 0.4725, 1.1, 0.55, 0, 0.63, 0.0775, 0.7075, 0.1575, 0.7875, 0.235, 0.865, 0.315, 0.945, 0.3925, 1.0225, 0.4725, 1.1, 0.55, 0, 0.63, 0.0775, 0.7075, 0.1575, 0.7875, 0.235, 0.865, 0.315, 0.945, 0.3925, 1.0225, 0.4725, 1.1],
  "SoftwareVersions": "syngo_MR_E11",
  "SpacingBetweenSlices": 2.4,
  "StationName": "AWP67050",
  "TaskName": "RDMmotion",
  "TotalReadoutTime": 0.0504612,
  "TxRefAmp": 254.149,
  "dcmmeta_affine": [
    [-2.3943846225738525, -0.05057332664728165, 0.11612989753484726, 108.64788818359375],
    [-0.06971030682325363, 2.3615105152130127, -0.4096611440181732, -79.7043685913086],
    [0.10563502460718155, 0.4120757579803467, 2.3619253635406494, -80.73521423339844],
    [0.0, 0.0, 0.0, 1.0]
],
  "dcmmeta_reorient_transform": [
    [0.0, -1.0, 0.0, 87.0],
    [1.0, 0.0, 0.0, 0.0],
    [0.0, 0.0, 1.0, 0.0],
    [0.0, 0.0, 0.0, 1.0]
],
  "dcmmeta_shape": [88, 88, 60, 125],
  "dcmmeta_slice_dim": 2,
  "dcmmeta_version": 0.6,
  "global": {
    "const": {
      "AcquisitionMatrix": [88, 0, 0, 88],
      "AngioFlag": "N",
      "BitsAllocated": 16,
      "BitsStored": 12,
      "BodyPartExamined": "BRAIN",
      "Columns": 704,
      "DeidentificationMethodCodeSequence": [
        {
          "CodeMeaning": "XNAT DicomEdit 6 Script",
          "CodeValue": "3",
          "CodingSchemeDesignator": "XNAT",
          "CodingSchemeVersion": "1.0"}
],
      "EchoNumbers": 1,
      "EchoTime": 33.0,
      "EchoTrainLength": 88,
      "FlipAngle": 62.0,
      "HighBit": 11,
      "ImageOrientationPatient": [0.99860591488418, 0.0290734943836, 0.0440563126313, -0.0210921938825, 0.98489538727105, -0.1718609772154],
      "ImagePositionPatient": [-826.141881586, -874.56305525433, 49.499116829894],
      "ImageType": [
        "ORIGINAL",
        "PRIMARY",
        "M",
        "ND",
        "MOSAIC"
],
      "ImagedNucleus": "1H",
      "ImagingFrequency": 123.250703,
      "InPlanePhaseEncodingDirection": "COL",
      "MRAcquisitionType": "2D",
      "MagneticFieldStrength": 3.0,
      "Manufacturer": "SIEMENS",
      "ManufacturerModelName": "Prisma_fit",
      "Modality": "MR",
      "NumberOfAverages": 1.0,
      "NumberOfPhaseEncodingSteps": 88,
      "PercentPhaseFieldOfView": 100.0,
      "PercentSampling": 100.0,
      "PerformedProcedureStepStartTime": "151453.303000",
      "PhotometricInterpretation": "MONOCHROME2",
      "PixelBandwidth": 2185.0,
      "PixelRepresentation": 0,
      "PixelSpacing": [2.3977272510529, 2.3977272510529],
      "ProtocolName": "func-bold_task-RDMmotion_run-02",
      "RepetitionTime": 1200.0,
      "Rows": 704,
      "SAR": 0.06143510770898,
      "SamplesPerPixel": 1,
      "ScanOptions": "FS",
      "ScanningSequence": "EP",
      "SequenceName": "*epfid2d1_88",
      "SequenceVariant": "SK",
      "SeriesDescription": "func-bold_task-RDMmotion_run-02",
      "SeriesNumber": 9,
      "SeriesTime": "153612.931000",
      "SliceLocation": -60.592295046741,
      "SliceThickness": 2.4000000953674,
      "SmallestImagePixelValue": 0,
      "SoftwareVersions": "syngo MR E11",
      "SpacingBetweenSlices": 2.4000000129153,
      "SpecificCharacterSet": "ISO_IR 100",
      "StudyID": "1",
      "StudyTime": "151453.174000",
      "TransmitCoilName": "Body",
      "VariableFlipAngleFlag": "N",
      "WindowCenterWidthExplanation": "Algo1",
      "dBdt": 0.0},
    "slices": {}
  },
  "time": {
    "samples": {
      "AcquisitionNumber": [1, 2, 3, 4, 5, 6, 7, 8, 9, 10, 11, 12, 13, 14, 15, 16, 17, 18, 19, 20, 21, 22, 23, 24, 25, 26, 27, 28, 29, 30, 31, 32, 33, 34, 35, 36, 37, 38, 39, 40, 41, 42, 43, 44, 45, 46, 47, 48, 49, 50, 51, 52, 53, 54, 55, 56, 57, 58, 59, 60, 61, 62, 63, 64, 65, 66, 67, 68, 69, 70, 71, 72, 73, 74, 75, 76, 77, 78, 79, 80, 81, 82, 83, 84, 85, 86, 87, 88, 89, 90, 91, 92, 93, 94, 95, 96, 97, 98, 99, 100, 101, 102, 103, 104, 105, 106, 107, 108, 109, 110, 111, 112, 113, 114, 115, 116, 117, 118, 119, 120, 121, 122, 123, 124, 125],
      "AcquisitionTime": ["153534.760000", "153535.960000", "153537.160000", "153538.360000", "153539.560000", "153540.760000", "153541.960000", "153543.160000", "153544.360000", "153545.560000", "153546.760000", "153547.960000", "153549.160000", "153550.360000", "153551.560000", "153552.760000", "153553.960000", "153555.160000", "153556.360000", "153557.560000", "153558.760000", "153559.960000", "153601.160000", "153602.360000", "153603.560000", "153604.760000", "153605.960000", "153607.160000", "153608.360000", "153609.560000", "153610.760000", "153611.960000", "153613.160000", "153614.360000", "153615.560000", "153616.760000", "153617.960000", "153619.160000", "153620.360000", "153621.560000", "153622.760000", "153623.960000", "153625.160000", "153626.360000", "153627.560000", "153628.760000", "153629.960000", "153631.160000", "153632.360000", "153633.560000", "153634.760000", "153635.960000", "153637.160000", "153638.360000", "153639.560000", "153640.760000", "153641.960000", "153643.160000", "153644.360000", "153645.560000", "153646.760000", "153647.960000", "153649.160000", "153650.360000", "153651.560000", "153652.760000", "153653.960000", "153655.160000", "153656.360000", "153657.560000", "153658.760000", "153659.960000", "153701.160000", "153702.360000", "153703.560000", "153704.760000", "153705.960000", "153707.160000", "153708.360000", "153709.560000", "153710.760000", "153711.960000", "153713.160000", "153714.360000", "153715.560000", "153716.760000", "153717.960000", "153719.160000", "153720.360000", "153721.560000", "153722.760000", "153723.960000", "153725.160000", "153726.360000", "153727.560000", "153728.760000", "153729.960000", "153731.160000", "153732.360000", "153733.560000", "153734.760000", "153735.960000", "153737.160000", "153738.360000", "153739.560000", "153740.760000", "153741.960000", "153743.160000", "153744.360000", "153745.560000", "153746.760000", "153747.960000", "153749.160000", "153750.360000", "153751.560000", "153752.760000", "153753.960000", "153755.160000", "153756.360000", "153757.560000", "153758.760000", "153759.960000", "153801.160000", "153802.360000", "153803.560000"],
      "ContentTime": ["153612.935000", "153612.938000", "153612.941000", "153612.943000", "153612.946000", "153612.948000", "153612.951000", "153612.954000", "153612.956000", "153612.959000", "153612.970000", "153612.973000", "153612.975000", "153612.978000", "153612.981000", "153612.983000", "153612.986000", "153612.988000", "153612.998000", "153613.002000", "153613.005000", "153613.007000", "153613.010000", "153613.012000", "153613.015000", "153613.017000", "153613.020000", "153613.023000", "153613.025000", "153613.028000", "153613.030000", "153652.930000", "153652.933000", "153652.936000", "153652.938000", "153652.941000", "153652.944000", "153652.946000", "153652.949000", "153652.951000", "153652.954000", "153652.957000", "153652.959000", "153652.978000", "153652.980000", "153652.983000", "153652.985000", "153652.989000", "153652.991000", "153652.994000", "153652.996000", "153653.000000", "153653.002000", "153653.005000", "153653.007000", "153653.010000", "153653.013000", "153653.016000", "153653.019000", "153653.022000", "153653.025000", "153653.027000", "153653.030000", "153653.038000", "153732.930000", "153732.933000", "153732.935000", "153732.938000", "153732.940000", "153732.943000", "153732.945000", "153732.948000", "153732.951000", "153732.953000", "153732.956000", "153732.959000", "153732.961000", "153732.970000", "153732.994000", "153733.003000", "153733.005000", "153733.008000", "153733.010000", "153733.013000", "153733.016000", "153733.018000", "153733.021000", "153733.023000", "153733.026000", "153733.029000", "153733.031000", "153733.034000", "153733.036000", "153733.039000", "153733.041000", "153733.044000", "153733.047000", "153733.049000", "153805.108000", "153805.111000", "153805.114000", "153805.117000", "153805.120000", "153805.122000", "153805.125000", "153805.128000", "153805.131000", "153805.133000", "153805.136000", "153805.139000", "153805.141000", "153805.144000", "153805.146000", "153805.149000", "153805.152000", "153805.154000", "153805.157000", "153805.160000", "153805.162000", "153805.165000", "153805.177000", "153805.180000", "153805.183000", "153805.185000", "153805.188000"],
      "InstanceCreationTime": ["153612.935000", "153612.938000", "153612.941000", "153612.943000", "153612.946000", "153612.948000", "153612.951000", "153612.954000", "153612.956000", "153612.959000", "153612.970000", "153612.973000", "153612.975000", "153612.978000", "153612.981000", "153612.983000", "153612.986000", "153612.988000", "153612.998000", "153613.002000", "153613.005000", "153613.007000", "153613.010000", "153613.012000", "153613.015000", "153613.017000", "153613.020000", "153613.023000", "153613.025000", "153613.028000", "153613.030000", "153652.930000", "153652.933000", "153652.936000", "153652.938000", "153652.941000", "153652.944000", "153652.946000", "153652.949000", "153652.951000", "153652.954000", "153652.957000", "153652.959000", "153652.978000", "153652.980000", "153652.983000", "153652.985000", "153652.989000", "153652.991000", "153652.994000", "153652.996000", "153653.000000", "153653.002000", "153653.005000", "153653.007000", "153653.010000", "153653.013000", "153653.016000", "153653.019000", "153653.022000", "153653.025000", "153653.027000", "153653.030000", "153653.038000", "153732.930000", "153732.933000", "153732.935000", "153732.938000", "153732.940000", "153732.943000", "153732.945000", "153732.948000", "153732.951000", "153732.953000", "153732.956000", "153732.959000", "153732.961000", "153732.970000", "153732.994000", "153733.003000", "153733.005000", "153733.008000", "153733.010000", "153733.013000", "153733.016000", "153733.018000", "153733.021000", "153733.023000", "153733.026000", "153733.029000", "153733.031000", "153733.034000", "153733.036000", "153733.039000", "153733.041000", "153733.044000", "153733.047000", "153733.049000", "153805.108000", "153805.111000", "153805.114000", "153805.117000", "153805.120000", "153805.122000", "153805.125000", "153805.128000", "153805.131000", "153805.133000", "153805.136000", "153805.139000", "153805.141000", "153805.144000", "153805.146000", "153805.149000", "153805.152000", "153805.154000", "153805.157000", "153805.160000", "153805.162000", "153805.165000", "153805.177000", "153805.180000", "153805.183000", "153805.185000", "153805.188000"],
      "InstanceNumber": [1, 2, 3, 4, 5, 6, 7, 8, 9, 10, 11, 12, 13, 14, 15, 16, 17, 18, 19, 20, 21, 22, 23, 24, 25, 26, 27, 28, 29, 30, 31, 32, 33, 34, 35, 36, 37, 38, 39, 40, 41, 42, 43, 44, 45, 46, 47, 48, 49, 50, 51, 52, 53, 54, 55, 56, 57, 58, 59, 60, 61, 62, 63, 64, 65, 66, 67, 68, 69, 70, 71, 72, 73, 74, 75, 76, 77, 78, 79, 80, 81, 82, 83, 84, 85, 86, 87, 88, 89, 90, 91, 92, 93, 94, 95, 96, 97, 98, 99, 100, 101, 102, 103, 104, 105, 106, 107, 108, 109, 110, 111, 112, 113, 114, 115, 116, 117, 118, 119, 120, 121, 122, 123, 124, 125],
      "LargestImagePixelValue": [2417, 2373, 2337, 2312, 2318, 2307, 2308, 2308, 2288, 2287, 2286, 2286, 2299, 2293, 2292, 2285, 2285, 2291, 2294, 2277, 2282, 2286, 2285, 2292, 2302, 2278, 2278, 2298, 2305, 2303, 2290, 2269, 2271, 2258, 2283, 2297, 2286, 2290, 2302, 2296, 2284, 2278, 2276, 2280, 2302, 2276, 2277, 2269, 2278, 2257, 2285, 2275, 2299, 2302, 2294, 2318, 2303, 2301, 2260, 2288, 2291, 2264, 2281, 2282, 2287, 2277, 2288, 2299, 2286, 2264, 2276, 2273, 2259, 2264, 2283, 2289, 2284, 2276, 2300, 2284, 2296, 2267, 2243, 2287, 2263, 2295, 2283, 2285, 2254, 2246, 2282, 2283, 2287, 2283, 2294, 2312, 2311, 2298, 2304, 2280, 2299, 2287, 2279, 2298, 2290, 2285, 2290, 2288, 2286, 2279, 2268, 2279, 2275, 2275, 2275, 2275, 2260, 2275, 2270, 2261, 2268, 2274, 2272, 2255, 2247],
      "WindowCenter": [601.0, 597.0, 596.0, 595.0, 594.0, 593.0, 593.0, 593.0, 592.0, 592.0, 591.0, 592.0, 592.0, 592.0, 592.0, 592.0, 593.0, 592.0, 592.0, 592.0, 592.0, 592.0, 592.0, 592.0, 591.0, 590.0, 590.0, 590.0, 591.0, 591.0, 590.0, 589.0, 589.0, 589.0, 590.0, 590.0, 590.0, 591.0, 591.0, 591.0, 592.0, 592.0, 591.0, 590.0, 591.0, 591.0, 591.0, 591.0, 591.0, 592.0, 592.0, 592.0, 592.0, 593.0, 594.0, 594.0, 593.0, 592.0, 590.0, 591.0, 591.0, 591.0, 592.0, 592.0, 593.0, 593.0, 593.0, 593.0, 592.0, 592.0, 593.0, 593.0, 593.0, 592.0, 592.0, 592.0, 593.0, 594.0, 594.0, 593.0, 592.0, 591.0, 590.0, 591.0, 591.0, 592.0, 593.0, 592.0, 591.0, 590.0, 592.0, 593.0, 594.0, 594.0, 595.0, 596.0, 595.0, 594.0, 592.0, 592.0, 591.0, 591.0, 592.0, 592.0, 592.0, 592.0, 593.0, 593.0, 591.0, 591.0, 591.0, 592.0, 593.0, 592.0, 591.0, 592.0, 591.0, 592.0, 591.0, 591.0, 591.0, 591.0, 591.0, 591.0, 591.0],
      "WindowWidth": [1284.0, 1275.0, 1272.0, 1269.0, 1268.0, 1266.0, 1265.0, 1265.0, 1263.0, 1262.0, 1262.0, 1262.0, 1263.0, 1263.0, 1263.0, 1264.0, 1265.0, 1264.0, 1264.0, 1264.0, 1264.0, 1263.0, 1262.0, 1263.0, 1261.0, 1259.0, 1258.0, 1259.0, 1262.0, 1261.0, 1259.0, 1257.0, 1257.0, 1257.0, 1258.0, 1259.0, 1259.0, 1260.0, 1261.0, 1261.0, 1263.0, 1263.0, 1261.0, 1259.0, 1260.0, 1261.0, 1261.0, 1261.0, 1261.0, 1263.0, 1262.0, 1263.0, 1264.0, 1265.0, 1267.0, 1268.0, 1266.0, 1262.0, 1259.0, 1261.0, 1260.0, 1261.0, 1262.0, 1263.0, 1265.0, 1266.0, 1265.0, 1265.0, 1262.0, 1263.0, 1264.0, 1266.0, 1265.0, 1263.0, 1264.0, 1263.0, 1265.0, 1267.0, 1267.0, 1266.0, 1263.0, 1261.0, 1260.0, 1261.0, 1261.0, 1264.0, 1264.0, 1263.0, 1261.0, 1260.0, 1264.0, 1266.0, 1267.0, 1268.0, 1270.0, 1272.0, 1271.0, 1267.0, 1264.0, 1263.0, 1261.0, 1261.0, 1264.0, 1264.0, 1264.0, 1263.0, 1264.0, 1266.0, 1261.0, 1261.0, 1260.0, 1263.0, 1265.0, 1264.0, 1262.0, 1262.0, 1262.0, 1262.0, 1261.0, 1260.0, 1260.0, 1261.0, 1261.0, 1261.0, 1260.0]
    },
    "slices": {}
  }
}