{
  "AcquisitionMatrixPE": 88,
  "AcquisitionNumber": 1,
  "AcquisitionTime": "15:59:6.780000",
  "BandwidthPerPixelPhaseEncode": 19.592,
  "BaseResolution": 88,
  "BodyPartExamined": "BRAIN",
  "ConsistencyInfo": "N4_VE11C_LATEST_20160120",
  "ConversionSoftware": "dcm2niix",
  "ConversionSoftwareVersion": "v1.0.20190902",
  "DerivedVendorReportedEchoSpacing": 0.000580014,
  "DeviceSerialNumber": "67050",
  "DwellTime": 2.6e-06,
  "EchoTime": 0.033,
  "EchoTrainLength": 88,
  "EffectiveEchoSpacing": 0.000580014,
  "FlipAngle": 62,
  "ImageOrientationPatientDICOM": [0.998606, 0.0290735, 0.0440563, -0.0210922, 0.984895, -0.171861],
  "ImageType": [
    "ORIGINAL",
    "PRIMARY",
    "M",
    "ND",
    "MOSAIC"
],
  "ImagingFrequency": 123.251,
  "InPlanePhaseEncodingDirectionDICOM": "COL",
  "InstitutionAddress": "Olive_Street_60_Providence_RI_US_02912",
  "InstitutionName": "BROWN_UNIVERSITY_MRF",
  "InstitutionalDepartmentName": "Department",
  "MRAcquisitionType": "2D",
  "MagneticFieldStrength": 3,
  "Manufacturer": "Siemens",
  "ManufacturersModelName": "Prisma_fit",
  "Modality": "MR",
  "MultibandAccelerationFactor": 4,
  "PartialFourier": 1,
  "PatientPosition": "HFS",
  "PercentPhaseFOV": 100,
  "PhaseEncodingDirection": "j-",
  "PhaseEncodingSteps": 88,
  "PhaseResolution": 1,
  "PixelBandwidth": 2185,
  "ProcedureStepDescription": "ASHENHAV_1222",
  "ProtocolName": "func-bold_task-RDMmotion_run-04",
  "PulseSequenceDetails": "%SiemensSeq%_ep2d_bold",
  "ReceiveCoilActiveElements": "HC1-7",
  "ReceiveCoilName": "HeadNeck_64",
  "ReconMatrixPE": 88,
  "RefLinesPE": 8,
  "RepetitionTime": 1.2,
  "SAR": 0.0614351,
  "ScanOptions": "FS",
  "ScanningSequence": "EP",
  "SequenceName": "_epfid2d1_88",
  "SequenceVariant": "SK",
  "SeriesDescription": "func-bold_task-RDMmotion_run-04",
  "SeriesNumber": 13,
  "ShimSetting": [1769, -9091, 4399, 428, -70, -249, 43, 12],
  "SliceThickness": 2.4,
  "SliceTiming": [0.55, 0, 0.6275, 0.0775, 0.7075, 0.1575, 0.785, 0.235, 0.865, 0.3125, 0.9425, 0.3925, 1.0225, 0.47, 1.1, 0.55, 0, 0.6275, 0.0775, 0.7075, 0.1575, 0.785, 0.235, 0.865, 0.3125, 0.9425, 0.3925, 1.0225, 0.47, 1.1, 0.55, 0, 0.6275, 0.0775, 0.7075, 0.1575, 0.785, 0.235, 0.865, 0.3125, 0.9425, 0.3925, 1.0225, 0.47, 1.1, 0.55, 0, 0.6275, 0.0775, 0.7075, 0.1575, 0.785, 0.235, 0.865, 0.3125, 0.9425, 0.3925, 1.0225, 0.47, 1.1],
  "SoftwareVersions": "syngo_MR_E11",
  "SpacingBetweenSlices": 2.4,
  "StationName": "AWP67050",
  "TaskName": "RDMmotion",
  "TotalReadoutTime": 0.0504612,
  "TxRefAmp": 254.149,
  "dcmmeta_affine": [
    [-2.3943846225738525, -0.05057332664728165, 0.11612989753484726, 108.64788818359375],
    [-0.06971030682325363, 2.3615105152130127, -0.4096611440181732, -79.7043685913086],
    [0.10563502460718155, 0.4120757579803467, 2.3619253635406494, -80.73521423339844],
    [0.0, 0.0, 0.0, 1.0]
],
  "dcmmeta_reorient_transform": [
    [0.0, -1.0, 0.0, 87.0],
    [1.0, 0.0, 0.0, 0.0],
    [0.0, 0.0, 1.0, 0.0],
    [0.0, 0.0, 0.0, 1.0]
],
  "dcmmeta_shape": [88, 88, 60, 125],
  "dcmmeta_slice_dim": 2,
  "dcmmeta_version": 0.6,
  "global": {
    "const": {
      "AcquisitionMatrix": [88, 0, 0, 88],
      "AngioFlag": "N",
      "BitsAllocated": 16,
      "BitsStored": 12,
      "BodyPartExamined": "BRAIN",
      "Columns": 704,
      "DeidentificationMethodCodeSequence": [
        {
          "CodeMeaning": "XNAT DicomEdit 6 Script",
          "CodeValue": "3",
          "CodingSchemeDesignator": "XNAT",
          "CodingSchemeVersion": "1.0"}
],
      "EchoNumbers": 1,
      "EchoTime": 33.0,
      "EchoTrainLength": 88,
      "FlipAngle": 62.0,
      "HighBit": 11,
      "ImageOrientationPatient": [0.99860591488418, 0.0290734943836, 0.0440563126313, -0.0210921938825, 0.98489538727105, -0.1718609772154],
      "ImagePositionPatient": [-826.141881586, -874.56305525433, 49.499116829894],
      "ImageType": [
        "ORIGINAL",
        "PRIMARY",
        "M",
        "ND",
        "MOSAIC"
],
      "ImagedNucleus": "1H",
      "ImagingFrequency": 123.250713,
      "InPlanePhaseEncodingDirection": "COL",
      "MRAcquisitionType": "2D",
      "MagneticFieldStrength": 3.0,
      "Manufacturer": "SIEMENS",
      "ManufacturerModelName": "Prisma_fit",
      "Modality": "MR",
      "NumberOfAverages": 1.0,
      "NumberOfPhaseEncodingSteps": 88,
      "PercentPhaseFieldOfView": 100.0,
      "PercentSampling": 100.0,
      "PerformedProcedureStepStartTime": "151453.303000",
      "PhotometricInterpretation": "MONOCHROME2",
      "PixelBandwidth": 2185.0,
      "PixelRepresentation": 0,
      "PixelSpacing": [2.3977272510529, 2.3977272510529],
      "ProtocolName": "func-bold_task-RDMmotion_run-04",
      "RepetitionTime": 1200.0,
      "Rows": 704,
      "SAR": 0.06143510770898,
      "SamplesPerPixel": 1,
      "ScanOptions": "FS",
      "ScanningSequence": "EP",
      "SequenceName": "*epfid2d1_88",
      "SequenceVariant": "SK",
      "SeriesDescription": "func-bold_task-RDMmotion_run-04",
      "SeriesNumber": 13,
      "SeriesTime": "155949.229000",
      "SliceLocation": -60.592295046741,
      "SliceThickness": 2.4000000953674,
      "SmallestImagePixelValue": 0,
      "SoftwareVersions": "syngo MR E11",
      "SpacingBetweenSlices": 2.4000000129153,
      "SpecificCharacterSet": "ISO_IR 100",
      "StudyID": "1",
      "StudyTime": "151453.174000",
      "TransmitCoilName": "Body",
      "VariableFlipAngleFlag": "N",
      "WindowCenterWidthExplanation": "Algo1",
      "dBdt": 0.0},
    "slices": {}
  },
  "time": {
    "samples": {
      "AcquisitionNumber": [1, 2, 3, 4, 5, 6, 7, 8, 9, 10, 11, 12, 13, 14, 15, 16, 17, 18, 19, 20, 21, 22, 23, 24, 25, 26, 27, 28, 29, 30, 31, 32, 33, 34, 35, 36, 37, 38, 39, 40, 41, 42, 43, 44, 45, 46, 47, 48, 49, 50, 51, 52, 53, 54, 55, 56, 57, 58, 59, 60, 61, 62, 63, 64, 65, 66, 67, 68, 69, 70, 71, 72, 73, 74, 75, 76, 77, 78, 79, 80, 81, 82, 83, 84, 85, 86, 87, 88, 89, 90, 91, 92, 93, 94, 95, 96, 97, 98, 99, 100, 101, 102, 103, 104, 105, 106, 107, 108, 109, 110, 111, 112, 113, 114, 115, 116, 117, 118, 119, 120, 121, 122, 123, 124, 125],
      "AcquisitionTime": ["155906.780000", "155907.980000", "155909.180000", "155910.380000", "155911.580000", "155912.780000", "155913.980000", "155915.180000", "155916.380000", "155917.580000", "155918.780000", "155919.980000", "155921.180000", "155922.380000", "155923.580000", "155924.780000", "155925.980000", "155927.180000", "155928.380000", "155929.580000", "155930.780000", "155931.980000", "155933.180000", "155934.380000", "155935.580000", "155936.780000", "155937.980000", "155939.180000", "155940.380000", "155941.580000", "155942.780000", "155943.980000", "155945.180000", "155946.380000", "155947.580000", "155948.780000", "155949.980000", "155951.180000", "155952.380000", "155953.580000", "155954.780000", "155955.980000", "155957.180000", "155958.380000", "155959.580000", "160000.780000", "160001.980000", "160003.180000", "160004.380000", "160005.580000", "160006.780000", "160007.980000", "160009.180000", "160010.380000", "160011.580000", "160012.780000", "160013.980000", "160015.180000", "160016.380000", "160017.580000", "160018.780000", "160019.980000", "160021.180000", "160022.380000", "160023.580000", "160024.780000", "160025.980000", "160027.180000", "160028.380000", "160029.580000", "160030.780000", "160031.980000", "160033.180000", "160034.380000", "160035.580000", "160036.780000", "160037.980000", "160039.180000", "160040.380000", "160041.580000", "160042.780000", "160043.980000", "160045.180000", "160046.380000", "160047.580000", "160048.780000", "160049.980000", "160051.180000", "160052.380000", "160053.580000", "160054.780000", "160055.980000", "160057.180000", "160058.380000", "160059.580000", "160100.780000", "160101.980000", "160103.180000", "160104.380000", "160105.580000", "160106.780000", "160107.980000", "160109.180000", "160110.380000", "160111.580000", "160112.780000", "160113.980000", "160115.180000", "160116.380000", "160117.580000", "160118.780000", "160119.980000", "160121.180000", "160122.380000", "160123.580000", "160124.780000", "160125.980000", "160127.180000", "160128.380000", "160129.580000", "160130.780000", "160131.980000", "160133.180000", "160134.380000", "160135.580000"],
      "ContentTime": ["155949.232000", "155949.235000", "155949.238000", "155949.240000", "155949.243000", "155949.246000", "155949.248000", "155949.251000", "155949.253000", "155949.256000", "155949.258000", "155949.261000", "155949.264000", "155949.266000", "155949.269000", "155949.271000", "155949.274000", "155949.276000", "155949.279000", "155949.282000", "155949.284000", "155949.287000", "155949.289000", "155949.292000", "155949.294000", "155949.297000", "155949.299000", "155949.302000", "155949.315000", "155949.317000", "155949.320000", "155949.322000", "155949.325000", "155949.327000", "155949.330000", "160029.227000", "160029.230000", "160029.240000", "160029.243000", "160029.245000", "160029.248000", "160029.251000", "160029.253000", "160029.256000", "160029.258000", "160029.261000", "160029.263000", "160029.266000", "160029.269000", "160029.271000", "160029.274000", "160029.276000", "160029.279000", "160029.282000", "160029.284000", "160029.287000", "160029.289000", "160029.292000", "160029.294000", "160029.297000", "160029.300000", "160029.302000", "160029.305000", "160029.307000", "160029.310000", "160029.313000", "160029.315000", "160029.318000", "160109.228000", "160109.230000", "160109.233000", "160109.243000", "160109.261000", "160109.263000", "160109.266000", "160109.268000", "160109.271000", "160109.274000", "160109.276000", "160109.279000", "160109.281000", "160109.284000", "160109.287000", "160109.289000", "160109.292000", "160109.294000", "160109.297000", "160109.299000", "160109.302000", "160109.304000", "160109.307000", "160109.310000", "160109.312000", "160109.315000", "160109.317000", "160109.320000", "160109.322000", "160109.325000", "160109.328000", "160109.330000", "160109.333000", "160109.335000", "160136.825000", "160136.828000", "160136.831000", "160136.833000", "160136.836000", "160136.838000", "160136.841000", "160136.844000", "160136.846000", "160136.849000", "160136.851000", "160136.854000", "160136.857000", "160136.859000", "160136.862000", "160136.865000", "160136.867000", "160136.870000", "160136.872000", "160136.875000", "160136.878000", "160136.880000", "160136.883000"],
      "InstanceCreationTime": ["155949.232000", "155949.235000", "155949.238000", "155949.240000", "155949.243000", "155949.246000", "155949.248000", "155949.251000", "155949.253000", "155949.256000", "155949.258000", "155949.261000", "155949.264000", "155949.266000", "155949.269000", "155949.271000", "155949.274000", "155949.276000", "155949.279000", "155949.282000", "155949.284000", "155949.287000", "155949.289000", "155949.292000", "155949.294000", "155949.297000", "155949.299000", "155949.302000", "155949.315000", "155949.317000", "155949.320000", "155949.322000", "155949.325000", "155949.327000", "155949.330000", "160029.227000", "160029.230000", "160029.240000", "160029.243000", "160029.245000", "160029.248000", "160029.251000", "160029.253000", "160029.256000", "160029.258000", "160029.261000", "160029.263000", "160029.266000", "160029.269000", "160029.271000", "160029.274000", "160029.276000", "160029.279000", "160029.282000", "160029.284000", "160029.287000", "160029.289000", "160029.292000", "160029.294000", "160029.297000", "160029.300000", "160029.302000", "160029.305000", "160029.307000", "160029.310000", "160029.313000", "160029.315000", "160029.318000", "160109.228000", "160109.230000", "160109.233000", "160109.243000", "160109.261000", "160109.263000", "160109.266000", "160109.268000", "160109.271000", "160109.274000", "160109.276000", "160109.279000", "160109.281000", "160109.284000", "160109.287000", "160109.289000", "160109.292000", "160109.294000", "160109.297000", "160109.299000", "160109.302000", "160109.304000", "160109.307000", "160109.310000", "160109.312000", "160109.315000", "160109.317000", "160109.320000", "160109.322000", "160109.325000", "160109.328000", "160109.330000", "160109.333000", "160109.335000", "160136.825000", "160136.828000", "160136.831000", "160136.833000", "160136.836000", "160136.838000", "160136.841000", "160136.844000", "160136.846000", "160136.849000", "160136.851000", "160136.854000", "160136.857000", "160136.859000", "160136.862000", "160136.865000", "160136.867000", "160136.870000", "160136.872000", "160136.875000", "160136.878000", "160136.880000", "160136.883000"],
      "InstanceNumber": [1, 2, 3, 4, 5, 6, 7, 8, 9, 10, 11, 12, 13, 14, 15, 16, 17, 18, 19, 20, 21, 22, 23, 24, 25, 26, 27, 28, 29, 30, 31, 32, 33, 34, 35, 36, 37, 38, 39, 40, 41, 42, 43, 44, 45, 46, 47, 48, 49, 50, 51, 52, 53, 54, 55, 56, 57, 58, 59, 60, 61, 62, 63, 64, 65, 66, 67, 68, 69, 70, 71, 72, 73, 74, 75, 76, 77, 78, 79, 80, 81, 82, 83, 84, 85, 86, 87, 88, 89, 90, 91, 92, 93, 94, 95, 96, 97, 98, 99, 100, 101, 102, 103, 104, 105, 106, 107, 108, 109, 110, 111, 112, 113, 114, 115, 116, 117, 118, 119, 120, 121, 122, 123, 124, 125],
      "LargestImagePixelValue": [2488, 2431, 2365, 2343, 2345, 2352, 2358, 2339, 2346, 2350, 2315, 2326, 2348, 2344, 2337, 2341, 2314, 2329, 2316, 2310, 2334, 2340, 2331, 2325, 2334, 2378, 2318, 2344, 2352, 2339, 2348, 2348, 2345, 2340, 2352, 2362, 2340, 2360, 2347, 2354, 2372, 2359, 2360, 2357, 2352, 2361, 2352, 2363, 2363, 2375, 2359, 2364, 2360, 2358, 2365, 2345, 2366, 2361, 2373, 2356, 2364, 2367, 2370, 2361, 2352, 2360, 2339, 2372, 2360, 2389, 2378, 2338, 2338, 2370, 2346, 2362, 2373, 2357, 2357, 2361, 2357, 2314, 2332, 2335, 2362, 2355, 2360, 2367, 2340, 2352, 2355, 2362, 2353, 2375, 2353, 2346, 2336, 2369, 2357, 2325, 2324, 2340, 2369, 2349, 2341, 2348, 2327, 2335, 2323, 2336, 2311, 2327, 2345, 2331, 2345, 2338, 2354, 2327, 2333, 2313, 2321, 2312, 2315, 2306, 2290],
      "WindowCenter": [599.0, 595.0, 592.0, 592.0, 592.0, 592.0, 592.0, 592.0, 593.0, 593.0, 593.0, 594.0, 594.0, 595.0, 594.0, 593.0, 593.0, 593.0, 593.0, 592.0, 593.0, 593.0, 594.0, 593.0, 592.0, 593.0, 593.0, 594.0, 594.0, 595.0, 593.0, 592.0, 592.0, 591.0, 592.0, 593.0, 593.0, 592.0, 592.0, 591.0, 592.0, 592.0, 592.0, 591.0, 591.0, 591.0, 592.0, 591.0, 591.0, 592.0, 593.0, 592.0, 592.0, 592.0, 593.0, 592.0, 592.0, 592.0, 592.0, 593.0, 593.0, 594.0, 596.0, 594.0, 593.0, 592.0, 592.0, 593.0, 593.0, 594.0, 594.0, 592.0, 591.0, 593.0, 592.0, 593.0, 592.0, 592.0, 592.0, 592.0, 592.0, 590.0, 590.0, 591.0, 592.0, 593.0, 593.0, 592.0, 592.0, 592.0, 592.0, 593.0, 594.0, 594.0, 593.0, 592.0, 591.0, 592.0, 593.0, 592.0, 590.0, 592.0, 594.0, 594.0, 595.0, 593.0, 592.0, 592.0, 591.0, 591.0, 591.0, 591.0, 590.0, 590.0, 590.0, 590.0, 590.0, 589.0, 589.0, 590.0, 590.0, 590.0, 590.0, 589.0, 590.0],
      "WindowWidth": [1281.0, 1271.0, 1264.0, 1263.0, 1263.0, 1263.0, 1263.0, 1262.0, 1264.0, 1265.0, 1265.0, 1267.0, 1268.0, 1268.0, 1267.0, 1266.0, 1264.0, 1265.0, 1265.0, 1264.0, 1265.0, 1266.0, 1267.0, 1265.0, 1263.0, 1266.0, 1265.0, 1267.0, 1268.0, 1269.0, 1265.0, 1262.0, 1262.0, 1262.0, 1263.0, 1265.0, 1265.0, 1263.0, 1262.0, 1260.0, 1262.0, 1263.0, 1263.0, 1261.0, 1261.0, 1261.0, 1262.0, 1261.0, 1261.0, 1263.0, 1264.0, 1264.0, 1263.0, 1263.0, 1265.0, 1262.0, 1263.0, 1262.0, 1262.0, 1264.0, 1266.0, 1268.0, 1271.0, 1267.0, 1265.0, 1263.0, 1262.0, 1264.0, 1266.0, 1268.0, 1267.0, 1264.0, 1261.0, 1263.0, 1263.0, 1264.0, 1263.0, 1262.0, 1262.0, 1262.0, 1261.0, 1257.0, 1258.0, 1261.0, 1264.0, 1265.0, 1264.0, 1262.0, 1262.0, 1262.0, 1262.0, 1265.0, 1267.0, 1267.0, 1265.0, 1262.0, 1261.0, 1263.0, 1264.0, 1262.0, 1259.0, 1262.0, 1266.0, 1268.0, 1269.0, 1265.0, 1261.0, 1261.0, 1260.0, 1261.0, 1260.0, 1260.0, 1258.0, 1259.0, 1259.0, 1258.0, 1259.0, 1256.0, 1256.0, 1257.0, 1258.0, 1258.0, 1257.0, 1256.0, 1259.0]
    },
    "slices": {}
  }
}