{
  "AcquisitionMatrixPE": 88,
  "AcquisitionNumber": 1,
  "AcquisitionTime": "16:34:18.020000",
  "BandwidthPerPixelPhaseEncode": 19.592,
  "BaseResolution": 88,
  "BodyPartExamined": "BRAIN",
  "ConsistencyInfo": "N4_VE11C_LATEST_20160120",
  "ConversionSoftware": "dcm2niix",
  "ConversionSoftwareVersion": "v1.0.20190902",
  "DerivedVendorReportedEchoSpacing": 0.000580014,
  "DeviceSerialNumber": "67050",
  "DwellTime": 2.6e-06,
  "EchoTime": 0.033,
  "EchoTrainLength": 88,
  "EffectiveEchoSpacing": 0.000580014,
  "FlipAngle": 62,
  "ImageOrientationPatientDICOM": [0.996601, 0.014862, 0.081029, -0.0114805, 0.99905, -0.0420397],
  "ImageType": [
    "ORIGINAL",
    "PRIMARY",
    "M",
    "ND",
    "MOSAIC"
],
  "ImagingFrequency": 123.251,
  "InPlanePhaseEncodingDirectionDICOM": "COL",
  "InstitutionAddress": "Olive_Street_60_Providence_RI_US_02912",
  "InstitutionName": "BROWN_UNIVERSITY_MRF",
  "InstitutionalDepartmentName": "Department",
  "MRAcquisitionType": "2D",
  "MagneticFieldStrength": 3,
  "Manufacturer": "Siemens",
  "ManufacturersModelName": "Prisma_fit",
  "Modality": "MR",
  "MultibandAccelerationFactor": 4,
  "PartialFourier": 1,
  "PatientPosition": "HFS",
  "PercentPhaseFOV": 100,
  "PhaseEncodingDirection": "j-",
  "PhaseEncodingSteps": 88,
  "PhaseResolution": 1,
  "PixelBandwidth": 2185,
  "ProcedureStepDescription": "ASHENHAV_1222",
  "ProtocolName": "func-bold_task-RDMlocalizer_run-01",
  "PulseSequenceDetails": "%SiemensSeq%_ep2d_bold",
  "ReceiveCoilActiveElements": "HC1-7",
  "ReceiveCoilName": "HeadNeck_64",
  "ReconMatrixPE": 88,
  "RefLinesPE": 8,
  "RepetitionTime": 1.2,
  "SAR": 0.0504328,
  "ScanOptions": "FS",
  "ScanningSequence": "EP",
  "SequenceName": "_epfid2d1_88",
  "SequenceVariant": "SK",
  "SeriesDescription": "func-bold_task-RDMlocalizer_run-01",
  "SeriesNumber": 19,
  "ShimSetting": [1777, -9075, 4423, 477, -157, -280, 45, 0],
  "SliceThickness": 2.4,
  "SliceTiming": [0.55, 0, 0.63, 0.08, 0.7075, 0.1575, 0.7875, 0.2375, 0.865, 0.315, 0.945, 0.3925, 1.0225, 0.4725, 1.1025, 0.55, 0, 0.63, 0.08, 0.7075, 0.1575, 0.7875, 0.2375, 0.865, 0.315, 0.945, 0.3925, 1.0225, 0.4725, 1.1025, 0.55, 0, 0.63, 0.08, 0.7075, 0.1575, 0.7875, 0.2375, 0.865, 0.315, 0.945, 0.3925, 1.0225, 0.4725, 1.1025, 0.55, 0, 0.63, 0.08, 0.7075, 0.1575, 0.7875, 0.2375, 0.865, 0.315, 0.945, 0.3925, 1.0225, 0.4725, 1.1025],
  "SoftwareVersions": "syngo_MR_E11",
  "SpacingBetweenSlices": 2.4,
  "StationName": "AWP67050",
  "TaskName": "RDMlocalizer",
  "TotalReadoutTime": 0.0504612,
  "TxRefAmp": 236.972,
  "dcmmeta_affine": [
    [-2.3895771503448486, -0.027527064085006714, 0.195784330368042, 102.752685546875],
    [-0.03563505411148071, 2.39544939994812, -0.09831973165273666, -92.75927734375],
    [0.19428542256355286, 0.10079973936080933, 2.389979362487793, -86.37842559814453],
    [0.0, 0.0, 0.0, 1.0]
],
  "dcmmeta_reorient_transform": [
    [0.0, -1.0, 0.0, 87.0],
    [1.0, 0.0, 0.0, 0.0],
    [0.0, 0.0, 1.0, 0.0],
    [0.0, 0.0, 0.0, 1.0]
],
  "dcmmeta_shape": [88, 88, 60, 195],
  "dcmmeta_slice_dim": 2,
  "dcmmeta_version": 0.6,
  "global": {
    "const": {
      "AcquisitionMatrix": [88, 0, 0, 88],
      "AngioFlag": "N",
      "BitsAllocated": 16,
      "BitsStored": 12,
      "BodyPartExamined": "BRAIN",
      "Columns": 704,
      "DeidentificationMethodCodeSequence": [
        {
          "CodeMeaning": "XNAT DicomEdit 6 Script",
          "CodeValue": "3",
          "CodingSchemeDesignator": "XNAT",
          "CodingSchemeVersion": "1.0"}
],
      "EchoNumbers": 1,
      "EchoTime": 33.0,
      "EchoTrainLength": 88,
      "FlipAngle": 62.0,
      "HighBit": 11,
      "ImageOrientationPatient": [0.99660093492524, 0.0148620130788, 0.08102898909271, -0.011480482122, 0.99904997967526, -0.0420397031521],
      "ImagePositionPatient": [-827.8692774452, -864.41881814517, -106.40243280549],
      "ImageType": [
        "ORIGINAL",
        "PRIMARY",
        "M",
        "ND",
        "MOSAIC"
],
      "ImagedNucleus": "1H",
      "ImagingFrequency": 123.250699,
      "InPlanePhaseEncodingDirection": "COL",
      "MRAcquisitionType": "2D",
      "MagneticFieldStrength": 3.0,
      "Manufacturer": "SIEMENS",
      "ManufacturerModelName": "Prisma_fit",
      "Modality": "MR",
      "NumberOfAverages": 1.0,
      "NumberOfPhaseEncodingSteps": 88,
      "PercentPhaseFieldOfView": 100.0,
      "PercentSampling": 100.0,
      "PerformedProcedureStepStartTime": "145313.809000",
      "PhotometricInterpretation": "MONOCHROME2",
      "PixelBandwidth": 2185.0,
      "PixelRepresentation": 0,
      "PixelSpacing": [2.3977272510529, 2.3977272510529],
      "ProtocolName": "func-bold_task-RDMlocalizer_run-01",
      "RepetitionTime": 1200.0,
      "Rows": 704,
      "SAR": 0.05043280177103,
      "SamplesPerPixel": 1,
      "ScanOptions": "FS",
      "ScanningSequence": "EP",
      "SequenceName": "*epfid2d1_88",
      "SequenceVariant": "SK",
      "SeriesDescription": "func-bold_task-RDMlocalizer_run-01",
      "SeriesNumber": 19,
      "SeriesTime": "163457.522000",
      "SliceLocation": -73.835509203022,
      "SliceThickness": 2.4000000953674,
      "SmallestImagePixelValue": 0,
      "SoftwareVersions": "syngo MR E11",
      "SpacingBetweenSlices": 2.4000000347878,
      "SpecificCharacterSet": "ISO_IR 100",
      "StudyID": "1",
      "StudyTime": "145313.737000",
      "TransmitCoilName": "Body",
      "VariableFlipAngleFlag": "N",
      "WindowCenterWidthExplanation": "Algo1",
      "dBdt": 0.0},
    "slices": {}
  },
  "time": {
    "samples": {
      "AcquisitionNumber": [1, 2, 3, 4, 5, 6, 7, 8, 9, 10, 11, 12, 13, 14, 15, 16, 17, 18, 19, 20, 21, 22, 23, 24, 25, 26, 27, 28, 29, 30, 31, 32, 33, 34, 35, 36, 37, 38, 39, 40, 41, 42, 43, 44, 45, 46, 47, 48, 49, 50, 51, 52, 53, 54, 55, 56, 57, 58, 59, 60, 61, 62, 63, 64, 65, 66, 67, 68, 69, 70, 71, 72, 73, 74, 75, 76, 77, 78, 79, 80, 81, 82, 83, 84, 85, 86, 87, 88, 89, 90, 91, 92, 93, 94, 95, 96, 97, 98, 99, 100, 101, 102, 103, 104, 105, 106, 107, 108, 109, 110, 111, 112, 113, 114, 115, 116, 117, 118, 119, 120, 121, 122, 123, 124, 125, 126, 127, 128, 129, 130, 131, 132, 133, 134, 135, 136, 137, 138, 139, 140, 141, 142, 143, 144, 145, 146, 147, 148, 149, 150, 151, 152, 153, 154, 155, 156, 157, 158, 159, 160, 161, 162, 163, 164, 165, 166, 167, 168, 169, 170, 171, 172, 173, 174, 175, 176, 177, 178, 179, 180, 181, 182, 183, 184, 185, 186, 187, 188, 189, 190, 191, 192, 193, 194, 195],
      "AcquisitionTime": ["163418.020000", "163419.220000", "163420.420000", "163421.620000", "163422.820000", "163424.020000", "163425.220000", "163426.420000", "163427.620000", "163428.820000", "163430.020000", "163431.220000", "163432.420000", "163433.620000", "163434.820000", "163436.020000", "163437.220000", "163438.420000", "163439.620000", "163440.820000", "163442.020000", "163443.220000", "163444.420000", "163445.620000", "163446.820000", "163448.020000", "163449.220000", "163450.420000", "163451.620000", "163452.820000", "163454.020000", "163455.220000", "163456.420000", "163457.620000", "163458.820000", "163500.020000", "163501.220000", "163502.420000", "163503.620000", "163504.820000", "163506.020000", "163507.220000", "163508.420000", "163509.620000", "163510.820000", "163512.020000", "163513.220000", "163514.420000", "163515.620000", "163516.820000", "163518.020000", "163519.220000", "163520.420000", "163521.620000", "163522.820000", "163524.020000", "163525.220000", "163526.420000", "163527.620000", "163528.820000", "163530.020000", "163531.220000", "163532.420000", "163533.620000", "163534.820000", "163536.020000", "163537.220000", "163538.420000", "163539.620000", "163540.820000", "163542.020000", "163543.220000", "163544.420000", "163545.620000", "163546.820000", "163548.020000", "163549.220000", "163550.420000", "163551.620000", "163552.820000", "163554.020000", "163555.220000", "163556.420000", "163557.620000", "163558.820000", "163600.020000", "163601.220000", "163602.420000", "163603.620000", "163604.820000", "163606.020000", "163607.220000", "163608.420000", "163609.620000", "163610.820000", "163612.020000", "163613.220000", "163614.420000", "163615.620000", "163616.820000", "163618.020000", "163619.220000", "163620.420000", "163621.620000", "163622.820000", "163624.020000", "163625.220000", "163626.420000", "163627.620000", "163628.820000", "163630.020000", "163631.220000", "163632.420000", "163633.620000", "163634.820000", "163636.020000", "163637.220000", "163638.420000", "163639.620000", "163640.820000", "163642.020000", "163643.220000", "163644.420000", "163645.620000", "163646.820000", "163648.020000", "163649.220000", "163650.420000", "163651.620000", "163652.820000", "163654.020000", "163655.220000", "163656.420000", "163657.620000", "163658.820000", "163700.020000", "163701.220000", "163702.420000", "163703.620000", "163704.820000", "163706.020000", "163707.220000", "163708.420000", "163709.620000", "163710.820000", "163712.020000", "163713.220000", "163714.420000", "163715.620000", "163716.820000", "163718.020000", "163719.220000", "163720.420000", "163721.620000", "163722.820000", "163724.020000", "163725.220000", "163726.420000", "163727.620000", "163728.820000", "163730.020000", "163731.220000", "163732.420000", "163733.620000", "163734.820000", "163736.020000", "163737.220000", "163738.420000", "163739.620000", "163740.820000", "163742.020000", "163743.220000", "163744.420000", "163745.620000", "163746.820000", "163748.020000", "163749.220000", "163750.420000", "163751.620000", "163752.820000", "163754.020000", "163755.220000", "163756.420000", "163757.620000", "163758.820000", "163800.020000", "163801.220000", "163802.420000", "163803.620000", "163804.820000", "163806.020000", "163807.220000", "163808.420000", "163809.620000", "163810.820000"],
      "ContentTime": ["163457.525000", "163457.536000", "163457.538000", "163457.541000", "163457.553000", "163457.556000", "163457.559000", "163457.561000", "163457.564000", "163457.567000", "163457.569000", "163457.572000", "163457.577000", "163457.580000", "163457.582000", "163457.585000", "163457.588000", "163457.590000", "163457.593000", "163457.595000", "163457.598000", "163457.601000", "163457.603000", "163457.606000", "163457.609000", "163457.611000", "163457.614000", "163457.617000", "163457.619000", "163457.622000", "163457.624000", "163457.627000", "163537.520000", "163537.523000", "163537.526000", "163537.528000", "163537.531000", "163537.534000", "163537.541000", "163537.543000", "163537.546000", "163537.549000", "163537.551000", "163537.554000", "163537.556000", "163537.571000", "163537.573000", "163537.576000", "163537.578000", "163537.581000", "163537.583000", "163537.586000", "163537.589000", "163537.591000", "163537.594000", "163537.597000", "163537.600000", "163537.602000", "163537.605000", "163537.607000", "163537.610000", "163537.612000", "163537.615000", "163537.618000", "163537.620000", "163617.532000", "163617.534000", "163617.537000", "163617.540000", "163617.542000", "163617.545000", "163617.548000", "163617.550000", "163617.553000", "163617.555000", "163617.558000", "163617.561000", "163617.563000", "163617.566000", "163617.569000", "163617.571000", "163617.574000", "163617.577000", "163617.579000", "163617.582000", "163617.584000", "163617.587000", "163617.589000", "163617.592000", "163617.595000", "163617.602000", "163617.605000", "163617.607000", "163617.610000", "163617.613000", "163617.616000", "163617.618000", "163617.621000", "163657.520000", "163657.523000", "163657.526000", "163657.529000", "163657.531000", "163657.534000", "163657.536000", "163657.539000", "163657.542000", "163657.544000", "163657.547000", "163657.549000", "163657.552000", "163657.555000", "163657.557000", "163657.560000", "163657.562000", "163657.565000", "163657.567000", "163657.570000", "163657.573000", "163657.575000", "163657.578000", "163657.581000", "163657.583000", "163657.586000", "163657.588000", "163657.591000", "163657.593000", "163657.596000", "163657.599000", "163657.601000", "163657.604000", "163657.607000", "163717.520000", "163717.524000", "163717.526000", "163717.529000", "163717.531000", "163717.534000", "163717.537000", "163717.539000", "163717.542000", "163717.544000", "163717.547000", "163717.550000", "163717.552000", "163717.555000", "163717.557000", "163717.560000", "163757.521000", "163757.524000", "163757.526000", "163757.529000", "163757.531000", "163757.534000", "163757.537000", "163757.539000", "163757.542000", "163757.545000", "163757.547000", "163757.550000", "163757.552000", "163757.555000", "163757.558000", "163757.560000", "163757.563000", "163757.566000", "163757.568000", "163757.571000", "163757.573000", "163757.576000", "163757.579000", "163757.581000", "163757.584000", "163757.587000", "163757.589000", "163757.592000", "163757.594000", "163757.597000", "163757.600000", "163757.602000", "163757.605000", "163757.607000", "163812.868000", "163812.871000", "163812.874000", "163812.877000", "163812.880000", "163812.882000", "163812.885000", "163812.888000", "163812.890000", "163812.893000", "163812.895000", "163812.898000", "163812.901000"],
      "InstanceCreationTime": ["163457.525000", "163457.536000", "163457.538000", "163457.541000", "163457.553000", "163457.556000", "163457.559000", "163457.561000", "163457.564000", "163457.567000", "163457.569000", "163457.572000", "163457.577000", "163457.580000", "163457.582000", "163457.585000", "163457.588000", "163457.590000", "163457.593000", "163457.595000", "163457.598000", "163457.601000", "163457.603000", "163457.606000", "163457.609000", "163457.611000", "163457.614000", "163457.617000", "163457.619000", "163457.622000", "163457.624000", "163457.627000", "163537.520000", "163537.523000", "163537.526000", "163537.528000", "163537.531000", "163537.534000", "163537.541000", "163537.543000", "163537.546000", "163537.549000", "163537.551000", "163537.554000", "163537.556000", "163537.571000", "163537.573000", "163537.576000", "163537.578000", "163537.581000", "163537.583000", "163537.586000", "163537.589000", "163537.591000", "163537.594000", "163537.597000", "163537.600000", "163537.602000", "163537.605000", "163537.607000", "163537.610000", "163537.612000", "163537.615000", "163537.618000", "163537.620000", "163617.532000", "163617.534000", "163617.537000", "163617.540000", "163617.542000", "163617.545000", "163617.548000", "163617.550000", "163617.553000", "163617.555000", "163617.558000", "163617.561000", "163617.563000", "163617.566000", "163617.569000", "163617.571000", "163617.574000", "163617.577000", "163617.579000", "163617.582000", "163617.584000", "163617.587000", "163617.589000", "163617.592000", "163617.595000", "163617.602000", "163617.605000", "163617.607000", "163617.610000", "163617.613000", "163617.616000", "163617.618000", "163617.621000", "163657.520000", "163657.523000", "163657.526000", "163657.529000", "163657.531000", "163657.534000", "163657.536000", "163657.539000", "163657.542000", "163657.544000", "163657.547000", "163657.549000", "163657.552000", "163657.555000", "163657.557000", "163657.560000", "163657.562000", "163657.565000", "163657.567000", "163657.570000", "163657.573000", "163657.575000", "163657.578000", "163657.581000", "163657.583000", "163657.586000", "163657.588000", "163657.591000", "163657.593000", "163657.596000", "163657.599000", "163657.601000", "163657.604000", "163657.607000", "163717.520000", "163717.524000", "163717.526000", "163717.529000", "163717.531000", "163717.534000", "163717.537000", "163717.539000", "163717.542000", "163717.544000", "163717.547000", "163717.550000", "163717.552000", "163717.555000", "163717.557000", "163717.560000", "163757.521000", "163757.524000", "163757.526000", "163757.529000", "163757.531000", "163757.534000", "163757.537000", "163757.539000", "163757.542000", "163757.545000", "163757.547000", "163757.550000", "163757.552000", "163757.555000", "163757.558000", "163757.560000", "163757.563000", "163757.566000", "163757.568000", "163757.571000", "163757.573000", "163757.576000", "163757.579000", "163757.581000", "163757.584000", "163757.587000", "163757.589000", "163757.592000", "163757.594000", "163757.597000", "163757.600000", "163757.602000", "163757.605000", "163757.607000", "163812.868000", "163812.871000", "163812.874000", "163812.877000", "163812.880000", "163812.882000", "163812.885000", "163812.888000", "163812.890000", "163812.893000", "163812.895000", "163812.898000", "163812.901000"],
      "InstanceNumber": [1, 2, 3, 4, 5, 6, 7, 8, 9, 10, 11, 12, 13, 14, 15, 16, 17, 18, 19, 20, 21, 22, 23, 24, 25, 26, 27, 28, 29, 30, 31, 32, 33, 34, 35, 36, 37, 38, 39, 40, 41, 42, 43, 44, 45, 46, 47, 48, 49, 50, 51, 52, 53, 54, 55, 56, 57, 58, 59, 60, 61, 62, 63, 64, 65, 66, 67, 68, 69, 70, 71, 72, 73, 74, 75, 76, 77, 78, 79, 80, 81, 82, 83, 84, 85, 86, 87, 88, 89, 90, 91, 92, 93, 94, 95, 96, 97, 98, 99, 100, 101, 102, 103, 104, 105, 106, 107, 108, 109, 110, 111, 112, 113, 114, 115, 116, 117, 118, 119, 120, 121, 122, 123, 124, 125, 126, 127, 128, 129, 130, 131, 132, 133, 134, 135, 136, 137, 138, 139, 140, 141, 142, 143, 144, 145, 146, 147, 148, 149, 150, 151, 152, 153, 154, 155, 156, 157, 158, 159, 160, 161, 162, 163, 164, 165, 166, 167, 168, 169, 170, 171, 172, 173, 174, 175, 176, 177, 178, 179, 180, 181, 182, 183, 184, 185, 186, 187, 188, 189, 190, 191, 192, 193, 194, 195],
      "LargestImagePixelValue": [2561, 2498, 2431, 2387, 2379, 2358, 2322, 2362, 2335, 2355, 2342, 2334, 2357, 2336, 2357, 2336, 2322, 2314, 2346, 2305, 2305, 2340, 2302, 2299, 2345, 2310, 2326, 2331, 2330, 2313, 2322, 2329, 2308, 2346, 2315, 2317, 2357, 2303, 2338, 2351, 2340, 2352, 2382, 2367, 2353, 2360, 2358, 2340, 2363, 2345, 2350, 2342, 2339, 2352, 2362, 2365, 2360, 2370, 2354, 2347, 2358, 2361, 2396, 2353, 2354, 2364, 2350, 2336, 2342, 2340, 2346, 2313, 2328, 2356, 2328, 2319, 2369, 2358, 2347, 2340, 2323, 2308, 2355, 2312, 2306, 2352, 2312, 2308, 2337, 2290, 2318, 2330, 2312, 2339, 2318, 2298, 2327, 2311, 2297, 2320, 2295, 2293, 2324, 2297, 2310, 2329, 2330, 2302, 2315, 2293, 2319, 2312, 2315, 2330, 2319, 2330, 2318, 2290, 2312, 2303, 2321, 2335, 2310, 2328, 2363, 2321, 2309, 2344, 2279, 2290, 2340, 2289, 2301, 2329, 2278, 2295, 2308, 2308, 2314, 2308, 2295, 2351, 2363, 2357, 2344, 2326, 2303, 2350, 2307, 2326, 2323, 2290, 2315, 2334, 2326, 2319, 2286, 2312, 2317, 2297, 2328, 2302, 2304, 2308, 2350, 2322, 2343, 2304, 2319, 2347, 2311, 2304, 2360, 2333, 2361, 2368, 2353, 2335, 2377, 2356, 2346, 2348, 2315, 2320, 2343, 2300, 2311, 2317, 2286, 2303, 2301, 2297, 2310, 2294, 2302],
      "WindowCenter": [652.0, 648.0, 646.0, 644.0, 643.0, 643.0, 643.0, 643.0, 643.0, 644.0, 644.0, 644.0, 644.0, 643.0, 643.0, 643.0, 642.0, 642.0, 642.0, 641.0, 641.0, 642.0, 641.0, 641.0, 642.0, 642.0, 642.0, 642.0, 642.0, 642.0, 642.0, 642.0, 642.0, 642.0, 642.0, 642.0, 642.0, 642.0, 643.0, 644.0, 644.0, 644.0, 644.0, 644.0, 644.0, 644.0, 644.0, 644.0, 644.0, 643.0, 643.0, 642.0, 641.0, 641.0, 642.0, 642.0, 642.0, 643.0, 644.0, 644.0, 644.0, 644.0, 646.0, 646.0, 646.0, 645.0, 644.0, 643.0, 642.0, 642.0, 641.0, 641.0, 641.0, 642.0, 643.0, 643.0, 644.0, 644.0, 644.0, 644.0, 643.0, 642.0, 642.0, 641.0, 641.0, 642.0, 641.0, 641.0, 642.0, 640.0, 641.0, 641.0, 641.0, 642.0, 642.0, 642.0, 642.0, 642.0, 641.0, 641.0, 640.0, 641.0, 641.0, 641.0, 642.0, 642.0, 642.0, 642.0, 642.0, 641.0, 641.0, 641.0, 641.0, 641.0, 641.0, 642.0, 642.0, 643.0, 644.0, 643.0, 644.0, 645.0, 646.0, 645.0, 645.0, 644.0, 643.0, 643.0, 642.0, 642.0, 642.0, 641.0, 641.0, 641.0, 641.0, 641.0, 641.0, 641.0, 641.0, 641.0, 643.0, 645.0, 646.0, 647.0, 645.0, 643.0, 643.0, 643.0, 643.0, 644.0, 643.0, 642.0, 642.0, 643.0, 643.0, 642.0, 642.0, 643.0, 643.0, 643.0, 644.0, 643.0, 642.0, 642.0, 642.0, 642.0, 642.0, 641.0, 642.0, 643.0, 642.0, 642.0, 643.0, 644.0, 644.0, 644.0, 644.0, 645.0, 646.0, 646.0, 644.0, 643.0, 643.0, 642.0, 642.0, 641.0, 641.0, 641.0, 640.0, 641.0, 640.0, 640.0, 640.0, 640.0, 640.0],
      "WindowWidth": [1401.0, 1390.0, 1385.0, 1382.0, 1379.0, 1379.0, 1378.0, 1379.0, 1379.0, 1381.0, 1381.0, 1381.0, 1381.0, 1380.0, 1379.0, 1379.0, 1377.0, 1376.0, 1376.0, 1375.0, 1375.0, 1377.0, 1375.0, 1375.0, 1377.0, 1376.0, 1377.0, 1377.0, 1377.0, 1376.0, 1377.0, 1376.0, 1376.0, 1378.0, 1376.0, 1377.0, 1377.0, 1376.0, 1380.0, 1382.0, 1382.0, 1383.0, 1382.0, 1381.0, 1381.0, 1381.0, 1382.0, 1382.0, 1381.0, 1379.0, 1378.0, 1376.0, 1376.0, 1376.0, 1376.0, 1377.0, 1377.0, 1379.0, 1381.0, 1381.0, 1381.0, 1383.0, 1385.0, 1386.0, 1386.0, 1385.0, 1383.0, 1380.0, 1378.0, 1376.0, 1376.0, 1375.0, 1376.0, 1378.0, 1379.0, 1380.0, 1382.0, 1382.0, 1383.0, 1382.0, 1380.0, 1378.0, 1378.0, 1375.0, 1374.0, 1376.0, 1375.0, 1375.0, 1376.0, 1374.0, 1374.0, 1374.0, 1374.0, 1376.0, 1376.0, 1377.0, 1377.0, 1376.0, 1375.0, 1374.0, 1374.0, 1374.0, 1375.0, 1375.0, 1377.0, 1377.0, 1378.0, 1377.0, 1377.0, 1376.0, 1376.0, 1375.0, 1375.0, 1375.0, 1375.0, 1377.0, 1377.0, 1379.0, 1381.0, 1380.0, 1381.0, 1384.0, 1386.0, 1386.0, 1385.0, 1382.0, 1380.0, 1380.0, 1377.0, 1376.0, 1377.0, 1375.0, 1375.0, 1376.0, 1374.0, 1374.0, 1373.0, 1374.0, 1375.0, 1376.0, 1378.0, 1383.0, 1386.0, 1388.0, 1384.0, 1380.0, 1379.0, 1379.0, 1380.0, 1382.0, 1381.0, 1379.0, 1378.0, 1378.0, 1379.0, 1378.0, 1377.0, 1378.0, 1379.0, 1380.0, 1381.0, 1380.0, 1378.0, 1376.0, 1377.0, 1377.0, 1377.0, 1375.0, 1378.0, 1379.0, 1378.0, 1378.0, 1380.0, 1381.0, 1382.0, 1382.0, 1383.0, 1385.0, 1387.0, 1385.0, 1382.0, 1380.0, 1378.0, 1377.0, 1376.0, 1375.0, 1375.0, 1374.0, 1373.0, 1374.0, 1373.0, 1373.0, 1373.0, 1372.0, 1373.0]
    },
    "slices": {}
  }
}