{
  "AcquisitionMatrixPE": 88,
  "AcquisitionNumber": 1,
  "AcquisitionTime": "15:47:42.812500",
  "BandwidthPerPixelPhaseEncode": 19.592,
  "BaseResolution": 88,
  "BodyPartExamined": "BRAIN",
  "ConsistencyInfo": "N4_VE11C_LATEST_20160120",
  "ConversionSoftware": "dcm2niix",
  "ConversionSoftwareVersion": "v1.0.20190902",
  "DerivedVendorReportedEchoSpacing": 0.000580014,
  "DeviceSerialNumber": "67050",
  "DwellTime": 2.6e-06,
  "EchoTime": 0.033,
  "EchoTrainLength": 88,
  "EffectiveEchoSpacing": 0.000580014,
  "FlipAngle": 62,
  "ImageOrientationPatientDICOM": [0.996601, 0.014862, 0.081029, -0.0114805, 0.99905, -0.0420397],
  "ImageType": [
    "ORIGINAL",
    "PRIMARY",
    "M",
    "ND",
    "MOSAIC"
],
  "ImagingFrequency": 123.251,
  "InPlanePhaseEncodingDirectionDICOM": "COL",
  "InstitutionAddress": "Olive_Street_60_Providence_RI_US_02912",
  "InstitutionName": "BROWN_UNIVERSITY_MRF",
  "InstitutionalDepartmentName": "Department",
  "MRAcquisitionType": "2D",
  "MagneticFieldStrength": 3,
  "Manufacturer": "Siemens",
  "ManufacturersModelName": "Prisma_fit",
  "Modality": "MR",
  "MultibandAccelerationFactor": 4,
  "PartialFourier": 1,
  "PatientPosition": "HFS",
  "PercentPhaseFOV": 100,
  "PhaseEncodingDirection": "j-",
  "PhaseEncodingSteps": 88,
  "PhaseResolution": 1,
  "PixelBandwidth": 2185,
  "ProcedureStepDescription": "ASHENHAV_1222",
  "ProtocolName": "func-bold_task-RDMmotion_run-03",
  "PulseSequenceDetails": "%SiemensSeq%_ep2d_bold",
  "ReceiveCoilActiveElements": "HC1-7",
  "ReceiveCoilName": "HeadNeck_64",
  "ReconMatrixPE": 88,
  "RefLinesPE": 8,
  "RepetitionTime": 1.2,
  "SAR": 0.0501663,
  "ScanOptions": "FS",
  "ScanningSequence": "EP",
  "SequenceName": "_epfid2d1_88",
  "SequenceVariant": "SK",
  "SeriesDescription": "func-bold_task-RDMmotion_run-03",
  "SeriesNumber": 11,
  "ShimSetting": [1777, -9075, 4423, 477, -157, -280, 45, 0],
  "SliceThickness": 2.4,
  "SliceTiming": [0.5525, 0, 0.63, 0.08, 0.71, 0.1575, 0.7875, 0.2375, 0.8675, 0.315, 0.945, 0.395, 1.0225, 0.4725, 1.1025, 0.5525, 0, 0.63, 0.08, 0.71, 0.1575, 0.7875, 0.2375, 0.8675, 0.315, 0.945, 0.395, 1.0225, 0.4725, 1.1025, 0.5525, 0, 0.63, 0.08, 0.71, 0.1575, 0.7875, 0.2375, 0.8675, 0.315, 0.945, 0.395, 1.0225, 0.4725, 1.1025, 0.5525, 0, 0.63, 0.08, 0.71, 0.1575, 0.7875, 0.2375, 0.8675, 0.315, 0.945, 0.395, 1.0225, 0.4725, 1.1025],
  "SoftwareVersions": "syngo_MR_E11",
  "SpacingBetweenSlices": 2.4,
  "StationName": "AWP67050",
  "TaskName": "RDMmotion",
  "TotalReadoutTime": 0.0504612,
  "TxRefAmp": 236.972,
  "dcmmeta_affine": [
    [-2.3895771503448486, -0.027527064085006714, 0.195784330368042, 102.752685546875],
    [-0.03563505411148071, 2.39544939994812, -0.09831973165273666, -92.75927734375],
    [0.19428542256355286, 0.10079973936080933, 2.389979362487793, -86.37842559814453],
    [0.0, 0.0, 0.0, 1.0]
],
  "dcmmeta_reorient_transform": [
    [0.0, -1.0, 0.0, 87.0],
    [1.0, 0.0, 0.0, 0.0],
    [0.0, 0.0, 1.0, 0.0],
    [0.0, 0.0, 0.0, 1.0]
],
  "dcmmeta_shape": [88, 88, 60, 125],
  "dcmmeta_slice_dim": 2,
  "dcmmeta_version": 0.6,
  "global": {
    "const": {
      "AcquisitionMatrix": [88, 0, 0, 88],
      "AngioFlag": "N",
      "BitsAllocated": 16,
      "BitsStored": 12,
      "BodyPartExamined": "BRAIN",
      "Columns": 704,
      "DeidentificationMethodCodeSequence": [
        {
          "CodeMeaning": "XNAT DicomEdit 6 Script",
          "CodeValue": "3",
          "CodingSchemeDesignator": "XNAT",
          "CodingSchemeVersion": "1.0"}
],
      "EchoNumbers": 1,
      "EchoTime": 33.0,
      "EchoTrainLength": 88,
      "FlipAngle": 62.0,
      "HighBit": 11,
      "ImageOrientationPatient": [0.99660093492524, 0.0148620130788, 0.08102898909271, -0.011480482122, 0.99904997967526, -0.0420397031521],
      "ImagePositionPatient": [-827.8692774452, -864.41881814517, -106.40243280549],
      "ImageType": [
        "ORIGINAL",
        "PRIMARY",
        "M",
        "ND",
        "MOSAIC"
],
      "ImagedNucleus": "1H",
      "ImagingFrequency": 123.250686,
      "InPlanePhaseEncodingDirection": "COL",
      "MRAcquisitionType": "2D",
      "MagneticFieldStrength": 3.0,
      "Manufacturer": "SIEMENS",
      "ManufacturerModelName": "Prisma_fit",
      "Modality": "MR",
      "NumberOfAverages": 1.0,
      "NumberOfPhaseEncodingSteps": 88,
      "PercentPhaseFieldOfView": 100.0,
      "PercentSampling": 100.0,
      "PerformedProcedureStepStartTime": "145313.809000",
      "PhotometricInterpretation": "MONOCHROME2",
      "PixelBandwidth": 2185.0,
      "PixelRepresentation": 0,
      "PixelSpacing": [2.3977272510529, 2.3977272510529],
      "ProtocolName": "func-bold_task-RDMmotion_run-03",
      "RepetitionTime": 1200.0,
      "Rows": 704,
      "SAR": 0.05016625538395,
      "SamplesPerPixel": 1,
      "ScanOptions": "FS",
      "ScanningSequence": "EP",
      "SequenceName": "*epfid2d1_88",
      "SequenceVariant": "SK",
      "SeriesDescription": "func-bold_task-RDMmotion_run-03",
      "SeriesNumber": 11,
      "SeriesTime": "154757.646000",
      "SliceLocation": -73.835509203022,
      "SliceThickness": 2.4000000953674,
      "SmallestImagePixelValue": 0,
      "SoftwareVersions": "syngo MR E11",
      "SpacingBetweenSlices": 2.4000000347878,
      "SpecificCharacterSet": "ISO_IR 100",
      "StudyID": "1",
      "StudyTime": "145313.737000",
      "TransmitCoilName": "Body",
      "VariableFlipAngleFlag": "N",
      "WindowCenterWidthExplanation": "Algo1",
      "dBdt": 0.0},
    "slices": {}
  },
  "time": {
    "samples": {
      "AcquisitionNumber": [1, 2, 3, 4, 5, 6, 7, 8, 9, 10, 11, 12, 13, 14, 15, 16, 17, 18, 19, 20, 21, 22, 23, 24, 25, 26, 27, 28, 29, 30, 31, 32, 33, 34, 35, 36, 37, 38, 39, 40, 41, 42, 43, 44, 45, 46, 47, 48, 49, 50, 51, 52, 53, 54, 55, 56, 57, 58, 59, 60, 61, 62, 63, 64, 65, 66, 67, 68, 69, 70, 71, 72, 73, 74, 75, 76, 77, 78, 79, 80, 81, 82, 83, 84, 85, 86, 87, 88, 89, 90, 91, 92, 93, 94, 95, 96, 97, 98, 99, 100, 101, 102, 103, 104, 105, 106, 107, 108, 109, 110, 111, 112, 113, 114, 115, 116, 117, 118, 119, 120, 121, 122, 123, 124, 125],
      "AcquisitionTime": ["154742.812500", "154744.012500", "154745.212500", "154746.412500", "154747.612500", "154748.812500", "154750.012500", "154751.212500", "154752.412500", "154753.612500", "154754.812500", "154756.012500", "154757.212500", "154758.412500", "154759.612500", "154800.812500", "154802.012500", "154803.212500", "154804.412500", "154805.612500", "154806.812500", "154808.012500", "154809.212500", "154810.412500", "154811.612500", "154812.812500", "154814.012500", "154815.212500", "154816.412500", "154817.612500", "154818.812500", "154820.012500", "154821.212500", "154822.412500", "154823.612500", "154824.812500", "154826.012500", "154827.212500", "154828.412500", "154829.612500", "154830.812500", "154832.012500", "154833.212500", "154834.412500", "154835.612500", "154836.812500", "154838.012500", "154839.212500", "154840.412500", "154841.612500", "154842.812500", "154844.012500", "154845.212500", "154846.412500", "154847.612500", "154848.812500", "154850.012500", "154851.212500", "154852.412500", "154853.612500", "154854.812500", "154856.012500", "154857.212500", "154858.412500", "154859.612500", "154900.812500", "154902.012500", "154903.212500", "154904.412500", "154905.612500", "154906.812500", "154908.012500", "154909.212500", "154910.412500", "154911.612500", "154912.812500", "154914.012500", "154915.212500", "154916.412500", "154917.612500", "154918.812500", "154920.012500", "154921.212500", "154922.412500", "154923.612500", "154924.812500", "154926.012500", "154927.212500", "154928.412500", "154929.612500", "154930.812500", "154932.012500", "154933.212500", "154934.412500", "154935.612500", "154936.812500", "154938.012500", "154939.212500", "154940.412500", "154941.612500", "154942.812500", "154944.012500", "154945.212500", "154946.412500", "154947.612500", "154948.812500", "154950.012500", "154951.212500", "154952.412500", "154953.612500", "154954.812500", "154956.012500", "154957.212500", "154958.412500", "154959.612500", "155000.812500", "155002.012500", "155003.212500", "155004.412500", "155005.612500", "155006.812500", "155008.012500", "155009.212500", "155010.412500", "155011.612500"],
      "ContentTime": ["154757.649000", "154757.652000", "154757.663000", "154757.669000", "154757.672000", "154757.674000", "154757.677000", "154757.679000", "154757.682000", "154757.684000", "154757.687000", "154757.690000", "154837.644000", "154837.647000", "154837.650000", "154837.652000", "154837.655000", "154837.658000", "154837.660000", "154837.663000", "154837.665000", "154837.668000", "154837.677000", "154837.680000", "154837.683000", "154837.686000", "154837.689000", "154837.691000", "154837.694000", "154837.696000", "154837.699000", "154837.702000", "154837.704000", "154837.707000", "154837.709000", "154837.712000", "154837.714000", "154837.717000", "154837.720000", "154837.722000", "154837.725000", "154837.727000", "154837.730000", "154837.732000", "154837.735000", "154917.644000", "154917.647000", "154917.650000", "154917.653000", "154917.655000", "154917.658000", "154917.660000", "154917.663000", "154917.666000", "154917.668000", "154917.671000", "154917.673000", "154917.676000", "154917.678000", "154917.681000", "154917.684000", "154917.686000", "154917.689000", "154917.691000", "154917.694000", "154917.697000", "154917.699000", "154917.702000", "154917.704000", "154917.707000", "154917.710000", "154917.712000", "154917.715000", "154917.717000", "154917.720000", "154917.722000", "154917.725000", "154917.727000", "154957.645000", "154957.647000", "154957.650000", "154957.652000", "154957.655000", "154957.658000", "154957.660000", "154957.663000", "154957.666000", "154957.668000", "154957.671000", "154957.673000", "154957.676000", "154957.678000", "154957.681000", "154957.684000", "154957.686000", "154957.689000", "154957.691000", "154957.694000", "154957.697000", "154957.699000", "154957.702000", "154957.705000", "154957.707000", "154957.710000", "154957.713000", "154957.715000", "154957.718000", "154957.720000", "154957.723000", "154957.725000", "154957.728000", "154957.731000", "155013.056000", "155013.059000", "155013.062000", "155013.064000", "155013.067000", "155013.070000", "155013.072000", "155013.075000", "155013.077000", "155013.080000", "155013.082000", "155013.085000", "155013.088000"],
      "InstanceCreationTime": ["154757.649000", "154757.652000", "154757.663000", "154757.669000", "154757.672000", "154757.674000", "154757.677000", "154757.679000", "154757.682000", "154757.684000", "154757.687000", "154757.690000", "154837.644000", "154837.647000", "154837.650000", "154837.652000", "154837.655000", "154837.658000", "154837.660000", "154837.663000", "154837.665000", "154837.668000", "154837.677000", "154837.680000", "154837.683000", "154837.686000", "154837.689000", "154837.691000", "154837.694000", "154837.696000", "154837.699000", "154837.702000", "154837.704000", "154837.707000", "154837.709000", "154837.712000", "154837.714000", "154837.717000", "154837.720000", "154837.722000", "154837.725000", "154837.727000", "154837.730000", "154837.732000", "154837.735000", "154917.644000", "154917.647000", "154917.650000", "154917.653000", "154917.655000", "154917.658000", "154917.660000", "154917.663000", "154917.666000", "154917.668000", "154917.671000", "154917.673000", "154917.676000", "154917.678000", "154917.681000", "154917.684000", "154917.686000", "154917.689000", "154917.691000", "154917.694000", "154917.697000", "154917.699000", "154917.702000", "154917.704000", "154917.707000", "154917.710000", "154917.712000", "154917.715000", "154917.717000", "154917.720000", "154917.722000", "154917.725000", "154917.727000", "154957.645000", "154957.647000", "154957.650000", "154957.652000", "154957.655000", "154957.658000", "154957.660000", "154957.663000", "154957.666000", "154957.668000", "154957.671000", "154957.673000", "154957.676000", "154957.678000", "154957.681000", "154957.684000", "154957.686000", "154957.689000", "154957.691000", "154957.694000", "154957.697000", "154957.699000", "154957.702000", "154957.705000", "154957.707000", "154957.710000", "154957.713000", "154957.715000", "154957.718000", "154957.720000", "154957.723000", "154957.725000", "154957.728000", "154957.731000", "155013.056000", "155013.059000", "155013.062000", "155013.064000", "155013.067000", "155013.070000", "155013.072000", "155013.075000", "155013.077000", "155013.080000", "155013.082000", "155013.085000", "155013.088000"],
      "InstanceNumber": [1, 2, 3, 4, 5, 6, 7, 8, 9, 10, 11, 12, 13, 14, 15, 16, 17, 18, 19, 20, 21, 22, 23, 24, 25, 26, 27, 28, 29, 30, 31, 32, 33, 34, 35, 36, 37, 38, 39, 40, 41, 42, 43, 44, 45, 46, 47, 48, 49, 50, 51, 52, 53, 54, 55, 56, 57, 58, 59, 60, 61, 62, 63, 64, 65, 66, 67, 68, 69, 70, 71, 72, 73, 74, 75, 76, 77, 78, 79, 80, 81, 82, 83, 84, 85, 86, 87, 88, 89, 90, 91, 92, 93, 94, 95, 96, 97, 98, 99, 100, 101, 102, 103, 104, 105, 106, 107, 108, 109, 110, 111, 112, 113, 114, 115, 116, 117, 118, 119, 120, 121, 122, 123, 124, 125],
      "LargestImagePixelValue": [2375, 2289, 2247, 2292, 2250, 2216, 2228, 2234, 2217, 2227, 2225, 2219, 2242, 2221, 2203, 2235, 2192, 2232, 2228, 2193, 2225, 2209, 2208, 2241, 2211, 2217, 2244, 2210, 2230, 2244, 2202, 2233, 2218, 2231, 2238, 2222, 2236, 2227, 2226, 2219, 2235, 2231, 2230, 2207, 2223, 2223, 2228, 2236, 2226, 2230, 2257, 2246, 2250, 2254, 2248, 2248, 2270, 2239, 2249, 2242, 2256, 2243, 2225, 2238, 2219, 2240, 2205, 2216, 2242, 2225, 2227, 2210, 2212, 2230, 2234, 2233, 2201, 2223, 2207, 2234, 2221, 2215, 2221, 2245, 2220, 2226, 2217, 2231, 2230, 2220, 2234, 2218, 2211, 2220, 2203, 2205, 2229, 2222, 2207, 2222, 2245, 2208, 2230, 2218, 2237, 2225, 2222, 2244, 2229, 2220, 2236, 2229, 2211, 2228, 2221, 2209, 2230, 2223, 2224, 2232, 2251, 2229, 2237, 2258, 2220],
      "WindowCenter": [649.0, 646.0, 644.0, 644.0, 644.0, 643.0, 643.0, 643.0, 643.0, 642.0, 642.0, 642.0, 641.0, 641.0, 641.0, 641.0, 641.0, 641.0, 641.0, 642.0, 642.0, 641.0, 642.0, 643.0, 642.0, 642.0, 643.0, 643.0, 643.0, 642.0, 642.0, 642.0, 642.0, 642.0, 642.0, 643.0, 643.0, 643.0, 642.0, 642.0, 642.0, 643.0, 642.0, 642.0, 643.0, 643.0, 643.0, 642.0, 643.0, 645.0, 645.0, 645.0, 645.0, 644.0, 642.0, 642.0, 642.0, 641.0, 641.0, 641.0, 642.0, 642.0, 641.0, 642.0, 642.0, 642.0, 642.0, 642.0, 642.0, 641.0, 641.0, 642.0, 642.0, 643.0, 643.0, 643.0, 642.0, 642.0, 642.0, 643.0, 643.0, 643.0, 644.0, 644.0, 644.0, 643.0, 642.0, 643.0, 641.0, 642.0, 643.0, 642.0, 642.0, 643.0, 642.0, 643.0, 643.0, 643.0, 643.0, 643.0, 643.0, 642.0, 642.0, 641.0, 641.0, 640.0, 641.0, 643.0, 644.0, 645.0, 644.0, 643.0, 642.0, 641.0, 641.0, 641.0, 641.0, 640.0, 641.0, 642.0, 643.0, 642.0, 643.0, 642.0, 642.0],
      "WindowWidth": [1394.0, 1388.0, 1382.0, 1381.0, 1380.0, 1380.0, 1380.0, 1380.0, 1380.0, 1378.0, 1376.0, 1376.0, 1375.0, 1374.0, 1375.0, 1375.0, 1374.0, 1375.0, 1375.0, 1376.0, 1376.0, 1375.0, 1376.0, 1378.0, 1377.0, 1377.0, 1378.0, 1378.0, 1379.0, 1378.0, 1377.0, 1376.0, 1376.0, 1376.0, 1377.0, 1379.0, 1380.0, 1379.0, 1377.0, 1376.0, 1378.0, 1378.0, 1378.0, 1378.0, 1379.0, 1380.0, 1378.0, 1378.0, 1379.0, 1383.0, 1385.0, 1384.0, 1383.0, 1380.0, 1378.0, 1377.0, 1376.0, 1375.0, 1375.0, 1374.0, 1376.0, 1376.0, 1376.0, 1377.0, 1377.0, 1377.0, 1376.0, 1377.0, 1376.0, 1376.0, 1375.0, 1377.0, 1377.0, 1379.0, 1379.0, 1379.0, 1378.0, 1378.0, 1378.0, 1379.0, 1378.0, 1380.0, 1381.0, 1383.0, 1381.0, 1380.0, 1378.0, 1378.0, 1376.0, 1376.0, 1379.0, 1377.0, 1378.0, 1378.0, 1378.0, 1379.0, 1379.0, 1380.0, 1380.0, 1381.0, 1380.0, 1378.0, 1377.0, 1374.0, 1373.0, 1373.0, 1375.0, 1379.0, 1382.0, 1383.0, 1381.0, 1378.0, 1377.0, 1376.0, 1375.0, 1374.0, 1374.0, 1373.0, 1375.0, 1377.0, 1378.0, 1378.0, 1378.0, 1377.0, 1377.0]
    },
    "slices": {}
  }
}