{
  "AcquisitionMatrixPE": 88,
  "AcquisitionNumber": 1,
  "AcquisitionTime": "15:27:24.470000",
  "BandwidthPerPixelPhaseEncode": 19.592,
  "BaseResolution": 88,
  "BodyPartExamined": "BRAIN",
  "ConsistencyInfo": "N4_VE11C_LATEST_20160120",
  "ConversionSoftware": "dcm2niix",
  "ConversionSoftwareVersion": "v1.0.20190902",
  "DerivedVendorReportedEchoSpacing": 0.000580014,
  "DeviceSerialNumber": "67050",
  "DwellTime": 2.6e-06,
  "EchoTime": 0.033,
  "EchoTrainLength": 88,
  "EffectiveEchoSpacing": 0.000580014,
  "FlipAngle": 62,
  "ImageOrientationPatientDICOM": [0.996601, 0.014862, 0.081029, -0.0114805, 0.99905, -0.0420397],
  "ImageType": [
    "ORIGINAL",
    "PRIMARY",
    "M",
    "ND",
    "MOSAIC"
],
  "ImagingFrequency": 123.251,
  "InPlanePhaseEncodingDirectionDICOM": "COL",
  "InstitutionAddress": "Olive_Street_60_Providence_RI_US_02912",
  "InstitutionName": "BROWN_UNIVERSITY_MRF",
  "InstitutionalDepartmentName": "Department",
  "MRAcquisitionType": "2D",
  "MagneticFieldStrength": 3,
  "Manufacturer": "Siemens",
  "ManufacturersModelName": "Prisma_fit",
  "Modality": "MR",
  "MultibandAccelerationFactor": 4,
  "PartialFourier": 1,
  "PatientPosition": "HFS",
  "PercentPhaseFOV": 100,
  "PhaseEncodingDirection": "j-",
  "PhaseEncodingSteps": 88,
  "PhaseResolution": 1,
  "PixelBandwidth": 2185,
  "ProcedureStepDescription": "ASHENHAV_1222",
  "ProtocolName": "func-bold_task-RDMcolor_run-01",
  "PulseSequenceDetails": "%SiemensSeq%_ep2d_bold",
  "ReceiveCoilActiveElements": "HC1-7",
  "ReceiveCoilName": "HeadNeck_64",
  "ReconMatrixPE": 88,
  "RefLinesPE": 8,
  "RepetitionTime": 1.2,
  "SAR": 0.0506807,
  "ScanOptions": "FS",
  "ScanningSequence": "EP",
  "SequenceName": "_epfid2d1_88",
  "SequenceVariant": "SK",
  "SeriesDescription": "func-bold_task-RDMcolor_run-01",
  "SeriesNumber": 8,
  "ShimSetting": [1777, -9075, 4423, 477, -157, -280, 45, 0],
  "SliceThickness": 2.4,
  "SliceTiming": [0.55, 0, 0.63, 0.08, 0.7075, 0.1575, 0.7875, 0.2375, 0.865, 0.315, 0.945, 0.395, 1.0225, 0.4725, 1.1025, 0.55, 0, 0.63, 0.08, 0.7075, 0.1575, 0.7875, 0.2375, 0.865, 0.315, 0.945, 0.395, 1.0225, 0.4725, 1.1025, 0.55, 0, 0.63, 0.08, 0.7075, 0.1575, 0.7875, 0.2375, 0.865, 0.315, 0.945, 0.395, 1.0225, 0.4725, 1.1025, 0.55, 0, 0.63, 0.08, 0.7075, 0.1575, 0.7875, 0.2375, 0.865, 0.315, 0.945, 0.395, 1.0225, 0.4725, 1.1025],
  "SoftwareVersions": "syngo_MR_E11",
  "SpacingBetweenSlices": 2.4,
  "StationName": "AWP67050",
  "TaskName": "RDMcolor",
  "TotalReadoutTime": 0.0504612,
  "TxRefAmp": 236.972,
  "dcmmeta_affine": [
    [-2.3895771503448486, -0.027527064085006714, 0.195784330368042, 102.752685546875],
    [-0.03563505411148071, 2.39544939994812, -0.09831973165273666, -92.75927734375],
    [0.19428542256355286, 0.10079973936080933, 2.389979362487793, -86.37842559814453],
    [0.0, 0.0, 0.0, 1.0]
],
  "dcmmeta_reorient_transform": [
    [0.0, -1.0, 0.0, 87.0],
    [1.0, 0.0, 0.0, 0.0],
    [0.0, 0.0, 1.0, 0.0],
    [0.0, 0.0, 0.0, 1.0]
],
  "dcmmeta_shape": [88, 88, 60, 392],
  "dcmmeta_slice_dim": 2,
  "dcmmeta_version": 0.6,
  "global": {
    "const": {
      "AcquisitionMatrix": [88, 0, 0, 88],
      "AngioFlag": "N",
      "BitsAllocated": 16,
      "BitsStored": 12,
      "BodyPartExamined": "BRAIN",
      "Columns": 704,
      "DeidentificationMethodCodeSequence": [
        {
          "CodeMeaning": "XNAT DicomEdit 6 Script",
          "CodeValue": "3",
          "CodingSchemeDesignator": "XNAT",
          "CodingSchemeVersion": "1.0"}
],
      "EchoNumbers": 1,
      "EchoTime": 33.0,
      "EchoTrainLength": 88,
      "FlipAngle": 62.0,
      "HighBit": 11,
      "ImageOrientationPatient": [0.99660093492524, 0.0148620130788, 0.08102898909271, -0.011480482122, 0.99904997967526, -0.0420397031521],
      "ImagePositionPatient": [-827.8692774452, -864.41881814517, -106.40243280549],
      "ImageType": [
        "ORIGINAL",
        "PRIMARY",
        "M",
        "ND",
        "MOSAIC"
],
      "ImagedNucleus": "1H",
      "ImagingFrequency": 123.250676,
      "InPlanePhaseEncodingDirection": "COL",
      "MRAcquisitionType": "2D",
      "MagneticFieldStrength": 3.0,
      "Manufacturer": "SIEMENS",
      "ManufacturerModelName": "Prisma_fit",
      "Modality": "MR",
      "NumberOfAverages": 1.0,
      "NumberOfPhaseEncodingSteps": 88,
      "PercentPhaseFieldOfView": 100.0,
      "PercentSampling": 100.0,
      "PerformedProcedureStepStartTime": "145313.809000",
      "PhotometricInterpretation": "MONOCHROME2",
      "PixelBandwidth": 2185.0,
      "PixelRepresentation": 0,
      "PixelSpacing": [2.3977272510529, 2.3977272510529],
      "ProtocolName": "func-bold_task-RDMcolor_run-01",
      "RepetitionTime": 1200.0,
      "Rows": 704,
      "SAR": 0.05068068250147,
      "SamplesPerPixel": 1,
      "ScanOptions": "FS",
      "ScanningSequence": "EP",
      "SequenceName": "*epfid2d1_88",
      "SequenceVariant": "SK",
      "SeriesDescription": "func-bold_task-RDMcolor_run-01",
      "SeriesNumber": 8,
      "SeriesTime": "152737.646000",
      "SliceLocation": -73.835509203022,
      "SliceThickness": 2.4000000953674,
      "SmallestImagePixelValue": 0,
      "SoftwareVersions": "syngo MR E11",
      "SpacingBetweenSlices": 2.4000000347878,
      "SpecificCharacterSet": "ISO_IR 100",
      "StudyID": "1",
      "StudyTime": "145313.737000",
      "TransmitCoilName": "Body",
      "VariableFlipAngleFlag": "N",
      "WindowCenterWidthExplanation": "Algo1",
      "dBdt": 0.0},
    "slices": {}
  },
  "time": {
    "samples": {
      "AcquisitionNumber": [1, 2, 3, 4, 5, 6, 7, 8, 9, 10, 11, 12, 13, 14, 15, 16, 17, 18, 19, 20, 21, 22, 23, 24, 25, 26, 27, 28, 29, 30, 31, 32, 33, 34, 35, 36, 37, 38, 39, 40, 41, 42, 43, 44, 45, 46, 47, 48, 49, 50, 51, 52, 53, 54, 55, 56, 57, 58, 59, 60, 61, 62, 63, 64, 65, 66, 67, 68, 69, 70, 71, 72, 73, 74, 75, 76, 77, 78, 79, 80, 81, 82, 83, 84, 85, 86, 87, 88, 89, 90, 91, 92, 93, 94, 95, 96, 97, 98, 99, 100, 101, 102, 103, 104, 105, 106, 107, 108, 109, 110, 111, 112, 113, 114, 115, 116, 117, 118, 119, 120, 121, 122, 123, 124, 125, 126, 127, 128, 129, 130, 131, 132, 133, 134, 135, 136, 137, 138, 139, 140, 141, 142, 143, 144, 145, 146, 147, 148, 149, 150, 151, 152, 153, 154, 155, 156, 157, 158, 159, 160, 161, 162, 163, 164, 165, 166, 167, 168, 169, 170, 171, 172, 173, 174, 175, 176, 177, 178, 179, 180, 181, 182, 183, 184, 185, 186, 187, 188, 189, 190, 191, 192, 193, 194, 195, 196, 197, 198, 199, 200, 201, 202, 203, 204, 205, 206, 207, 208, 209, 210, 211, 212, 213, 214, 215, 216, 217, 218, 219, 220, 221, 222, 223, 224, 225, 226, 227, 228, 229, 230, 231, 232, 233, 234, 235, 236, 237, 238, 239, 240, 241, 242, 243, 244, 245, 246, 247, 248, 249, 250, 251, 252, 253, 254, 255, 256, 257, 258, 259, 260, 261, 262, 263, 264, 265, 266, 267, 268, 269, 270, 271, 272, 273, 274, 275, 276, 277, 278, 279, 280, 281, 282, 283, 284, 285, 286, 287, 288, 289, 290, 291, 292, 293, 294, 295, 296, 297, 298, 299, 300, 301, 302, 303, 304, 305, 306, 307, 308, 309, 310, 311, 312, 313, 314, 315, 316, 317, 318, 319, 320, 321, 322, 323, 324, 325, 326, 327, 328, 329, 330, 331, 332, 333, 334, 335, 336, 337, 338, 339, 340, 341, 342, 343, 344, 345, 346, 347, 348, 349, 350, 351, 352, 353, 354, 355, 356, 357, 358, 359, 360, 361, 362, 363, 364, 365, 366, 367, 368, 369, 370, 371, 372, 373, 374, 375, 376, 377, 378, 379, 380, 381, 382, 383, 384, 385, 386, 387, 388, 389, 390, 391, 392],
      "AcquisitionTime": ["152724.470000", "152725.670000", "152726.870000", "152728.070000", "152729.270000", "152730.470000", "152731.670000", "152732.870000", "152734.070000", "152735.270000", "152736.470000", "152737.670000", "152738.870000", "152740.070000", "152741.270000", "152742.470000", "152743.670000", "152744.870000", "152746.070000", "152747.270000", "152748.470000", "152749.670000", "152750.870000", "152752.070000", "152753.270000", "152754.470000", "152755.670000", "152756.870000", "152758.070000", "152759.270000", "152800.470000", "152801.670000", "152802.870000", "152804.070000", "152805.270000", "152806.470000", "152807.670000", "152808.870000", "152810.070000", "152811.270000", "152812.470000", "152813.670000", "152814.870000", "152816.070000", "152817.270000", "152818.470000", "152819.670000", "152820.870000", "152822.070000", "152823.270000", "152824.470000", "152825.670000", "152826.870000", "152828.070000", "152829.270000", "152830.470000", "152831.670000", "152832.870000", "152834.070000", "152835.270000", "152836.470000", "152837.670000", "152838.870000", "152840.070000", "152841.270000", "152842.470000", "152843.670000", "152844.870000", "152846.070000", "152847.270000", "152848.470000", "152849.670000", "152850.870000", "152852.070000", "152853.270000", "152854.470000", "152855.670000", "152856.870000", "152858.070000", "152859.270000", "152900.470000", "152901.670000", "152902.870000", "152904.070000", "152905.270000", "152906.470000", "152907.670000", "152908.870000", "152910.070000", "152911.270000", "152912.470000", "152913.670000", "152914.870000", "152916.070000", "152917.270000", "152918.470000", "152919.670000", "152920.870000", "152922.070000", "152923.270000", "152924.470000", "152925.670000", "152926.870000", "152928.070000", "152929.270000", "152930.470000", "152931.670000", "152932.870000", "152934.070000", "152935.270000", "152936.470000", "152937.670000", "152938.870000", "152940.070000", "152941.270000", "152942.470000", "152943.670000", "152944.870000", "152946.070000", "152947.270000", "152948.470000", "152949.670000", "152950.870000", "152952.070000", "152953.270000", "152954.470000", "152955.670000", "152956.870000", "152958.070000", "152959.270000", "153000.470000", "153001.670000", "153002.870000", "153004.070000", "153005.270000", "153006.470000", "153007.670000", "153008.870000", "153010.070000", "153011.270000", "153012.470000", "153013.670000", "153014.870000", "153016.070000", "153017.270000", "153018.470000", "153019.670000", "153020.870000", "153022.070000", "153023.270000", "153024.470000", "153025.670000", "153026.870000", "153028.070000", "153029.270000", "153030.470000", "153031.670000", "153032.870000", "153034.070000", "153035.270000", "153036.470000", "153037.670000", "153038.870000", "153040.070000", "153041.270000", "153042.470000", "153043.670000", "153044.870000", "153046.070000", "153047.270000", "153048.470000", "153049.670000", "153050.870000", "153052.070000", "153053.270000", "153054.470000", "153055.670000", "153056.870000", "153058.070000", "153059.270000", "153100.470000", "153101.670000", "153102.870000", "153104.070000", "153105.270000", "153106.470000", "153107.670000", "153108.870000", "153110.070000", "153111.270000", "153112.470000", "153113.670000", "153114.870000", "153116.070000", "153117.270000", "153118.470000", "153119.670000", "153120.870000", "153122.070000", "153123.270000", "153124.470000", "153125.670000", "153126.870000", "153128.070000", "153129.270000", "153130.470000", "153131.670000", "153132.870000", "153134.070000", "153135.270000", "153136.470000", "153137.670000", "153138.870000", "153140.070000", "153141.270000", "153142.470000", "153143.670000", "153144.870000", "153146.070000", "153147.270000", "153148.470000", "153149.670000", "153150.870000", "153152.070000", "153153.270000", "153154.470000", "153155.670000", "153156.870000", "153158.070000", "153159.270000", "153200.470000", "153201.670000", "153202.870000", "153204.070000", "153205.270000", "153206.470000", "153207.670000", "153208.870000", "153210.070000", "153211.270000", "153212.470000", "153213.670000", "153214.870000", "153216.070000", "153217.270000", "153218.470000", "153219.670000", "153220.870000", "153222.070000", "153223.270000", "153224.470000", "153225.670000", "153226.870000", "153228.070000", "153229.270000", "153230.470000", "153231.670000", "153232.870000", "153234.070000", "153235.270000", "153236.470000", "153237.670000", "153238.870000", "153240.070000", "153241.270000", "153242.470000", "153243.670000", "153244.870000", "153246.070000", "153247.270000", "153248.470000", "153249.670000", "153250.870000", "153252.070000", "153253.270000", "153254.470000", "153255.670000", "153256.870000", "153258.070000", "153259.270000", "153300.470000", "153301.670000", "153302.870000", "153304.070000", "153305.270000", "153306.470000", "153307.670000", "153308.870000", "153310.070000", "153311.270000", "153312.470000", "153313.670000", "153314.870000", "153316.070000", "153317.270000", "153318.470000", "153319.670000", "153320.870000", "153322.070000", "153323.270000", "153324.470000", "153325.670000", "153326.870000", "153328.070000", "153329.270000", "153330.470000", "153331.670000", "153332.870000", "153334.070000", "153335.270000", "153336.470000", "153337.670000", "153338.870000", "153340.070000", "153341.270000", "153342.470000", "153343.670000", "153344.870000", "153346.070000", "153347.270000", "153348.470000", "153349.670000", "153350.870000", "153352.070000", "153353.270000", "153354.470000", "153355.670000", "153356.870000", "153358.070000", "153359.270000", "153400.470000", "153401.670000", "153402.870000", "153404.070000", "153405.270000", "153406.470000", "153407.670000", "153408.870000", "153410.070000", "153411.270000", "153412.470000", "153413.670000", "153414.870000", "153416.070000", "153417.270000", "153418.470000", "153419.670000", "153420.870000", "153422.070000", "153423.270000", "153424.470000", "153425.670000", "153426.870000", "153428.070000", "153429.270000", "153430.470000", "153431.670000", "153432.870000", "153434.070000", "153435.270000", "153436.470000", "153437.670000", "153438.870000", "153440.070000", "153441.270000", "153442.470000", "153443.670000", "153444.870000", "153446.070000", "153447.270000", "153448.470000", "153449.670000", "153450.870000", "153452.070000", "153453.270000", "153454.470000", "153455.670000", "153456.870000", "153458.070000", "153459.270000", "153500.470000", "153501.670000", "153502.870000", "153504.070000", "153505.270000", "153506.470000", "153507.670000", "153508.870000", "153510.070000", "153511.270000", "153512.470000", "153513.670000"],
      "ContentTime": ["152737.649000", "152737.652000", "152737.655000", "152737.669000", "152737.671000", "152737.674000", "152737.677000", "152737.679000", "152737.682000", "152737.684000", "152817.645000", "152817.648000", "152817.650000", "152817.660000", "152817.662000", "152817.665000", "152817.668000", "152817.670000", "152817.673000", "152817.675000", "152817.678000", "152817.680000", "152817.683000", "152817.686000", "152817.688000", "152817.691000", "152817.693000", "152817.696000", "152817.699000", "152817.701000", "152817.704000", "152817.706000", "152817.709000", "152817.712000", "152817.714000", "152817.717000", "152817.719000", "152817.722000", "152817.725000", "152817.727000", "152817.730000", "152817.732000", "152817.735000", "152857.644000", "152857.647000", "152857.650000", "152857.652000", "152857.655000", "152857.658000", "152857.660000", "152857.663000", "152857.665000", "152857.668000", "152857.670000", "152857.673000", "152857.676000", "152857.678000", "152857.681000", "152857.683000", "152857.686000", "152857.689000", "152857.691000", "152857.694000", "152857.696000", "152857.699000", "152857.701000", "152857.704000", "152857.706000", "152857.709000", "152857.712000", "152857.714000", "152857.717000", "152857.719000", "152857.722000", "152857.724000", "152857.727000", "152857.730000", "152937.645000", "152937.647000", "152937.650000", "152937.653000", "152937.656000", "152937.658000", "152937.661000", "152937.663000", "152937.666000", "152937.669000", "152937.671000", "152937.674000", "152937.677000", "152937.679000", "152937.682000", "152937.684000", "152937.687000", "152937.690000", "152937.692000", "152937.695000", "152937.697000", "152937.700000", "152937.702000", "152937.705000", "152937.708000", "152937.710000", "152937.713000", "152937.715000", "152937.718000", "152937.721000", "152937.723000", "152937.726000", "152937.728000", "153017.645000", "153017.647000", "153017.650000", "153017.652000", "153017.655000", "153017.659000", "153017.662000", "153017.664000", "153017.667000", "153017.670000", "153017.672000", "153017.675000", "153017.677000", "153017.680000", "153017.683000", "153017.685000", "153017.688000", "153017.690000", "153017.693000", "153017.695000", "153017.698000", "153017.700000", "153017.703000", "153017.705000", "153017.708000", "153017.711000", "153017.713000", "153017.716000", "153017.729000", "153017.732000", "153017.734000", "153017.737000", "153017.740000", "153057.644000", "153057.647000", "153057.650000", "153057.652000", "153057.655000", "153057.657000", "153057.660000", "153057.662000", "153057.665000", "153057.668000", "153057.670000", "153057.673000", "153057.676000", "153057.678000", "153057.681000", "153057.683000", "153057.686000", "153057.688000", "153057.691000", "153057.694000", "153057.696000", "153057.699000", "153057.701000", "153057.708000", "153057.711000", "153057.713000", "153057.716000", "153057.729000", "153057.732000", "153057.734000", "153057.737000", "153057.740000", "153057.742000", "153057.745000", "153137.644000", "153137.647000", "153137.650000", "153137.652000", "153137.655000", "153137.658000", "153137.660000", "153137.663000", "153137.666000", "153137.668000", "153137.671000", "153137.673000", "153137.676000", "153137.678000", "153137.681000", "153137.684000", "153137.686000", "153137.689000", "153137.691000", "153137.694000", "153137.697000", "153137.699000", "153137.702000", "153137.704000", "153137.707000", "153137.709000", "153137.712000", "153137.714000", "153137.717000", "153137.720000", "153137.722000", "153137.725000", "153137.728000", "153217.645000", "153217.648000", "153217.650000", "153217.653000", "153217.657000", "153217.660000", "153217.663000", "153217.665000", "153217.668000", "153217.670000", "153217.673000", "153217.676000", "153217.678000", "153217.681000", "153217.683000", "153217.686000", "153217.688000", "153217.691000", "153217.694000", "153217.696000", "153217.699000", "153217.702000", "153217.704000", "153217.707000", "153217.709000", "153217.712000", "153217.715000", "153217.717000", "153217.720000", "153217.722000", "153217.725000", "153217.728000", "153217.730000", "153257.644000", "153257.647000", "153257.650000", "153257.653000", "153257.656000", "153257.658000", "153257.661000", "153257.664000", "153257.666000", "153257.669000", "153257.671000", "153257.674000", "153257.677000", "153257.679000", "153257.682000", "153257.684000", "153257.687000", "153257.690000", "153257.692000", "153257.695000", "153257.697000", "153257.700000", "153257.703000", "153257.705000", "153257.708000", "153257.710000", "153257.713000", "153257.715000", "153257.718000", "153257.721000", "153257.723000", "153257.726000", "153257.728000", "153337.645000", "153337.647000", "153337.650000", "153337.653000", "153337.655000", "153337.658000", "153337.660000", "153337.663000", "153337.666000", "153337.668000", "153337.671000", "153337.674000", "153337.676000", "153337.679000", "153337.681000", "153337.684000", "153337.687000", "153337.689000", "153337.692000", "153337.694000", "153337.697000", "153337.699000", "153337.702000", "153337.705000", "153337.707000", "153337.710000", "153337.712000", "153337.715000", "153337.718000", "153337.720000", "153337.723000", "153337.725000", "153337.728000", "153337.730000", "153417.644000", "153417.647000", "153417.650000", "153417.653000", "153417.656000", "153417.659000", "153417.662000", "153417.665000", "153417.667000", "153417.670000", "153417.672000", "153417.675000", "153417.678000", "153417.680000", "153417.683000", "153417.686000", "153417.688000", "153417.691000", "153417.693000", "153417.696000", "153417.699000", "153417.701000", "153417.704000", "153417.707000", "153417.709000", "153417.712000", "153417.714000", "153417.717000", "153417.720000", "153417.722000", "153417.725000", "153417.728000", "153417.730000", "153457.645000", "153457.648000", "153457.650000", "153457.653000", "153457.656000", "153457.658000", "153457.661000", "153457.664000", "153457.666000", "153457.669000", "153457.689000", "153457.692000", "153457.694000", "153457.697000", "153457.700000", "153457.702000", "153457.705000", "153457.707000", "153457.710000", "153457.713000", "153457.715000", "153457.718000", "153457.720000", "153457.723000", "153457.726000", "153457.728000", "153457.731000", "153457.733000", "153457.736000", "153457.739000", "153457.741000", "153457.744000", "153457.747000", "153515.684000", "153515.687000", "153515.689000", "153515.692000", "153515.695000", "153515.704000", "153515.707000", "153515.709000", "153515.712000", "153515.714000", "153515.717000", "153515.719000", "153515.722000", "153515.725000", "153515.727000", "153515.730000"],
      "InstanceCreationTime": ["152737.649000", "152737.652000", "152737.655000", "152737.669000", "152737.671000", "152737.674000", "152737.677000", "152737.679000", "152737.682000", "152737.684000", "152817.645000", "152817.648000", "152817.650000", "152817.660000", "152817.662000", "152817.665000", "152817.668000", "152817.670000", "152817.673000", "152817.675000", "152817.678000", "152817.680000", "152817.683000", "152817.686000", "152817.688000", "152817.691000", "152817.693000", "152817.696000", "152817.699000", "152817.701000", "152817.704000", "152817.706000", "152817.709000", "152817.712000", "152817.714000", "152817.717000", "152817.719000", "152817.722000", "152817.725000", "152817.727000", "152817.730000", "152817.732000", "152817.735000", "152857.644000", "152857.647000", "152857.650000", "152857.652000", "152857.655000", "152857.658000", "152857.660000", "152857.663000", "152857.665000", "152857.668000", "152857.670000", "152857.673000", "152857.676000", "152857.678000", "152857.681000", "152857.683000", "152857.686000", "152857.689000", "152857.691000", "152857.694000", "152857.696000", "152857.699000", "152857.701000", "152857.704000", "152857.706000", "152857.709000", "152857.712000", "152857.714000", "152857.717000", "152857.719000", "152857.722000", "152857.724000", "152857.727000", "152857.730000", "152937.645000", "152937.647000", "152937.650000", "152937.653000", "152937.656000", "152937.658000", "152937.661000", "152937.663000", "152937.666000", "152937.669000", "152937.671000", "152937.674000", "152937.677000", "152937.679000", "152937.682000", "152937.684000", "152937.687000", "152937.690000", "152937.692000", "152937.695000", "152937.697000", "152937.700000", "152937.702000", "152937.705000", "152937.708000", "152937.710000", "152937.713000", "152937.715000", "152937.718000", "152937.721000", "152937.723000", "152937.726000", "152937.728000", "153017.645000", "153017.647000", "153017.650000", "153017.652000", "153017.655000", "153017.659000", "153017.662000", "153017.664000", "153017.667000", "153017.670000", "153017.672000", "153017.675000", "153017.677000", "153017.680000", "153017.683000", "153017.685000", "153017.688000", "153017.690000", "153017.693000", "153017.695000", "153017.698000", "153017.700000", "153017.703000", "153017.705000", "153017.708000", "153017.711000", "153017.713000", "153017.716000", "153017.729000", "153017.732000", "153017.734000", "153017.737000", "153017.740000", "153057.644000", "153057.647000", "153057.650000", "153057.652000", "153057.655000", "153057.657000", "153057.660000", "153057.662000", "153057.665000", "153057.668000", "153057.670000", "153057.673000", "153057.676000", "153057.678000", "153057.681000", "153057.683000", "153057.686000", "153057.688000", "153057.691000", "153057.694000", "153057.696000", "153057.699000", "153057.701000", "153057.708000", "153057.711000", "153057.713000", "153057.716000", "153057.729000", "153057.732000", "153057.734000", "153057.737000", "153057.740000", "153057.742000", "153057.745000", "153137.644000", "153137.647000", "153137.650000", "153137.652000", "153137.655000", "153137.658000", "153137.660000", "153137.663000", "153137.666000", "153137.668000", "153137.671000", "153137.673000", "153137.676000", "153137.678000", "153137.681000", "153137.684000", "153137.686000", "153137.689000", "153137.691000", "153137.694000", "153137.697000", "153137.699000", "153137.702000", "153137.704000", "153137.707000", "153137.709000", "153137.712000", "153137.714000", "153137.717000", "153137.720000", "153137.722000", "153137.725000", "153137.728000", "153217.645000", "153217.648000", "153217.650000", "153217.653000", "153217.657000", "153217.660000", "153217.663000", "153217.665000", "153217.668000", "153217.670000", "153217.673000", "153217.676000", "153217.678000", "153217.681000", "153217.683000", "153217.686000", "153217.688000", "153217.691000", "153217.694000", "153217.696000", "153217.699000", "153217.702000", "153217.704000", "153217.707000", "153217.709000", "153217.712000", "153217.715000", "153217.717000", "153217.720000", "153217.722000", "153217.725000", "153217.728000", "153217.730000", "153257.644000", "153257.647000", "153257.650000", "153257.653000", "153257.656000", "153257.658000", "153257.661000", "153257.664000", "153257.666000", "153257.669000", "153257.671000", "153257.674000", "153257.677000", "153257.679000", "153257.682000", "153257.684000", "153257.687000", "153257.690000", "153257.692000", "153257.695000", "153257.697000", "153257.700000", "153257.703000", "153257.705000", "153257.708000", "153257.710000", "153257.713000", "153257.715000", "153257.718000", "153257.721000", "153257.723000", "153257.726000", "153257.728000", "153337.645000", "153337.647000", "153337.650000", "153337.653000", "153337.655000", "153337.658000", "153337.660000", "153337.663000", "153337.666000", "153337.668000", "153337.671000", "153337.674000", "153337.676000", "153337.679000", "153337.681000", "153337.684000", "153337.687000", "153337.689000", "153337.692000", "153337.694000", "153337.697000", "153337.699000", "153337.702000", "153337.705000", "153337.707000", "153337.710000", "153337.712000", "153337.715000", "153337.718000", "153337.720000", "153337.723000", "153337.725000", "153337.728000", "153337.730000", "153417.644000", "153417.647000", "153417.650000", "153417.653000", "153417.656000", "153417.659000", "153417.662000", "153417.665000", "153417.667000", "153417.670000", "153417.672000", "153417.675000", "153417.678000", "153417.680000", "153417.683000", "153417.686000", "153417.688000", "153417.691000", "153417.693000", "153417.696000", "153417.699000", "153417.701000", "153417.704000", "153417.707000", "153417.709000", "153417.712000", "153417.714000", "153417.717000", "153417.720000", "153417.722000", "153417.725000", "153417.728000", "153417.730000", "153457.645000", "153457.648000", "153457.650000", "153457.653000", "153457.656000", "153457.658000", "153457.661000", "153457.664000", "153457.666000", "153457.669000", "153457.689000", "153457.692000", "153457.694000", "153457.697000", "153457.700000", "153457.702000", "153457.705000", "153457.707000", "153457.710000", "153457.713000", "153457.715000", "153457.718000", "153457.720000", "153457.723000", "153457.726000", "153457.728000", "153457.731000", "153457.733000", "153457.736000", "153457.739000", "153457.741000", "153457.744000", "153457.747000", "153515.684000", "153515.687000", "153515.689000", "153515.692000", "153515.695000", "153515.704000", "153515.707000", "153515.709000", "153515.712000", "153515.714000", "153515.717000", "153515.719000", "153515.722000", "153515.725000", "153515.727000", "153515.730000"],
      "InstanceNumber": [1, 2, 3, 4, 5, 6, 7, 8, 9, 10, 11, 12, 13, 14, 15, 16, 17, 18, 19, 20, 21, 22, 23, 24, 25, 26, 27, 28, 29, 30, 31, 32, 33, 34, 35, 36, 37, 38, 39, 40, 41, 42, 43, 44, 45, 46, 47, 48, 49, 50, 51, 52, 53, 54, 55, 56, 57, 58, 59, 60, 61, 62, 63, 64, 65, 66, 67, 68, 69, 70, 71, 72, 73, 74, 75, 76, 77, 78, 79, 80, 81, 82, 83, 84, 85, 86, 87, 88, 89, 90, 91, 92, 93, 94, 95, 96, 97, 98, 99, 100, 101, 102, 103, 104, 105, 106, 107, 108, 109, 110, 111, 112, 113, 114, 115, 116, 117, 118, 119, 120, 121, 122, 123, 124, 125, 126, 127, 128, 129, 130, 131, 132, 133, 134, 135, 136, 137, 138, 139, 140, 141, 142, 143, 144, 145, 146, 147, 148, 149, 150, 151, 152, 153, 154, 155, 156, 157, 158, 159, 160, 161, 162, 163, 164, 165, 166, 167, 168, 169, 170, 171, 172, 173, 174, 175, 176, 177, 178, 179, 180, 181, 182, 183, 184, 185, 186, 187, 188, 189, 190, 191, 192, 193, 194, 195, 196, 197, 198, 199, 200, 201, 202, 203, 204, 205, 206, 207, 208, 209, 210, 211, 212, 213, 214, 215, 216, 217, 218, 219, 220, 221, 222, 223, 224, 225, 226, 227, 228, 229, 230, 231, 232, 233, 234, 235, 236, 237, 238, 239, 240, 241, 242, 243, 244, 245, 246, 247, 248, 249, 250, 251, 252, 253, 254, 255, 256, 257, 258, 259, 260, 261, 262, 263, 264, 265, 266, 267, 268, 269, 270, 271, 272, 273, 274, 275, 276, 277, 278, 279, 280, 281, 282, 283, 284, 285, 286, 287, 288, 289, 290, 291, 292, 293, 294, 295, 296, 297, 298, 299, 300, 301, 302, 303, 304, 305, 306, 307, 308, 309, 310, 311, 312, 313, 314, 315, 316, 317, 318, 319, 320, 321, 322, 323, 324, 325, 326, 327, 328, 329, 330, 331, 332, 333, 334, 335, 336, 337, 338, 339, 340, 341, 342, 343, 344, 345, 346, 347, 348, 349, 350, 351, 352, 353, 354, 355, 356, 357, 358, 359, 360, 361, 362, 363, 364, 365, 366, 367, 368, 369, 370, 371, 372, 373, 374, 375, 376, 377, 378, 379, 380, 381, 382, 383, 384, 385, 386, 387, 388, 389, 390, 391, 392],
