{
  "AcquisitionMatrixPE": 88,
  "AcquisitionNumber": 1,
  "AcquisitionTime": "15:24:9.017500",
  "BandwidthPerPixelPhaseEncode": 19.592,
  "BaseResolution": 88,
  "BodyPartExamined": "BRAIN",
  "ConsistencyInfo": "N4_VE11C_LATEST_20160120",
  "ConversionSoftware": "dcm2niix",
  "ConversionSoftwareVersion": "v1.0.20190902",
  "DerivedVendorReportedEchoSpacing": 0.000580014,
  "DeviceSerialNumber": "67050",
  "DwellTime": 2.6e-06,
  "EchoTime": 0.033,
  "EchoTrainLength": 88,
  "EffectiveEchoSpacing": 0.000580014,
  "FlipAngle": 62,
  "ImageOrientationPatientDICOM": [0.996601, 0.014862, 0.081029, -0.0114805, 0.99905, -0.0420397],
  "ImageType": [
    "ORIGINAL",
    "PRIMARY",
    "M",
    "ND",
    "MOSAIC"
],
  "ImagingFrequency": 123.251,
  "InPlanePhaseEncodingDirectionDICOM": "COL",
  "InstitutionAddress": "Olive_Street_60_Providence_RI_US_02912",
  "InstitutionName": "BROWN_UNIVERSITY_MRF",
  "InstitutionalDepartmentName": "Department",
  "MRAcquisitionType": "2D",
  "MagneticFieldStrength": 3,
  "Manufacturer": "Siemens",
  "ManufacturersModelName": "Prisma_fit",
  "Modality": "MR",
  "MultibandAccelerationFactor": 4,
  "PartialFourier": 1,
  "PatientPosition": "HFS",
  "PercentPhaseFOV": 100,
  "PhaseEncodingDirection": "j-",
  "PhaseEncodingSteps": 88,
  "PhaseResolution": 1,
  "PixelBandwidth": 2185,
  "ProcedureStepDescription": "ASHENHAV_1222",
  "ProtocolName": "func-bold_task-RDMmotion_run-01",
  "PulseSequenceDetails": "%SiemensSeq%_ep2d_bold",
  "ReceiveCoilActiveElements": "HC1-7",
  "ReceiveCoilName": "HeadNeck_64",
  "ReconMatrixPE": 88,
  "RefLinesPE": 8,
  "RepetitionTime": 1.2,
  "SAR": 0.0501663,
  "ScanOptions": "FS",
  "ScanningSequence": "EP",
  "SequenceName": "_epfid2d1_88",
  "SequenceVariant": "SK",
  "SeriesDescription": "func-bold_task-RDMmotion_run-01",
  "SeriesNumber": 7,
  "ShimSetting": [1777, -9075, 4423, 477, -157, -280, 45, 0],
  "SliceThickness": 2.4,
  "SliceTiming": [0.55, 0, 0.6275, 0.0775, 0.7075, 0.155, 0.785, 0.235, 0.865, 0.3125, 0.9425, 0.3925, 1.0225, 0.47, 1.1, 0.55, 0, 0.6275, 0.0775, 0.7075, 0.155, 0.785, 0.235, 0.865, 0.3125, 0.9425, 0.3925, 1.0225, 0.47, 1.1, 0.55, 0, 0.6275, 0.0775, 0.7075, 0.155, 0.785, 0.235, 0.865, 0.3125, 0.9425, 0.3925, 1.0225, 0.47, 1.1, 0.55, 0, 0.6275, 0.0775, 0.7075, 0.155, 0.785, 0.235, 0.865, 0.3125, 0.9425, 0.3925, 1.0225, 0.47, 1.1],
  "SoftwareVersions": "syngo_MR_E11",
  "SpacingBetweenSlices": 2.4,
  "StationName": "AWP67050",
  "TaskName": "RDMmotion",
  "TotalReadoutTime": 0.0504612,
  "TxRefAmp": 236.972,
  "dcmmeta_affine": [
    [-2.3895771503448486, -0.027527064085006714, 0.195784330368042, 102.752685546875],
    [-0.03563505411148071, 2.39544939994812, -0.09831973165273666, -92.75927734375],
    [0.19428542256355286, 0.10079973936080933, 2.389979362487793, -86.37842559814453],
    [0.0, 0.0, 0.0, 1.0]
],
  "dcmmeta_reorient_transform": [
    [0.0, -1.0, 0.0, 87.0],
    [1.0, 0.0, 0.0, 0.0],
    [0.0, 0.0, 1.0, 0.0],
    [0.0, 0.0, 0.0, 1.0]
],
  "dcmmeta_shape": [88, 88, 60, 125],
  "dcmmeta_slice_dim": 2,
  "dcmmeta_version": 0.6,
  "global": {
    "const": {
      "AcquisitionMatrix": [88, 0, 0, 88],
      "AngioFlag": "N",
      "BitsAllocated": 16,
      "BitsStored": 12,
      "BodyPartExamined": "BRAIN",
      "Columns": 704,
      "DeidentificationMethodCodeSequence": [
        {
          "CodeMeaning": "XNAT DicomEdit 6 Script",
          "CodeValue": "3",
          "CodingSchemeDesignator": "XNAT",
          "CodingSchemeVersion": "1.0"}
],
      "EchoNumbers": 1,
      "EchoTime": 33.0,
      "EchoTrainLength": 88,
      "FlipAngle": 62.0,
      "HighBit": 11,
      "ImageOrientationPatient": [0.99660093492524, 0.0148620130788, 0.08102898909271, -0.011480482122, 0.99904997967526, -0.0420397031521],
      "ImagePositionPatient": [-827.8692774452, -864.41881814517, -106.40243280549],
      "ImageType": [
        "ORIGINAL",
        "PRIMARY",
        "M",
        "ND",
        "MOSAIC"
],
      "ImagedNucleus": "1H",
      "ImagingFrequency": 123.250675,
      "InPlanePhaseEncodingDirection": "COL",
      "MRAcquisitionType": "2D",
      "MagneticFieldStrength": 3.0,
      "Manufacturer": "SIEMENS",
      "ManufacturerModelName": "Prisma_fit",
      "Modality": "MR",
      "NumberOfAverages": 1.0,
      "NumberOfPhaseEncodingSteps": 88,
      "PercentPhaseFieldOfView": 100.0,
      "PercentSampling": 100.0,
      "PerformedProcedureStepStartTime": "145313.809000",
      "PhotometricInterpretation": "MONOCHROME2",
      "PixelBandwidth": 2185.0,
      "PixelRepresentation": 0,
      "PixelSpacing": [2.3977272510529, 2.3977272510529],
      "ProtocolName": "func-bold_task-RDMmotion_run-01",
      "RepetitionTime": 1200.0,
      "Rows": 704,
      "SAR": 0.05016625538395,
      "SamplesPerPixel": 1,
      "ScanOptions": "FS",
      "ScanningSequence": "EP",
      "SequenceName": "*epfid2d1_88",
      "SequenceVariant": "SK",
      "SeriesDescription": "func-bold_task-RDMmotion_run-01",
      "SeriesNumber": 7,
      "SeriesTime": "152437.523000",
      "SliceLocation": -73.835509203022,
      "SliceThickness": 2.4000000953674,
      "SmallestImagePixelValue": 0,
      "SoftwareVersions": "syngo MR E11",
      "SpacingBetweenSlices": 2.4000000347878,
      "SpecificCharacterSet": "ISO_IR 100",
      "StudyID": "1",
      "StudyTime": "145313.737000",
      "TransmitCoilName": "Body",
      "VariableFlipAngleFlag": "N",
      "WindowCenterWidthExplanation": "Algo1",
      "dBdt": 0.0},
    "slices": {}
  },
  "time": {
    "samples": {
      "AcquisitionNumber": [1, 2, 3, 4, 5, 6, 7, 8, 9, 10, 11, 12, 13, 14, 15, 16, 17, 18, 19, 20, 21, 22, 23, 24, 25, 26, 27, 28, 29, 30, 31, 32, 33, 34, 35, 36, 37, 38, 39, 40, 41, 42, 43, 44, 45, 46, 47, 48, 49, 50, 51, 52, 53, 54, 55, 56, 57, 58, 59, 60, 61, 62, 63, 64, 65, 66, 67, 68, 69, 70, 71, 72, 73, 74, 75, 76, 77, 78, 79, 80, 81, 82, 83, 84, 85, 86, 87, 88, 89, 90, 91, 92, 93, 94, 95, 96, 97, 98, 99, 100, 101, 102, 103, 104, 105, 106, 107, 108, 109, 110, 111, 112, 113, 114, 115, 116, 117, 118, 119, 120, 121, 122, 123, 124, 125],
      "AcquisitionTime": ["152409.017500", "152410.217500", "152411.417500", "152412.617500", "152413.817500", "152415.017500", "152416.217500", "152417.417500", "152418.617500", "152419.817500", "152421.017500", "152422.217500", "152423.417500", "152424.617500", "152425.817500", "152427.017500", "152428.217500", "152429.417500", "152430.617500", "152431.817500", "152433.017500", "152434.217500", "152435.417500", "152436.617500", "152437.817500", "152439.017500", "152440.217500", "152441.417500", "152442.617500", "152443.817500", "152445.017500", "152446.217500", "152447.417500", "152448.617500", "152449.817500", "152451.017500", "152452.217500", "152453.417500", "152454.617500", "152455.817500", "152457.017500", "152458.217500", "152459.417500", "152500.617500", "152501.817500", "152503.017500", "152504.217500", "152505.417500", "152506.617500", "152507.817500", "152509.017500", "152510.217500", "152511.417500", "152512.617500", "152513.817500", "152515.017500", "152516.217500", "152517.417500", "152518.617500", "152519.817500", "152521.017500", "152522.217500", "152523.417500", "152524.617500", "152525.817500", "152527.017500", "152528.217500", "152529.417500", "152530.617500", "152531.817500", "152533.017500", "152534.217500", "152535.417500", "152536.617500", "152537.817500", "152539.017500", "152540.217500", "152541.417500", "152542.617500", "152543.817500", "152545.017500", "152546.217500", "152547.417500", "152548.617500", "152549.817500", "152551.017500", "152552.217500", "152553.417500", "152554.617500", "152555.817500", "152557.017500", "152558.217500", "152559.417500", "152600.617500", "152601.817500", "152603.017500", "152604.217500", "152605.417500", "152606.617500", "152607.817500", "152609.017500", "152610.217500", "152611.417500", "152612.617500", "152613.817500", "152615.017500", "152616.217500", "152617.417500", "152618.617500", "152619.817500", "152621.017500", "152622.217500", "152623.417500", "152624.617500", "152625.817500", "152627.017500", "152628.217500", "152629.417500", "152630.617500", "152631.817500", "152633.017500", "152634.217500", "152635.417500", "152636.617500", "152637.817500"],
      "ContentTime": ["152437.527000", "152437.531000", "152437.533000", "152437.545000", "152437.548000", "152437.551000", "152437.554000", "152437.556000", "152437.559000", "152437.562000", "152437.565000", "152437.567000", "152437.570000", "152437.573000", "152437.576000", "152437.578000", "152437.587000", "152437.590000", "152437.593000", "152437.595000", "152437.598000", "152437.601000", "152437.603000", "152517.521000", "152517.524000", "152517.526000", "152517.529000", "152517.532000", "152517.534000", "152517.537000", "152517.539000", "152517.542000", "152517.545000", "152517.547000", "152517.550000", "152517.553000", "152517.555000", "152517.558000", "152517.560000", "152517.563000", "152517.566000", "152517.568000", "152517.571000", "152517.574000", "152517.576000", "152517.579000", "152517.581000", "152517.584000", "152517.604000", "152517.607000", "152517.609000", "152517.612000", "152517.615000", "152517.618000", "152517.620000", "152517.623000", "152557.520000", "152557.523000", "152557.526000", "152557.528000", "152557.531000", "152557.534000", "152557.536000", "152557.539000", "152557.541000", "152557.544000", "152557.546000", "152557.549000", "152557.552000", "152557.554000", "152557.557000", "152557.559000", "152557.562000", "152557.565000", "152557.567000", "152557.570000", "152557.572000", "152557.575000", "152557.577000", "152557.580000", "152557.583000", "152557.585000", "152557.588000", "152557.591000", "152557.593000", "152557.596000", "152557.598000", "152557.601000", "152557.604000", "152557.606000", "152637.522000", "152637.524000", "152637.527000", "152637.530000", "152637.532000", "152637.535000", "152637.537000", "152637.540000", "152637.551000", "152637.553000", "152637.556000", "152637.558000", "152637.561000", "152637.564000", "152637.582000", "152637.584000", "152637.587000", "152637.589000", "152637.597000", "152637.600000", "152637.603000", "152637.605000", "152637.608000", "152637.610000", "152637.613000", "152637.616000", "152637.618000", "152637.621000", "152637.623000", "152637.626000", "152637.629000", "152637.631000", "152637.634000", "152639.529000", "152639.532000"],
      "InstanceCreationTime": ["152437.527000", "152437.531000", "152437.533000", "152437.545000", "152437.548000", "152437.551000", "152437.554000", "152437.556000", "152437.559000", "152437.562000", "152437.565000", "152437.567000", "152437.570000", "152437.573000", "152437.576000", "152437.578000", "152437.587000", "152437.590000", "152437.593000", "152437.595000", "152437.598000", "152437.601000", "152437.603000", "152517.521000", "152517.524000", "152517.526000", "152517.529000", "152517.532000", "152517.534000", "152517.537000", "152517.539000", "152517.542000", "152517.545000", "152517.547000", "152517.550000", "152517.553000", "152517.555000", "152517.558000", "152517.560000", "152517.563000", "152517.566000", "152517.568000", "152517.571000", "152517.574000", "152517.576000", "152517.579000", "152517.581000", "152517.584000", "152517.604000", "152517.607000", "152517.609000", "152517.612000", "152517.615000", "152517.618000", "152517.620000", "152517.623000", "152557.520000", "152557.523000", "152557.526000", "152557.528000", "152557.531000", "152557.534000", "152557.536000", "152557.539000", "152557.541000", "152557.544000", "152557.546000", "152557.549000", "152557.552000", "152557.554000", "152557.557000", "152557.559000", "152557.562000", "152557.565000", "152557.567000", "152557.570000", "152557.572000", "152557.575000", "152557.577000", "152557.580000", "152557.583000", "152557.585000", "152557.588000", "152557.591000", "152557.593000", "152557.596000", "152557.598000", "152557.601000", "152557.604000", "152557.606000", "152637.522000", "152637.524000", "152637.527000", "152637.530000", "152637.532000", "152637.535000", "152637.537000", "152637.540000", "152637.551000", "152637.553000", "152637.556000", "152637.558000", "152637.561000", "152637.564000", "152637.582000", "152637.584000", "152637.587000", "152637.589000", "152637.597000", "152637.600000", "152637.603000", "152637.605000", "152637.608000", "152637.610000", "152637.613000", "152637.616000", "152637.618000", "152637.621000", "152637.623000", "152637.626000", "152637.629000", "152637.631000", "152637.634000", "152639.529000", "152639.532000"],
      "InstanceNumber": [1, 2, 3, 4, 5, 6, 7, 8, 9, 10, 11, 12, 13, 14, 15, 16, 17, 18, 19, 20, 21, 22, 23, 24, 25, 26, 27, 28, 29, 30, 31, 32, 33, 34, 35, 36, 37, 38, 39, 40, 41, 42, 43, 44, 45, 46, 47, 48, 49, 50, 51, 52, 53, 54, 55, 56, 57, 58, 59, 60, 61, 62, 63, 64, 65, 66, 67, 68, 69, 70, 71, 72, 73, 74, 75, 76, 77, 78, 79, 80, 81, 82, 83, 84, 85, 86, 87, 88, 89, 90, 91, 92, 93, 94, 95, 96, 97, 98, 99, 100, 101, 102, 103, 104, 105, 106, 107, 108, 109, 110, 111, 112, 113, 114, 115, 116, 117, 118, 119, 120, 121, 122, 123, 124, 125],
      "LargestImagePixelValue": [2393, 2312, 2293, 2238, 2267, 2253, 2237, 2263, 2282, 2250, 2269, 2289, 2255, 2258, 2271, 2237, 2262, 2240, 2250, 2253, 2230, 2253, 2237, 2220, 2248, 2236, 2232, 2270, 2243, 2224, 2254, 2245, 2219, 2255, 2248, 2242, 2234, 2249, 2222, 2246, 2216, 2251, 2231, 2217, 2258, 2243, 2202, 2243, 2248, 2229, 2253, 2234, 2230, 2226, 2210, 2239, 2246, 2220, 2220, 2222, 2232, 2244, 2221, 2226, 2236, 2245, 2243, 2222, 2234, 2233, 2224, 2206, 2221, 2238, 2218, 2235, 2254, 2236, 2248, 2249, 2250, 2237, 2245, 2245, 2248, 2246, 2253, 2247, 2236, 2227, 2248, 2244, 2229, 2223, 2219, 2241, 2233, 2227, 2225, 2206, 2223, 2242, 2226, 2205, 2207, 2212, 2232, 2193, 2223, 2230, 2205, 2231, 2231, 2228, 2229, 2208, 2226, 2235, 2200, 2214, 2201, 2205, 2236, 2252, 2210],
      "WindowCenter": [651.0, 648.0, 647.0, 646.0, 646.0, 646.0, 645.0, 646.0, 647.0, 647.0, 647.0, 648.0, 648.0, 648.0, 647.0, 646.0, 646.0, 646.0, 646.0, 646.0, 646.0, 646.0, 645.0, 645.0, 645.0, 646.0, 646.0, 647.0, 646.0, 645.0, 645.0, 645.0, 645.0, 645.0, 645.0, 644.0, 645.0, 645.0, 645.0, 645.0, 645.0, 645.0, 645.0, 646.0, 646.0, 645.0, 644.0, 645.0, 645.0, 645.0, 645.0, 645.0, 645.0, 644.0, 645.0, 645.0, 645.0, 645.0, 645.0, 645.0, 645.0, 645.0, 645.0, 645.0, 645.0, 645.0, 645.0, 645.0, 645.0, 645.0, 644.0, 644.0, 645.0, 646.0, 646.0, 646.0, 646.0, 645.0, 645.0, 646.0, 646.0, 645.0, 645.0, 645.0, 645.0, 645.0, 646.0, 646.0, 645.0, 645.0, 646.0, 645.0, 645.0, 645.0, 645.0, 645.0, 644.0, 644.0, 644.0, 644.0, 645.0, 645.0, 644.0, 644.0, 644.0, 645.0, 645.0, 644.0, 644.0, 645.0, 645.0, 646.0, 646.0, 645.0, 645.0, 646.0, 645.0, 644.0, 644.0, 643.0, 644.0, 645.0, 645.0, 646.0, 645.0],
      "WindowWidth": [1400.0, 1392.0, 1390.0, 1386.0, 1386.0, 1386.0, 1384.0, 1387.0, 1389.0, 1389.0, 1390.0, 1392.0, 1391.0, 1391.0, 1389.0, 1386.0, 1387.0, 1386.0, 1386.0, 1387.0, 1387.0, 1386.0, 1386.0, 1385.0, 1385.0, 1386.0, 1387.0, 1388.0, 1387.0, 1386.0, 1386.0, 1386.0, 1384.0, 1385.0, 1384.0, 1383.0, 1384.0, 1384.0, 1383.0, 1384.0, 1384.0, 1385.0, 1385.0, 1386.0, 1386.0, 1385.0, 1383.0, 1384.0, 1385.0, 1384.0, 1385.0, 1385.0, 1384.0, 1383.0, 1384.0, 1384.0, 1384.0, 1384.0, 1383.0, 1384.0, 1384.0, 1384.0, 1386.0, 1385.0, 1385.0, 1385.0, 1384.0, 1383.0, 1385.0, 1383.0, 1383.0, 1383.0, 1383.0, 1386.0, 1386.0, 1386.0, 1387.0, 1386.0, 1385.0, 1386.0, 1386.0, 1386.0, 1385.0, 1385.0, 1386.0, 1386.0, 1386.0, 1387.0, 1384.0, 1384.0, 1386.0, 1384.0, 1385.0, 1385.0, 1384.0, 1384.0, 1383.0, 1383.0, 1383.0, 1383.0, 1385.0, 1385.0, 1383.0, 1383.0, 1383.0, 1384.0, 1384.0, 1383.0, 1383.0, 1385.0, 1385.0, 1387.0, 1387.0, 1385.0, 1385.0, 1386.0, 1384.0, 1383.0, 1381.0, 1380.0, 1382.0, 1384.0, 1385.0, 1386.0, 1385.0]
    },
    "slices": {}
  }
}