{
  "AcquisitionMatrixPE": 88,
  "AcquisitionNumber": 1,
  "AcquisitionTime": "16:38:58.290000",
  "BandwidthPerPixelPhaseEncode": 19.592,
  "BaseResolution": 88,
  "BodyPartExamined": "BRAIN",
  "ConsistencyInfo": "N4_VE11C_LATEST_20160120",
  "ConversionSoftware": "dcm2niix",
  "ConversionSoftwareVersion": "v1.0.20190902",
  "DerivedVendorReportedEchoSpacing": 0.000580014,
  "DeviceSerialNumber": "67050",
  "DwellTime": 2.6e-06,
  "EchoTime": 0.033,
  "EchoTrainLength": 88,
  "EffectiveEchoSpacing": 0.000580014,
  "FlipAngle": 62,
  "ImageOrientationPatientDICOM": [0.996601, 0.014862, 0.081029, -0.0114805, 0.99905, -0.0420397],
  "ImageType": [
    "ORIGINAL",
    "PRIMARY",
    "M",
    "ND",
    "MOSAIC"
],
  "ImagingFrequency": 123.251,
  "InPlanePhaseEncodingDirectionDICOM": "COL",
  "InstitutionAddress": "Olive_Street_60_Providence_RI_US_02912",
  "InstitutionName": "BROWN_UNIVERSITY_MRF",
  "InstitutionalDepartmentName": "Department",
  "MRAcquisitionType": "2D",
  "MagneticFieldStrength": 3,
  "Manufacturer": "Siemens",
  "ManufacturersModelName": "Prisma_fit",
  "Modality": "MR",
  "MultibandAccelerationFactor": 4,
  "PartialFourier": 1,
  "PatientPosition": "HFS",
  "PercentPhaseFOV": 100,
  "PhaseEncodingDirection": "j-",
  "PhaseEncodingSteps": 88,
  "PhaseResolution": 1,
  "PixelBandwidth": 2185,
  "ProcedureStepDescription": "ASHENHAV_1222",
  "ProtocolName": "func-bold_task-RDMlocalizer_run-02",
  "PulseSequenceDetails": "%SiemensSeq%_ep2d_bold",
  "ReceiveCoilActiveElements": "HC1-7",
  "ReceiveCoilName": "HeadNeck_64",
  "ReconMatrixPE": 88,
  "RefLinesPE": 8,
  "RepetitionTime": 1.2,
  "SAR": 0.0504328,
  "ScanOptions": "FS",
  "ScanningSequence": "EP",
  "SequenceName": "_epfid2d1_88",
  "SequenceVariant": "SK",
  "SeriesDescription": "func-bold_task-RDMlocalizer_run-02",
  "SeriesNumber": 20,
  "ShimSetting": [1777, -9075, 4423, 477, -157, -280, 45, 0],
  "SliceThickness": 2.4,
  "SliceTiming": [0.55, 0, 0.63, 0.08, 0.7075, 0.1575, 0.7875, 0.2375, 0.865, 0.315, 0.945, 0.395, 1.0225, 0.4725, 1.1025, 0.55, 0, 0.63, 0.08, 0.7075, 0.1575, 0.7875, 0.2375, 0.865, 0.315, 0.945, 0.395, 1.0225, 0.4725, 1.1025, 0.55, 0, 0.63, 0.08, 0.7075, 0.1575, 0.7875, 0.2375, 0.865, 0.315, 0.945, 0.395, 1.0225, 0.4725, 1.1025, 0.55, 0, 0.63, 0.08, 0.7075, 0.1575, 0.7875, 0.2375, 0.865, 0.315, 0.945, 0.395, 1.0225, 0.4725, 1.1025],
  "SoftwareVersions": "syngo_MR_E11",
  "SpacingBetweenSlices": 2.4,
  "StationName": "AWP67050",
  "TaskName": "RDMlocalizer",
  "TotalReadoutTime": 0.0504612,
  "TxRefAmp": 236.972,
  "dcmmeta_affine": [
    [-2.3895771503448486, -0.027527064085006714, 0.195784330368042, 102.752685546875],
    [-0.03563505411148071, 2.39544939994812, -0.09831973165273666, -92.75927734375],
    [0.19428542256355286, 0.10079973936080933, 2.389979362487793, -86.37842559814453],
    [0.0, 0.0, 0.0, 1.0]
],
  "dcmmeta_reorient_transform": [
    [0.0, -1.0, 0.0, 87.0],
    [1.0, 0.0, 0.0, 0.0],
    [0.0, 0.0, 1.0, 0.0],
    [0.0, 0.0, 0.0, 1.0]
],
  "dcmmeta_shape": [88, 88, 60, 195],
  "dcmmeta_slice_dim": 2,
  "dcmmeta_version": 0.6,
  "global": {
    "const": {
      "AcquisitionMatrix": [88, 0, 0, 88],
      "AngioFlag": "N",
      "BitsAllocated": 16,
      "BitsStored": 12,
      "BodyPartExamined": "BRAIN",
      "Columns": 704,
      "DeidentificationMethodCodeSequence": [
        {
          "CodeMeaning": "XNAT DicomEdit 6 Script",
          "CodeValue": "3",
          "CodingSchemeDesignator": "XNAT",
          "CodingSchemeVersion": "1.0"}
],
      "EchoNumbers": 1,
      "EchoTime": 33.0,
      "EchoTrainLength": 88,
      "FlipAngle": 62.0,
      "HighBit": 11,
      "ImageOrientationPatient": [0.99660093492524, 0.0148620130788, 0.08102898909271, -0.011480482122, 0.99904997967526, -0.0420397031521],
      "ImagePositionPatient": [-827.8692774452, -864.41881814517, -106.40243280549],
      "ImageType": [
        "ORIGINAL",
        "PRIMARY",
        "M",
        "ND",
        "MOSAIC"
],
      "ImagedNucleus": "1H",
      "ImagingFrequency": 123.2507,
      "InPlanePhaseEncodingDirection": "COL",
      "MRAcquisitionType": "2D",
      "MagneticFieldStrength": 3.0,
      "Manufacturer": "SIEMENS",
      "ManufacturerModelName": "Prisma_fit",
      "Modality": "MR",
      "NumberOfAverages": 1.0,
      "NumberOfPhaseEncodingSteps": 88,
      "PercentPhaseFieldOfView": 100.0,
      "PercentSampling": 100.0,
      "PerformedProcedureStepStartTime": "145313.809000",
      "PhotometricInterpretation": "MONOCHROME2",
      "PixelBandwidth": 2185.0,
      "PixelRepresentation": 0,
      "PixelSpacing": [2.3977272510529, 2.3977272510529],
      "ProtocolName": "func-bold_task-RDMlocalizer_run-02",
      "RepetitionTime": 1200.0,
      "Rows": 704,
      "SAR": 0.05043280177103,
      "SamplesPerPixel": 1,
      "ScanOptions": "FS",
      "ScanningSequence": "EP",
      "SequenceName": "*epfid2d1_88",
      "SequenceVariant": "SK",
      "SeriesDescription": "func-bold_task-RDMlocalizer_run-02",
      "SeriesNumber": 20,
      "SeriesTime": "163937.645000",
      "SliceLocation": -73.835509203022,
      "SliceThickness": 2.4000000953674,
      "SmallestImagePixelValue": 0,
      "SoftwareVersions": "syngo MR E11",
      "SpacingBetweenSlices": 2.4000000347878,
      "SpecificCharacterSet": "ISO_IR 100",
      "StudyID": "1",
      "StudyTime": "145313.737000",
      "TransmitCoilName": "Body",
      "VariableFlipAngleFlag": "N",
      "WindowCenterWidthExplanation": "Algo1",
      "dBdt": 0.0},
    "slices": {}
  },
  "time": {
    "samples": {
      "AcquisitionNumber": [1, 2, 3, 4, 5, 6, 7, 8, 9, 10, 11, 12, 13, 14, 15, 16, 17, 18, 19, 20, 21, 22, 23, 24, 25, 26, 27, 28, 29, 30, 31, 32, 33, 34, 35, 36, 37, 38, 39, 40, 41, 42, 43, 44, 45, 46, 47, 48, 49, 50, 51, 52, 53, 54, 55, 56, 57, 58, 59, 60, 61, 62, 63, 64, 65, 66, 67, 68, 69, 70, 71, 72, 73, 74, 75, 76, 77, 78, 79, 80, 81, 82, 83, 84, 85, 86, 87, 88, 89, 90, 91, 92, 93, 94, 95, 96, 97, 98, 99, 100, 101, 102, 103, 104, 105, 106, 107, 108, 109, 110, 111, 112, 113, 114, 115, 116, 117, 118, 119, 120, 121, 122, 123, 124, 125, 126, 127, 128, 129, 130, 131, 132, 133, 134, 135, 136, 137, 138, 139, 140, 141, 142, 143, 144, 145, 146, 147, 148, 149, 150, 151, 152, 153, 154, 155, 156, 157, 158, 159, 160, 161, 162, 163, 164, 165, 166, 167, 168, 169, 170, 171, 172, 173, 174, 175, 176, 177, 178, 179, 180, 181, 182, 183, 184, 185, 186, 187, 188, 189, 190, 191, 192, 193, 194, 195],
      "AcquisitionTime": ["163858.290000", "163859.490000", "163900.690000", "163901.890000", "163903.090000", "163904.290000", "163905.490000", "163906.690000", "163907.890000", "163909.090000", "163910.290000", "163911.490000", "163912.690000", "163913.890000", "163915.090000", "163916.290000", "163917.490000", "163918.690000", "163919.890000", "163921.090000", "163922.290000", "163923.490000", "163924.690000", "163925.890000", "163927.090000", "163928.290000", "163929.490000", "163930.690000", "163931.890000", "163933.090000", "163934.290000", "163935.490000", "163936.690000", "163937.890000", "163939.090000", "163940.290000", "163941.490000", "163942.690000", "163943.890000", "163945.090000", "163946.290000", "163947.490000", "163948.690000", "163949.890000", "163951.090000", "163952.290000", "163953.490000", "163954.690000", "163955.890000", "163957.090000", "163958.290000", "163959.490000", "164000.690000", "164001.890000", "164003.090000", "164004.290000", "164005.490000", "164006.690000", "164007.890000", "164009.090000", "164010.290000", "164011.490000", "164012.690000", "164013.890000", "164015.090000", "164016.290000", "164017.490000", "164018.690000", "164019.890000", "164021.090000", "164022.290000", "164023.490000", "164024.690000", "164025.890000", "164027.090000", "164028.290000", "164029.490000", "164030.690000", "164031.890000", "164033.090000", "164034.290000", "164035.490000", "164036.690000", "164037.890000", "164039.090000", "164040.290000", "164041.490000", "164042.690000", "164043.890000", "164045.090000", "164046.290000", "164047.490000", "164048.690000", "164049.890000", "164051.090000", "164052.290000", "164053.490000", "164054.690000", "164055.890000", "164057.090000", "164058.290000", "164059.490000", "164100.690000", "164101.890000", "164103.090000", "164104.290000", "164105.490000", "164106.690000", "164107.890000", "164109.090000", "164110.290000", "164111.490000", "164112.690000", "164113.890000", "164115.090000", "164116.290000", "164117.490000", "164118.690000", "164119.890000", "164121.090000", "164122.290000", "164123.490000", "164124.690000", "164125.890000", "164127.090000", "164128.290000", "164129.490000", "164130.690000", "164131.890000", "164133.090000", "164134.290000", "164135.490000", "164136.690000", "164137.890000", "164139.090000", "164140.290000", "164141.490000", "164142.690000", "164143.890000", "164145.090000", "164146.290000", "164147.490000", "164148.690000", "164149.890000", "164151.090000", "164152.290000", "164153.490000", "164154.690000", "164155.890000", "164157.090000", "164158.290000", "164159.490000", "164200.690000", "164201.890000", "164203.090000", "164204.290000", "164205.490000", "164206.690000", "164207.890000", "164209.090000", "164210.290000", "164211.490000", "164212.690000", "164213.890000", "164215.090000", "164216.290000", "164217.490000", "164218.690000", "164219.890000", "164221.090000", "164222.290000", "164223.490000", "164224.690000", "164225.890000", "164227.090000", "164228.290000", "164229.490000", "164230.690000", "164231.890000", "164233.090000", "164234.290000", "164235.490000", "164236.690000", "164237.890000", "164239.090000", "164240.290000", "164241.490000", "164242.690000", "164243.890000", "164245.090000", "164246.290000", "164247.490000", "164248.690000", "164249.890000", "164251.090000"],
      "ContentTime": ["163937.649000", "163937.652000", "163937.655000", "163937.658000", "163937.660000", "163937.663000", "163937.666000", "163937.668000", "163937.674000", "163937.676000", "163937.679000", "163937.682000", "163937.684000", "163937.687000", "163937.690000", "163937.692000", "163937.695000", "163937.697000", "163937.700000", "163937.703000", "163937.714000", "163937.716000", "163937.719000", "163937.721000", "163937.724000", "163937.727000", "163937.729000", "163937.732000", "163937.734000", "163937.737000", "163937.740000", "163937.742000", "164017.644000", "164017.647000", "164017.650000", "164017.652000", "164017.655000", "164017.658000", "164017.660000", "164017.663000", "164017.666000", "164017.668000", "164017.671000", "164017.673000", "164017.676000", "164017.679000", "164017.681000", "164017.684000", "164017.686000", "164017.695000", "164017.698000", "164017.700000", "164017.719000", "164017.722000", "164017.724000", "164017.727000", "164017.733000", "164017.736000", "164017.738000", "164017.741000", "164017.743000", "164017.746000", "164017.749000", "164017.751000", "164017.754000", "164017.757000", "164057.644000", "164057.647000", "164057.650000", "164057.652000", "164057.655000", "164057.658000", "164057.660000", "164057.663000", "164057.665000", "164057.668000", "164057.671000", "164057.673000", "164057.676000", "164057.678000", "164057.681000", "164057.683000", "164057.686000", "164057.689000", "164057.691000", "164057.694000", "164057.696000", "164057.703000", "164057.706000", "164057.709000", "164057.711000", "164057.714000", "164057.716000", "164057.719000", "164057.722000", "164057.724000", "164057.727000", "164057.729000", "164057.732000", "164137.644000", "164137.647000", "164137.650000", "164137.652000", "164137.655000", "164137.658000", "164137.660000", "164137.663000", "164137.666000", "164137.668000", "164137.671000", "164137.673000", "164137.676000", "164137.679000", "164137.681000", "164137.684000", "164137.687000", "164137.689000", "164137.692000", "164137.694000", "164137.697000", "164137.699000", "164137.702000", "164137.704000", "164137.707000", "164137.710000", "164137.712000", "164137.715000", "164137.717000", "164137.720000", "164137.722000", "164137.725000", "164137.728000", "164217.645000", "164217.648000", "164217.651000", "164217.653000", "164217.656000", "164217.658000", "164217.661000", "164217.664000", "164217.666000", "164217.669000", "164217.671000", "164217.674000", "164217.677000", "164217.679000", "164217.682000", "164217.685000", "164217.687000", "164217.690000", "164217.692000", "164217.695000", "164217.697000", "164217.700000", "164217.703000", "164217.705000", "164217.708000", "164217.711000", "164217.713000", "164217.716000", "164217.718000", "164217.721000", "164217.723000", "164217.726000", "164217.729000", "164217.731000", "164252.459000", "164252.462000", "164252.465000", "164252.468000", "164252.472000", "164252.475000", "164252.479000", "164252.482000", "164252.487000", "164252.491000", "164252.496000", "164252.502000", "164252.505000", "164252.509000", "164252.512000", "164252.523000", "164252.528000", "164252.532000", "164252.535000", "164252.538000", "164252.541000", "164252.544000", "164252.547000", "164252.551000", "164252.553000", "164252.556000", "164252.559000", "164252.562000", "164252.566000"],
      "InstanceCreationTime": ["163937.649000", "163937.652000", "163937.655000", "163937.658000", "163937.660000", "163937.663000", "163937.666000", "163937.668000", "163937.674000", "163937.676000", "163937.679000", "163937.682000", "163937.684000", "163937.687000", "163937.690000", "163937.692000", "163937.695000", "163937.697000", "163937.700000", "163937.703000", "163937.714000", "163937.716000", "163937.719000", "163937.721000", "163937.724000", "163937.727000", "163937.729000", "163937.732000", "163937.734000", "163937.737000", "163937.740000", "163937.742000", "164017.644000", "164017.647000", "164017.650000", "164017.652000", "164017.655000", "164017.658000", "164017.660000", "164017.663000", "164017.666000", "164017.668000", "164017.671000", "164017.673000", "164017.676000", "164017.679000", "164017.681000", "164017.684000", "164017.686000", "164017.695000", "164017.698000", "164017.700000", "164017.719000", "164017.722000", "164017.724000", "164017.727000", "164017.733000", "164017.736000", "164017.738000", "164017.741000", "164017.743000", "164017.746000", "164017.749000", "164017.751000", "164017.754000", "164017.757000", "164057.644000", "164057.647000", "164057.650000", "164057.652000", "164057.655000", "164057.658000", "164057.660000", "164057.663000", "164057.665000", "164057.668000", "164057.671000", "164057.673000", "164057.676000", "164057.678000", "164057.681000", "164057.683000", "164057.686000", "164057.689000", "164057.691000", "164057.694000", "164057.696000", "164057.703000", "164057.706000", "164057.709000", "164057.711000", "164057.714000", "164057.716000", "164057.719000", "164057.722000", "164057.724000", "164057.727000", "164057.729000", "164057.732000", "164137.644000", "164137.647000", "164137.650000", "164137.652000", "164137.655000", "164137.658000", "164137.660000", "164137.663000", "164137.666000", "164137.668000", "164137.671000", "164137.673000", "164137.676000", "164137.679000", "164137.681000", "164137.684000", "164137.687000", "164137.689000", "164137.692000", "164137.694000", "164137.697000", "164137.699000", "164137.702000", "164137.704000", "164137.707000", "164137.710000", "164137.712000", "164137.715000", "164137.717000", "164137.720000", "164137.722000", "164137.725000", "164137.728000", "164217.645000", "164217.648000", "164217.651000", "164217.653000", "164217.656000", "164217.658000", "164217.661000", "164217.664000", "164217.666000", "164217.669000", "164217.671000", "164217.674000", "164217.677000", "164217.679000", "164217.682000", "164217.685000", "164217.687000", "164217.690000", "164217.692000", "164217.695000", "164217.697000", "164217.700000", "164217.703000", "164217.705000", "164217.708000", "164217.711000", "164217.713000", "164217.716000", "164217.718000", "164217.721000", "164217.723000", "164217.726000", "164217.729000", "164217.731000", "164252.459000", "164252.462000", "164252.465000", "164252.468000", "164252.472000", "164252.475000", "164252.479000", "164252.482000", "164252.487000", "164252.491000", "164252.496000", "164252.502000", "164252.505000", "164252.509000", "164252.512000", "164252.523000", "164252.528000", "164252.532000", "164252.535000", "164252.538000", "164252.541000", "164252.544000", "164252.547000", "164252.551000", "164252.553000", "164252.556000", "164252.559000", "164252.562000", "164252.566000"],
      "InstanceNumber": [1, 2, 3, 4, 5, 6, 7, 8, 9, 10, 11, 12, 13, 14, 15, 16, 17, 18, 19, 20, 21, 22, 23, 24, 25, 26, 27, 28, 29, 30, 31, 32, 33, 34, 35, 36, 37, 38, 39, 40, 41, 42, 43, 44, 45, 46, 47, 48, 49, 50, 51, 52, 53, 54, 55, 56, 57, 58, 59, 60, 61, 62, 63, 64, 65, 66, 67, 68, 69, 70, 71, 72, 73, 74, 75, 76, 77, 78, 79, 80, 81, 82, 83, 84, 85, 86, 87, 88, 89, 90, 91, 92, 93, 94, 95, 96, 97, 98, 99, 100, 101, 102, 103, 104, 105, 106, 107, 108, 109, 110, 111, 112, 113, 114, 115, 116, 117, 118, 119, 120, 121, 122, 123, 124, 125, 126, 127, 128, 129, 130, 131, 132, 133, 134, 135, 136, 137, 138, 139, 140, 141, 142, 143, 144, 145, 146, 147, 148, 149, 150, 151, 152, 153, 154, 155, 156, 157, 158, 159, 160, 161, 162, 163, 164, 165, 166, 167, 168, 169, 170, 171, 172, 173, 174, 175, 176, 177, 178, 179, 180, 181, 182, 183, 184, 185, 186, 187, 188, 189, 190, 191, 192, 193, 194, 195],
      "LargestImagePixelValue": [2400, 2346, 2348, 2296, 2302, 2317, 2299, 2288, 2303, 2299, 2293, 2313, 2293, 2302, 2307, 2291, 2305, 2301, 2283, 2296, 2286, 2278, 2297, 2282, 2281, 2326, 2282, 2282, 2301, 2287, 2298, 2339, 2300, 2314, 2331, 2300, 2284, 2316, 2292, 2306, 2306, 2287, 2322, 2300, 2309, 2341, 2314, 2307, 2317, 2312, 2307, 2331, 2294, 2321, 2324, 2293, 2342, 2318, 2296, 2319, 2304, 2296, 2327, 2296, 2297, 2315, 2320, 2288, 2321, 2303, 2300, 2313, 2301, 2313, 2324, 2299, 2314, 2329, 2298, 2334, 2323, 2298, 2344, 2334, 2304, 2318, 2301, 2325, 2296, 2296, 2324, 2319, 2322, 2323, 2298, 2301, 2327, 2293, 2315, 2341, 2298, 2319, 2312, 2295, 2325, 2317, 2291, 2349, 2324, 2305, 2323, 2278, 2304, 2323, 2311, 2347, 2324, 2327, 2339, 2315, 2323, 2363, 2326, 2315, 2342, 2315, 2329, 2329, 2306, 2329, 2320, 2329, 2344, 2306, 2319, 2349, 2303, 2308, 2324, 2284, 2319, 2345, 2304, 2305, 2329, 2296, 2314, 2302, 2335, 2296, 2340, 2334, 2314, 2316, 2310, 2334, 2333, 2286, 2329, 2327, 2319, 2335, 2329, 2296, 2328, 2340, 2303, 2339, 2358, 2324, 2327, 2350, 2293, 2306, 2321, 2281, 2326, 2332, 2288, 2298, 2342, 2311, 2314, 2327, 2337, 2293, 2332, 2333, 2330, 2345, 2329, 2302, 2334, 2318, 2310],
      "WindowCenter": [647.0, 644.0, 643.0, 642.0, 641.0, 641.0, 641.0, 641.0, 642.0, 641.0, 642.0, 642.0, 642.0, 642.0, 642.0, 641.0, 642.0, 642.0, 642.0, 642.0, 642.0, 642.0, 643.0, 642.0, 641.0, 642.0, 641.0, 642.0, 643.0, 642.0, 643.0, 644.0, 643.0, 644.0, 644.0, 643.0, 643.0, 643.0, 642.0, 641.0, 640.0, 640.0, 641.0, 643.0, 642.0, 644.0, 643.0, 645.0, 644.0, 643.0, 643.0, 643.0, 643.0, 643.0, 643.0, 643.0, 643.0, 642.0, 643.0, 643.0, 642.0, 642.0, 642.0, 641.0, 641.0, 641.0, 640.0, 640.0, 641.0, 641.0, 641.0, 641.0, 640.0, 641.0, 641.0, 641.0, 643.0, 642.0, 641.0, 642.0, 642.0, 642.0, 643.0, 643.0, 643.0, 643.0, 641.0, 641.0, 641.0, 641.0, 642.0, 642.0, 642.0, 642.0, 643.0, 642.0, 642.0, 642.0, 643.0, 644.0, 644.0, 644.0, 643.0, 642.0, 642.0, 642.0, 641.0, 642.0, 641.0, 640.0, 640.0, 641.0, 641.0, 641.0, 641.0, 642.0, 644.0, 645.0, 645.0, 645.0, 646.0, 647.0, 645.0, 645.0, 644.0, 643.0, 643.0, 642.0, 642.0, 643.0, 642.0, 643.0, 644.0, 645.0, 646.0, 646.0, 644.0, 643.0, 642.0, 641.0, 641.0, 641.0, 640.0, 641.0, 640.0, 640.0, 642.0, 642.0, 642.0, 642.0, 644.0, 645.0, 647.0, 646.0, 645.0, 645.0, 644.0, 645.0, 646.0, 645.0, 646.0, 645.0, 644.0, 645.0, 645.0, 645.0, 644.0, 646.0, 647.0, 647.0, 647.0, 646.0, 643.0, 641.0, 641.0, 641.0, 640.0, 640.0, 639.0, 641.0, 643.0, 643.0, 643.0, 643.0, 642.0, 641.0, 642.0, 642.0, 644.0, 645.0, 643.0, 642.0, 642.0, 642.0, 642.0],
      "WindowWidth": [1390.0, 1383.0, 1379.0, 1376.0, 1375.0, 1375.0, 1374.0, 1375.0, 1375.0, 1375.0, 1376.0, 1377.0, 1377.0, 1377.0, 1376.0, 1375.0, 1376.0, 1376.0, 1376.0, 1378.0, 1378.0, 1378.0, 1379.0, 1377.0, 1376.0, 1377.0, 1376.0, 1377.0, 1379.0, 1378.0, 1379.0, 1381.0, 1381.0, 1381.0, 1382.0, 1380.0, 1379.0, 1378.0, 1376.0, 1375.0, 1373.0, 1373.0, 1375.0, 1379.0, 1378.0, 1381.0, 1380.0, 1383.0, 1382.0, 1379.0, 1378.0, 1380.0, 1380.0, 1380.0, 1381.0, 1379.0, 1380.0, 1378.0, 1380.0, 1380.0, 1378.0, 1377.0, 1377.0, 1376.0, 1375.0, 1374.0, 1373.0, 1373.0, 1375.0, 1374.0, 1375.0, 1374.0, 1373.0, 1373.0, 1374.0, 1375.0, 1379.0, 1378.0, 1376.0, 1378.0, 1377.0, 1378.0, 1380.0, 1379.0, 1380.0, 1378.0, 1374.0, 1374.0, 1374.0, 1375.0, 1377.0, 1377.0, 1377.0, 1377.0, 1379.0, 1378.0, 1378.0, 1378.0, 1381.0, 1382.0, 1382.0, 1382.0, 1380.0, 1378.0, 1377.0, 1376.0, 1376.0, 1376.0, 1375.0, 1373.0, 1373.0, 1375.0, 1374.0, 1374.0, 1375.0, 1378.0, 1381.0, 1383.0, 1384.0, 1384.0, 1386.0, 1388.0, 1386.0, 1385.0, 1383.0, 1381.0, 1379.0, 1377.0, 1377.0, 1379.0, 1378.0, 1380.0, 1382.0, 1385.0, 1386.0, 1386.0, 1382.0, 1379.0, 1377.0, 1375.0, 1375.0, 1375.0, 1373.0, 1374.0, 1373.0, 1373.0, 1378.0, 1377.0, 1377.0, 1377.0, 1382.0, 1385.0, 1388.0, 1386.0, 1384.0, 1385.0, 1383.0, 1385.0, 1386.0, 1384.0, 1386.0, 1384.0, 1382.0, 1383.0, 1384.0, 1384.0, 1383.0, 1387.0, 1390.0, 1390.0, 1390.0, 1386.0, 1379.0, 1376.0, 1374.0, 1374.0, 1373.0, 1372.0, 1371.0, 1374.0, 1379.0, 1379.0, 1380.0, 1380.0, 1378.0, 1375.0, 1377.0, 1378.0, 1382.0, 1384.0, 1381.0, 1378.0, 1377.0, 1376.0, 1377.0]
    },
    "slices": {}
  }
}