{
  "AcquisitionMatrixPE": 88,
  "AcquisitionNumber": 1,
  "AcquisitionTime": "16:14:4.657500",
  "BandwidthPerPixelPhaseEncode": 19.592,
  "BaseResolution": 88,
  "BodyPartExamined": "BRAIN",
  "ConsistencyInfo": "N4_VE11C_LATEST_20160120",
  "ConversionSoftware": "dcm2niix",
  "ConversionSoftwareVersion": "v1.0.20190902",
  "DerivedVendorReportedEchoSpacing": 0.000580014,
  "DeviceSerialNumber": "67050",
  "DwellTime": 2.6e-06,
  "EchoTime": 0.033,
  "EchoTrainLength": 88,
  "EffectiveEchoSpacing": 0.000580014,
  "FlipAngle": 62,
  "ImageOrientationPatientDICOM": [0.996601, 0.014862, 0.081029, -0.0114805, 0.99905, -0.0420397],
  "ImageType": [
    "ORIGINAL",
    "PRIMARY",
    "M",
    "ND",
    "MOSAIC"
],
  "ImagingFrequency": 123.251,
  "InPlanePhaseEncodingDirectionDICOM": "COL",
  "InstitutionAddress": "Olive_Street_60_Providence_RI_US_02912",
  "InstitutionName": "BROWN_UNIVERSITY_MRF",
  "InstitutionalDepartmentName": "Department",
  "MRAcquisitionType": "2D",
  "MagneticFieldStrength": 3,
  "Manufacturer": "Siemens",
  "ManufacturersModelName": "Prisma_fit",
  "Modality": "MR",
  "MultibandAccelerationFactor": 4,
  "PartialFourier": 1,
  "PatientPosition": "HFS",
  "PercentPhaseFOV": 100,
  "PhaseEncodingDirection": "j-",
  "PhaseEncodingSteps": 88,
  "PhaseResolution": 1,
  "PixelBandwidth": 2185,
  "ProcedureStepDescription": "ASHENHAV_1222",
  "ProtocolName": "func-bold_task-RDMcolor_run-05",
  "PulseSequenceDetails": "%SiemensSeq%_ep2d_bold",
  "ReceiveCoilActiveElements": "HC1-7",
  "ReceiveCoilName": "HeadNeck_64",
  "ReconMatrixPE": 88,
  "RefLinesPE": 8,
  "RepetitionTime": 1.2,
  "SAR": 0.0506807,
  "ScanOptions": "FS",
  "ScanningSequence": "EP",
  "SequenceName": "_epfid2d1_88",
  "SequenceVariant": "SK",
  "SeriesDescription": "func-bold_task-RDMcolor_run-05",
  "SeriesNumber": 16,
  "ShimSetting": [1777, -9075, 4423, 477, -157, -280, 45, 0],
  "SliceThickness": 2.4,
  "SliceTiming": [0.55, 0, 0.6275, 0.0775, 0.7075, 0.1575, 0.785, 0.235, 0.865, 0.315, 0.9425, 0.3925, 1.0225, 0.47, 1.1, 0.55, 0, 0.6275, 0.0775, 0.7075, 0.1575, 0.785, 0.235, 0.865, 0.315, 0.9425, 0.3925, 1.0225, 0.47, 1.1, 0.55, 0, 0.6275, 0.0775, 0.7075, 0.1575, 0.785, 0.235, 0.865, 0.315, 0.9425, 0.3925, 1.0225, 0.47, 1.1, 0.55, 0, 0.6275, 0.0775, 0.7075, 0.1575, 0.785, 0.235, 0.865, 0.315, 0.9425, 0.3925, 1.0225, 0.47, 1.1],
  "SoftwareVersions": "syngo_MR_E11",
  "SpacingBetweenSlices": 2.4,
  "StationName": "AWP67050",
  "TaskName": "RDMcolor",
  "TotalReadoutTime": 0.0504612,
  "TxRefAmp": 236.972,
  "dcmmeta_affine": [
    [-2.3895771503448486, -0.027527064085006714, 0.195784330368042, 102.752685546875],
    [-0.03563505411148071, 2.39544939994812, -0.09831973165273666, -92.75927734375],
    [0.19428542256355286, 0.10079973936080933, 2.389979362487793, -86.37842559814453],
    [0.0, 0.0, 0.0, 1.0]
],
  "dcmmeta_reorient_transform": [
    [0.0, -1.0, 0.0, 87.0],
    [1.0, 0.0, 0.0, 0.0],
    [0.0, 0.0, 1.0, 0.0],
    [0.0, 0.0, 0.0, 1.0]
],
  "dcmmeta_shape": [88, 88, 60, 392],
  "dcmmeta_slice_dim": 2,
  "dcmmeta_version": 0.6,
  "global": {
    "const": {
      "AcquisitionMatrix": [88, 0, 0, 88],
      "AngioFlag": "N",
      "BitsAllocated": 16,
      "BitsStored": 12,
      "BodyPartExamined": "BRAIN",
      "Columns": 704,
      "DeidentificationMethodCodeSequence": [
        {
          "CodeMeaning": "XNAT DicomEdit 6 Script",
          "CodeValue": "3",
          "CodingSchemeDesignator": "XNAT",
          "CodingSchemeVersion": "1.0"}
],
      "EchoNumbers": 1,
      "EchoTime": 33.0,
      "EchoTrainLength": 88,
      "FlipAngle": 62.0,
      "HighBit": 11,
      "ImageOrientationPatient": [0.99660093492524, 0.0148620130788, 0.08102898909271, -0.011480482122, 0.99904997967526, -0.0420397031521],
      "ImagePositionPatient": [-827.8692774452, -864.41881814517, -106.40243280549],
      "ImageType": [
        "ORIGINAL",
        "PRIMARY",
        "M",
        "ND",
        "MOSAIC"
],
      "ImagedNucleus": "1H",
      "ImagingFrequency": 123.250695,
      "InPlanePhaseEncodingDirection": "COL",
      "MRAcquisitionType": "2D",
      "MagneticFieldStrength": 3.0,
      "Manufacturer": "SIEMENS",
      "ManufacturerModelName": "Prisma_fit",
      "Modality": "MR",
      "NumberOfAverages": 1.0,
      "NumberOfPhaseEncodingSteps": 88,
      "PercentPhaseFieldOfView": 100.0,
      "PercentSampling": 100.0,
      "PerformedProcedureStepStartTime": "145313.809000",
      "PhotometricInterpretation": "MONOCHROME2",
      "PixelBandwidth": 2185.0,
      "PixelRepresentation": 0,
      "PixelSpacing": [2.3977272510529, 2.3977272510529],
      "ProtocolName": "func-bold_task-RDMcolor_run-05",
      "RepetitionTime": 1200.0,
      "Rows": 704,
      "SAR": 0.05068068250147,
      "SamplesPerPixel": 1,
      "ScanOptions": "FS",
      "ScanningSequence": "EP",
      "SequenceName": "*epfid2d1_88",
      "SequenceVariant": "SK",
      "SeriesDescription": "func-bold_task-RDMcolor_run-05",
      "SeriesNumber": 16,
      "SeriesTime": "161437.521000",
      "SliceLocation": -73.835509203022,
      "SliceThickness": 2.4000000953674,
      "SmallestImagePixelValue": 0,
      "SoftwareVersions": "syngo MR E11",
      "SpacingBetweenSlices": 2.4000000347878,
      "SpecificCharacterSet": "ISO_IR 100",
      "StudyID": "1",
      "StudyTime": "145313.737000",
      "TransmitCoilName": "Body",
      "VariableFlipAngleFlag": "N",
      "WindowCenterWidthExplanation": "Algo1",
      "dBdt": 0.0},
    "slices": {}
  },
  "time": {
    "samples": {
      "AcquisitionNumber": [1, 2, 3, 4, 5, 6, 7, 8, 9, 10, 11, 12, 13, 14, 15, 16, 17, 18, 19, 20, 21, 22, 23, 24, 25, 26, 27, 28, 29, 30, 31, 32, 33, 34, 35, 36, 37, 38, 39, 40, 41, 42, 43, 44, 45, 46, 47, 48, 49, 50, 51, 52, 53, 54, 55, 56, 57, 58, 59, 60, 61, 62, 63, 64, 65, 66, 67, 68, 69, 70, 71, 72, 73, 74, 75, 76, 77, 78, 79, 80, 81, 82, 83, 84, 85, 86, 87, 88, 89, 90, 91, 92, 93, 94, 95, 96, 97, 98, 99, 100, 101, 102, 103, 104, 105, 106, 107, 108, 109, 110, 111, 112, 113, 114, 115, 116, 117, 118, 119, 120, 121, 122, 123, 124, 125, 126, 127, 128, 129, 130, 131, 132, 133, 134, 135, 136, 137, 138, 139, 140, 141, 142, 143, 144, 145, 146, 147, 148, 149, 150, 151, 152, 153, 154, 155, 156, 157, 158, 159, 160, 161, 162, 163, 164, 165, 166, 167, 168, 169, 170, 171, 172, 173, 174, 175, 176, 177, 178, 179, 180, 181, 182, 183, 184, 185, 186, 187, 188, 189, 190, 191, 192, 193, 194, 195, 196, 197, 198, 199, 200, 201, 202, 203, 204, 205, 206, 207, 208, 209, 210, 211, 212, 213, 214, 215, 216, 217, 218, 219, 220, 221, 222, 223, 224, 225, 226, 227, 228, 229, 230, 231, 232, 233, 234, 235, 236, 237, 238, 239, 240, 241, 242, 243, 244, 245, 246, 247, 248, 249, 250, 251, 252, 253, 254, 255, 256, 257, 258, 259, 260, 261, 262, 263, 264, 265, 266, 267, 268, 269, 270, 271, 272, 273, 274, 275, 276, 277, 278, 279, 280, 281, 282, 283, 284, 285, 286, 287, 288, 289, 290, 291, 292, 293, 294, 295, 296, 297, 298, 299, 300, 301, 302, 303, 304, 305, 306, 307, 308, 309, 310, 311, 312, 313, 314, 315, 316, 317, 318, 319, 320, 321, 322, 323, 324, 325, 326, 327, 328, 329, 330, 331, 332, 333, 334, 335, 336, 337, 338, 339, 340, 341, 342, 343, 344, 345, 346, 347, 348, 349, 350, 351, 352, 353, 354, 355, 356, 357, 358, 359, 360, 361, 362, 363, 364, 365, 366, 367, 368, 369, 370, 371, 372, 373, 374, 375, 376, 377, 378, 379, 380, 381, 382, 383, 384, 385, 386, 387, 388, 389, 390, 391, 392],
      "AcquisitionTime": ["161404.657500", "161405.857500", "161407.057500", "161408.257500", "161409.457500", "161410.657500", "161411.857500", "161413.057500", "161414.257500", "161415.457500", "161416.657500", "161417.857500", "161419.057500", "161420.257500", "161421.457500", "161422.657500", "161423.857500", "161425.057500", "161426.257500", "161427.457500", "161428.657500", "161429.857500", "161431.057500", "161432.257500", "161433.457500", "161434.657500", "161435.857500", "161437.057500", "161438.257500", "161439.457500", "161440.657500", "161441.857500", "161443.057500", "161444.257500", "161445.457500", "161446.657500", "161447.857500", "161449.057500", "161450.257500", "161451.457500", "161452.657500", "161453.857500", "161455.057500", "161456.257500", "161457.457500", "161458.657500", "161459.857500", "161501.057500", "161502.257500", "161503.457500", "161504.657500", "161505.857500", "161507.057500", "161508.257500", "161509.457500", "161510.657500", "161511.857500", "161513.057500", "161514.257500", "161515.457500", "161516.657500", "161517.857500", "161519.057500", "161520.257500", "161521.457500", "161522.657500", "161523.857500", "161525.057500", "161526.257500", "161527.457500", "161528.657500", "161529.857500", "161531.057500", "161532.257500", "161533.457500", "161534.657500", "161535.857500", "161537.057500", "161538.257500", "161539.457500", "161540.657500", "161541.857500", "161543.057500", "161544.257500", "161545.457500", "161546.657500", "161547.857500", "161549.057500", "161550.257500", "161551.457500", "161552.657500", "161553.857500", "161555.057500", "161556.257500", "161557.457500", "161558.657500", "161559.857500", "161601.057500", "161602.257500", "161603.457500", "161604.657500", "161605.857500", "161607.057500", "161608.257500", "161609.457500", "161610.657500", "161611.857500", "161613.057500", "161614.257500", "161615.457500", "161616.657500", "161617.857500", "161619.057500", "161620.257500", "161621.457500", "161622.657500", "161623.857500", "161625.057500", "161626.257500", "161627.457500", "161628.657500", "161629.857500", "161631.057500", "161632.257500", "161633.457500", "161634.657500", "161635.857500", "161637.057500", "161638.257500", "161639.457500", "161640.657500", "161641.857500", "161643.057500", "161644.257500", "161645.457500", "161646.657500", "161647.857500", "161649.057500", "161650.257500", "161651.457500", "161652.657500", "161653.857500", "161655.057500", "161656.257500", "161657.457500", "161658.657500", "161659.857500", "161701.057500", "161702.257500", "161703.457500", "161704.657500", "161705.857500", "161707.057500", "161708.257500", "161709.457500", "161710.657500", "161711.857500", "161713.057500", "161714.257500", "161715.457500", "161716.657500", "161717.857500", "161719.057500", "161720.257500", "161721.457500", "161722.657500", "161723.857500", "161725.057500", "161726.257500", "161727.457500", "161728.657500", "161729.857500", "161731.057500", "161732.257500", "161733.457500", "161734.657500", "161735.857500", "161737.057500", "161738.257500", "161739.457500", "161740.657500", "161741.857500", "161743.057500", "161744.257500", "161745.457500", "161746.657500", "161747.857500", "161749.057500", "161750.257500", "161751.457500", "161752.657500", "161753.857500", "161755.057500", "161756.257500", "161757.457500", "161758.657500", "161759.857500", "161801.057500", "161802.257500", "161803.457500", "161804.657500", "161805.857500", "161807.057500", "161808.257500", "161809.457500", "161810.657500", "161811.857500", "161813.057500", "161814.257500", "161815.457500", "161816.657500", "161817.857500", "161819.057500", "161820.257500", "161821.457500", "161822.657500", "161823.857500", "161825.057500", "161826.257500", "161827.457500", "161828.657500", "161829.857500", "161831.057500", "161832.257500", "161833.457500", "161834.657500", "161835.857500", "161837.057500", "161838.257500", "161839.457500", "161840.657500", "161841.857500", "161843.057500", "161844.257500", "161845.457500", "161846.657500", "161847.857500", "161849.057500", "161850.257500", "161851.457500", "161852.657500", "161853.857500", "161855.057500", "161856.257500", "161857.457500", "161858.657500", "161859.857500", "161901.057500", "161902.257500", "161903.457500", "161904.657500", "161905.857500", "161907.057500", "161908.257500", "161909.457500", "161910.657500", "161911.857500", "161913.057500", "161914.257500", "161915.457500", "161916.657500", "161917.857500", "161919.057500", "161920.257500", "161921.457500", "161922.657500", "161923.857500", "161925.057500", "161926.257500", "161927.457500", "161928.657500", "161929.857500", "161931.057500", "161932.257500", "161933.457500", "161934.657500", "161935.857500", "161937.057500", "161938.257500", "161939.457500", "161940.657500", "161941.857500", "161943.057500", "161944.257500", "161945.457500", "161946.657500", "161947.857500", "161949.057500", "161950.257500", "161951.457500", "161952.657500", "161953.857500", "161955.057500", "161956.257500", "161957.457500", "161958.657500", "161959.857500", "162001.057500", "162002.257500", "162003.457500", "162004.657500", "162005.857500", "162007.057500", "162008.257500", "162009.457500", "162010.657500", "162011.857500", "162013.057500", "162014.257500", "162015.457500", "162016.657500", "162017.857500", "162019.057500", "162020.257500", "162021.457500", "162022.657500", "162023.857500", "162025.057500", "162026.257500", "162027.457500", "162028.657500", "162029.857500", "162031.057500", "162032.257500", "162033.457500", "162034.657500", "162035.857500", "162037.057500", "162038.257500", "162039.457500", "162040.657500", "162041.857500", "162043.057500", "162044.257500", "162045.457500", "162046.657500", "162047.857500", "162049.057500", "162050.257500", "162051.457500", "162052.657500", "162053.857500", "162055.057500", "162056.257500", "162057.457500", "162058.657500", "162059.857500", "162101.057500", "162102.257500", "162103.457500", "162104.657500", "162105.857500", "162107.057500", "162108.257500", "162109.457500", "162110.657500", "162111.857500", "162113.057500", "162114.257500", "162115.457500", "162116.657500", "162117.857500", "162119.057500", "162120.257500", "162121.457500", "162122.657500", "162123.857500", "162125.057500", "162126.257500", "162127.457500", "162128.657500", "162129.857500", "162131.057500", "162132.257500", "162133.457500", "162134.657500", "162135.857500", "162137.057500", "162138.257500", "162139.457500", "162140.657500", "162141.857500", "162143.057500", "162144.257500", "162145.457500", "162146.657500", "162147.857500", "162149.057500", "162150.257500", "162151.457500", "162152.657500", "162153.857500"],
      "ContentTime": ["161437.525000", "161437.528000", "161437.547000", "161437.550000", "161437.552000", "161437.565000", "161437.567000", "161437.570000", "161437.586000", "161437.589000", "161437.591000", "161437.594000", "161437.596000", "161437.599000", "161437.602000", "161437.604000", "161437.607000", "161437.610000", "161437.612000", "161437.615000", "161437.617000", "161437.620000", "161437.623000", "161437.625000", "161437.628000", "161437.630000", "161437.633000", "161517.521000", "161517.525000", "161517.527000", "161517.530000", "161517.532000", "161517.535000", "161517.537000", "161517.540000", "161517.542000", "161517.545000", "161517.554000", "161517.557000", "161517.559000", "161517.562000", "161517.564000", "161517.567000", "161517.569000", "161517.572000", "161517.575000", "161517.577000", "161517.580000", "161517.582000", "161517.585000", "161517.588000", "161517.590000", "161517.608000", "161517.611000", "161517.614000", "161517.617000", "161517.619000", "161517.622000", "161517.624000", "161517.627000", "161557.520000", "161557.523000", "161557.526000", "161557.529000", "161557.531000", "161557.534000", "161557.536000", "161557.539000", "161557.542000", "161557.544000", "161557.547000", "161557.550000", "161557.552000", "161557.555000", "161557.557000", "161557.560000", "161557.563000", "161557.565000", "161557.568000", "161557.576000", "161557.579000", "161557.581000", "161557.584000", "161557.587000", "161557.589000", "161557.592000", "161557.594000", "161557.597000", "161557.600000", "161557.602000", "161557.605000", "161557.608000", "161557.610000", "161557.613000", "161637.520000", "161637.523000", "161637.526000", "161637.529000", "161637.531000", "161637.534000", "161637.536000", "161637.539000", "161637.542000", "161637.544000", "161637.547000", "161637.550000", "161637.552000", "161637.555000", "161637.557000", "161637.560000", "161637.563000", "161637.565000", "161637.568000", "161637.570000", "161637.573000", "161637.575000", "161637.578000", "161637.581000", "161637.584000", "161637.586000", "161637.589000", "161637.591000", "161637.594000", "161637.596000", "161637.599000", "161637.602000", "161637.604000", "161717.521000", "161717.524000", "161717.526000", "161717.529000", "161717.532000", "161717.534000", "161717.537000", "161717.539000", "161717.542000", "161717.545000", "161717.547000", "161717.550000", "161717.553000", "161717.555000", "161717.558000", "161717.560000", "161717.563000", "161717.566000", "161717.568000", "161717.571000", "161717.574000", "161717.576000", "161717.579000", "161717.581000", "161717.584000", "161717.587000", "161717.589000", "161717.592000", "161717.594000", "161717.597000", "161717.600000", "161717.602000", "161717.605000", "161757.522000", "161757.524000", "161757.527000", "161757.530000", "161757.532000", "161757.535000", "161757.538000", "161757.541000", "161757.543000", "161757.546000", "161757.556000", "161757.559000", "161757.570000", "161757.572000", "161757.575000", "161757.577000", "161757.580000", "161757.583000", "161757.592000", "161757.594000", "161757.597000", "161757.599000", "161757.602000", "161757.605000", "161757.607000", "161757.610000", "161757.613000", "161757.615000", "161757.618000", "161757.621000", "161757.624000", "161757.626000", "161757.629000", "161757.631000", "161837.520000", "161837.523000", "161837.526000", "161837.529000", "161837.531000", "161837.534000", "161837.537000", "161837.539000", "161837.542000", "161837.544000", "161837.547000", "161837.549000", "161837.552000", "161837.555000", "161837.557000", "161837.560000", "161837.563000", "161837.565000", "161837.568000", "161837.570000", "161837.573000", "161837.576000", "161837.578000", "161837.581000", "161837.583000", "161837.586000", "161837.589000", "161837.591000", "161837.594000", "161837.596000", "161837.599000", "161837.602000", "161837.604000", "161917.521000", "161917.524000", "161917.526000", "161917.529000", "161917.532000", "161917.534000", "161917.537000", "161917.539000", "161917.556000", "161917.558000", "161917.561000", "161917.564000", "161917.566000", "161917.569000", "161917.571000", "161917.574000", "161917.577000", "161917.579000", "161917.582000", "161917.584000", "161917.587000", "161917.590000", "161917.592000", "161917.595000", "161917.598000", "161917.600000", "161917.603000", "161917.606000", "161917.608000", "161917.611000", "161917.613000", "161917.616000", "161917.619000", "161957.522000", "161957.524000", "161957.527000", "161957.530000", "161957.532000", "161957.535000", "161957.538000", "161957.540000", "161957.543000", "161957.545000", "161957.548000", "161957.551000", "161957.553000", "161957.556000", "161957.559000", "161957.561000", "161957.564000", "161957.566000", "161957.569000", "161957.572000", "161957.574000", "161957.577000", "161957.579000", "161957.582000", "161957.585000", "161957.587000", "161957.590000", "161957.592000", "161957.595000", "161957.598000", "161957.600000", "161957.603000", "161957.605000", "161957.608000", "162037.521000", "162037.523000", "162037.526000", "162037.529000", "162037.531000", "162037.534000", "162037.537000", "162037.539000", "162037.542000", "162037.545000", "162037.547000", "162037.550000", "162037.552000", "162037.555000", "162037.558000", "162037.560000", "162037.570000", "162037.573000", "162037.576000", "162037.578000", "162037.581000", "162037.583000", "162037.586000", "162037.589000", "162037.591000", "162037.594000", "162037.596000", "162037.599000", "162037.602000", "162037.604000", "162037.607000", "162037.610000", "162037.612000", "162117.520000", "162117.523000", "162117.526000", "162117.529000", "162117.532000", "162117.534000", "162117.537000", "162117.539000", "162117.542000", "162117.545000", "162117.547000", "162117.550000", "162117.553000", "162117.555000", "162117.558000", "162117.561000", "162117.563000", "162117.566000", "162117.568000", "162117.571000", "162117.574000", "162117.576000", "162117.579000", "162117.582000", "162117.584000", "162117.587000", "162117.589000", "162117.592000", "162117.595000", "162117.597000", "162117.600000", "162117.602000", "162117.605000", "162155.031000", "162155.034000", "162155.037000", "162155.039000", "162155.042000", "162155.045000", "162155.054000", "162155.056000", "162155.059000", "162155.062000", "162155.064000", "162155.067000", "162155.070000", "162155.072000", "162155.075000", "162155.078000", "162155.085000", "162155.088000", "162155.091000", "162155.094000", "162155.097000", "162155.100000", "162155.103000", "162155.107000", "162155.110000", "162155.114000", "162155.118000", "162155.121000", "162155.124000", "162155.127000", "162155.130000", "162155.135000"],
      "InstanceCreationTime": ["161437.525000", "161437.528000", "161437.547000", "161437.550000", "161437.552000", "161437.565000", "161437.567000", "161437.570000", "161437.586000", "161437.589000", "161437.591000", "161437.594000", "161437.596000", "161437.599000", "161437.602000", "161437.604000", "161437.607000", "161437.610000", "161437.612000", "161437.615000", "161437.617000", "161437.620000", "161437.623000", "161437.625000", "161437.628000", "161437.630000", "161437.633000", "161517.521000", "161517.525000", "161517.527000", "161517.530000", "161517.532000", "161517.535000", "161517.537000", "161517.540000", "161517.542000", "161517.545000", "161517.554000", "161517.557000", "161517.559000", "161517.562000", "161517.564000", "161517.567000", "161517.569000", "161517.572000", "161517.575000", "161517.577000", "161517.580000", "161517.582000", "161517.585000", "161517.588000", "161517.590000", "161517.608000", "161517.611000", "161517.614000", "161517.617000", "161517.619000", "161517.622000", "161517.624000", "161517.627000", "161557.520000", "161557.523000", "161557.526000", "161557.529000", "161557.531000", "161557.534000", "161557.536000", "161557.539000", "161557.542000", "161557.544000", "161557.547000", "161557.550000", "161557.552000", "161557.555000", "161557.557000", "161557.560000", "161557.563000", "161557.565000", "161557.568000", "161557.576000", "161557.579000", "161557.581000", "161557.584000", "161557.587000", "161557.589000", "161557.592000", "161557.594000", "161557.597000", "161557.600000", "161557.602000", "161557.605000", "161557.608000", "161557.610000", "161557.613000", "161637.520000", "161637.523000", "161637.526000", "161637.529000", "161637.531000", "161637.534000", "161637.536000", "161637.539000", "161637.542000", "161637.544000", "161637.547000", "161637.550000", "161637.552000", "161637.555000", "161637.557000", "161637.560000", "161637.563000", "161637.565000", "161637.568000", "161637.570000", "161637.573000", "161637.575000", "161637.578000", "161637.581000", "161637.584000", "161637.586000", "161637.589000", "161637.591000", "161637.594000", "161637.596000", "161637.599000", "161637.602000", "161637.604000", "161717.521000", "161717.524000", "161717.526000", "161717.529000", "161717.532000", "161717.534000", "161717.537000", "161717.539000", "161717.542000", "161717.545000", "161717.547000", "161717.550000", "161717.553000", "161717.555000", "161717.558000", "161717.560000", "161717.563000", "161717.566000", "161717.568000", "161717.571000", "161717.574000", "161717.576000", "161717.579000", "161717.581000", "161717.584000", "161717.587000", "161717.589000", "161717.592000", "161717.594000", "161717.597000", "161717.600000", "161717.602000", "161717.605000", "161757.522000", "161757.524000", "161757.527000", "161757.530000", "161757.532000", "161757.535000", "161757.538000", "161757.541000", "161757.543000", "161757.546000", "161757.556000", "161757.559000", "161757.570000", "161757.572000", "161757.575000", "161757.577000", "161757.580000", "161757.583000", "161757.592000", "161757.594000", "161757.597000", "161757.599000", "161757.602000", "161757.605000", "161757.607000", "161757.610000", "161757.613000", "161757.615000", "161757.618000", "161757.621000", "161757.624000", "161757.626000", "161757.629000", "161757.631000", "161837.520000", "161837.523000", "161837.526000", "161837.529000", "161837.531000", "161837.534000", "161837.537000", "161837.539000", "161837.542000", "161837.544000", "161837.547000", "161837.549000", "161837.552000", "161837.555000", "161837.557000", "161837.560000", "161837.563000", "161837.565000", "161837.568000", "161837.570000", "161837.573000", "161837.576000", "161837.578000", "161837.581000", "161837.583000", "161837.586000", "161837.589000", "161837.591000", "161837.594000", "161837.596000", "161837.599000", "161837.602000", "161837.604000", "161917.521000", "161917.524000", "161917.526000", "161917.529000", "161917.532000", "161917.534000", "161917.537000", "161917.539000", "161917.556000", "161917.558000", "161917.561000", "161917.564000", "161917.566000", "161917.569000", "161917.571000", "161917.574000", "161917.577000", "161917.579000", "161917.582000", "161917.584000", "161917.587000", "161917.590000", "161917.592000", "161917.595000", "161917.598000", "161917.600000", "161917.603000", "161917.606000", "161917.608000", "161917.611000", "161917.613000", "161917.616000", "161917.619000", "161957.522000", "161957.524000", "161957.527000", "161957.530000", "161957.532000", "161957.535000", "161957.538000", "161957.540000", "161957.543000", "161957.545000", "161957.548000", "161957.551000", "161957.553000", "161957.556000", "161957.559000", "161957.561000", "161957.564000", "161957.566000", "161957.569000", "161957.572000", "161957.574000", "161957.577000", "161957.579000", "161957.582000", "161957.585000", "161957.587000", "161957.590000", "161957.592000", "161957.595000", "161957.598000", "161957.600000", "161957.603000", "161957.605000", "161957.608000", "162037.521000", "162037.523000", "162037.526000", "162037.529000", "162037.531000", "162037.534000", "162037.537000", "162037.539000", "162037.542000", "162037.545000", "162037.547000", "162037.550000", "162037.552000", "162037.555000", "162037.558000", "162037.560000", "162037.570000", "162037.573000", "162037.576000", "162037.578000", "162037.581000", "162037.583000", "162037.586000", "162037.589000", "162037.591000", "162037.594000", "162037.596000", "162037.599000", "162037.602000", "162037.604000", "162037.607000", "162037.610000", "162037.612000", "162117.520000", "162117.523000", "162117.526000", "162117.529000", "162117.532000", "162117.534000", "162117.537000", "162117.539000", "162117.542000", "162117.545000", "162117.547000", "162117.550000", "162117.553000", "162117.555000", "162117.558000", "162117.561000", "162117.563000", "162117.566000", "162117.568000", "162117.571000", "162117.574000", "162117.576000", "162117.579000", "162117.582000", "162117.584000", "162117.587000", "162117.589000", "162117.592000", "162117.595000", "162117.597000", "162117.600000", "162117.602000", "162117.605000", "162155.031000", "162155.034000", "162155.037000", "162155.039000", "162155.042000", "162155.045000", "162155.054000", "162155.056000", "162155.059000", "162155.062000", "162155.064000", "162155.067000", "162155.070000", "162155.072000", "162155.075000", "162155.078000", "162155.085000", "162155.088000", "162155.091000", "162155.094000", "162155.097000", "162155.100000", "162155.103000", "162155.107000", "162155.110000", "162155.114000", "162155.118000", "162155.121000", "162155.124000", "162155.127000", "162155.130000", "162155.135000"],
      "InstanceNumber": [1, 2, 3, 4, 5, 6, 7, 8, 9, 10, 11, 12, 13, 14, 15, 16, 17, 18, 19, 20, 21, 22, 23, 24, 25, 26, 27, 28, 29, 30, 31, 32, 33, 34, 35, 36, 37, 38, 39, 40, 41, 42, 43, 44, 45, 46, 47, 48, 49, 50, 51, 52, 53, 54, 55, 56, 57, 58, 59, 60, 61, 62, 63, 64, 65, 66, 67, 68, 69, 70, 71, 72, 73, 74, 75, 76, 77, 78, 79, 80, 81, 82, 83, 84, 85, 86, 87, 88, 89, 90, 91, 92, 93, 94, 95, 96, 97, 98, 99, 100, 101, 102, 103, 104, 105, 106, 107, 108, 109, 110, 111, 112, 113, 114, 115, 116, 117, 118, 119, 120, 121, 122, 123, 124, 125, 126, 127, 128, 129, 130, 131, 132, 133, 134, 135, 136, 137, 138, 139, 140, 141, 142, 143, 144, 145, 146, 147, 148, 149, 150, 151, 152, 153, 154, 155, 156, 157, 158, 159, 160, 161, 162, 163, 164, 165, 166, 167, 168, 169, 170, 171, 172, 173, 174, 175, 176, 177, 178, 179, 180, 181, 182, 183, 184, 185, 186, 187, 188, 189, 190, 191, 192, 193, 194, 195, 196, 197, 198, 199, 200, 201, 202, 203, 204, 205, 206, 207, 208, 209, 210, 211, 212, 213, 214, 215, 216, 217, 218, 219, 220, 221, 222, 223, 224, 225, 226, 227, 228, 229, 230, 231, 232, 233, 234, 235, 236, 237, 238, 239, 240, 241, 242, 243, 244, 245, 246, 247, 248, 249, 250, 251, 252, 253, 254, 255, 256, 257, 258, 259, 260, 261, 262, 263, 264, 265, 266, 267, 268, 269, 270, 271, 272, 273, 274, 275, 276, 277, 278, 279, 280, 281, 282, 283, 284, 285, 286, 287, 288, 289, 290, 291, 292, 293, 294, 295, 296, 297, 298, 299, 300, 301, 302, 303, 304, 305, 306, 307, 308, 309, 310, 311, 312, 313, 314, 315, 316, 317, 318, 319, 320, 321, 322, 323, 324, 325, 326, 327, 328, 329, 330, 331, 332, 333, 334, 335, 336, 337, 338, 339, 340, 341, 342, 343, 344, 345, 346, 347, 348, 349, 350, 351, 352, 353, 354, 355, 356, 357, 358, 359, 360, 361, 362, 363, 364, 365, 366, 367, 368, 369, 370, 371, 372, 373, 374, 375, 376, 377, 378, 379, 380, 381, 382, 383, 384, 385, 386, 387, 388, 389, 390, 391, 392],
