{
  "AcquisitionMatrixPE": 88,
  "AcquisitionNumber": 1,
  "AcquisitionTime": "09:17:30.467500",
  "BandwidthPerPixelPhaseEncode": 19.592,
  "BaseResolution": 88,
  "BodyPartExamined": "BRAIN",
  "ConsistencyInfo": "N4_VE11C_LATEST_20160120",
  "ConversionSoftware": "dcm2niix",
  "ConversionSoftwareVersion": "v1.0.20190902",
  "DerivedVendorReportedEchoSpacing": 0.000580014,
  "DeviceSerialNumber": "67050",
  "DwellTime": 2.6e-06,
  "EchoTime": 0.033,
  "EchoTrainLength": 88,
  "EffectiveEchoSpacing": 0.000580014,
  "FlipAngle": 62,
  "ImageOrientationPatientDICOM": [0.993117, 0.0714519, 0.0928122, -0.0630036, 0.993859, -0.0909704],
  "ImageType": [
    "ORIGINAL",
    "PRIMARY",
    "M",
    "ND",
    "MOSAIC"
],
  "ImagingFrequency": 123.251,
  "InPlanePhaseEncodingDirectionDICOM": "COL",
  "InstitutionAddress": "Olive_Street_60_Providence_RI_US_02912",
  "InstitutionName": "BROWN_UNIVERSITY_MRF",
  "InstitutionalDepartmentName": "Department",
  "MRAcquisitionType": "2D",
  "MagneticFieldStrength": 3,
  "Manufacturer": "Siemens",
  "ManufacturersModelName": "Prisma_fit",
  "Modality": "MR",
  "MultibandAccelerationFactor": 4,
  "PartialFourier": 1,
  "PatientPosition": "HFS",
  "PercentPhaseFOV": 100,
  "PhaseEncodingDirection": "j-",
  "PhaseEncodingSteps": 88,
  "PhaseResolution": 1,
  "PixelBandwidth": 2185,
  "ProcedureStepDescription": "ASHENHAV_1222",
  "ProtocolName": "func-bold_task-RDMmotion_run-02",
  "PulseSequenceDetails": "%SiemensSeq%_ep2d_bold",
  "ReceiveCoilActiveElements": "HC1-7",
  "ReceiveCoilName": "HeadNeck_64",
  "ReconMatrixPE": 88,
  "RefLinesPE": 8,
  "RepetitionTime": 1.2,
  "SAR": 0.0508552,
  "ScanOptions": "FS",
  "ScanningSequence": "EP",
  "SequenceName": "_epfid2d1_88",
  "SequenceVariant": "SK",
  "SeriesDescription": "func-bold_task-RDMmotion_run-02",
  "SeriesNumber": 9,
  "ShimSetting": [1762, -9072, 4373, 250, -125, -185, -82, -40],
  "SliceThickness": 2.4,
  "SliceTiming": [0.55, 0, 0.63, 0.08, 0.7075, 0.1575, 0.7875, 0.2375, 0.865, 0.315, 0.945, 0.395, 1.0225, 0.4725, 1.1025, 0.55, 0, 0.63, 0.08, 0.7075, 0.1575, 0.7875, 0.2375, 0.865, 0.315, 0.945, 0.395, 1.0225, 0.4725, 1.1025, 0.55, 0, 0.63, 0.08, 0.7075, 0.1575, 0.7875, 0.2375, 0.865, 0.315, 0.945, 0.395, 1.0225, 0.4725, 1.1025, 0.55, 0, 0.63, 0.08, 0.7075, 0.1575, 0.7875, 0.2375, 0.865, 0.315, 0.945, 0.395, 1.0225, 0.4725, 1.1025],
  "SoftwareVersions": "syngo_MR_E11",
  "SpacingBetweenSlices": 2.4,
  "StationName": "AWP67050",
  "TaskName": "RDMmotion",
  "TotalReadoutTime": 0.0504612,
  "TxRefAmp": 231.45,
  "dcmmeta_affine": [
    [-2.381222724914551, -0.15106554329395294, 0.23698143661022186, 106.57600402832031],
    [-0.1713222712278366, 2.3830018043518066, -0.20279209315776825, -85.0994873046875],
    [0.22253845632076263, 0.2181222140789032, 2.379646062850952, -83.88670349121094],
    [0.0, 0.0, 0.0, 1.0]
],
  "dcmmeta_reorient_transform": [
    [0.0, -1.0, 0.0, 87.0],
    [1.0, 0.0, 0.0, 0.0],
    [0.0, 0.0, 1.0, 0.0],
    [0.0, 0.0, 0.0, 1.0]
],
  "dcmmeta_shape": [88, 88, 60, 125],
  "dcmmeta_slice_dim": 2,
  "dcmmeta_version": 0.6,
  "global": {
    "const": {
      "AcquisitionMatrix": [88, 0, 0, 88],
      "AngioFlag": "N",
      "BitsAllocated": 16,
      "BitsStored": 12,
      "BodyPartExamined": "BRAIN",
      "Columns": 704,
      "DeidentificationMethodCodeSequence": [
        {
          "CodeMeaning": "XNAT DicomEdit 6 Script",
          "CodeValue": "3",
          "CodingSchemeDesignator": "XNAT",
          "CodingSchemeVersion": "1.0"}
],
      "EchoNumbers": 1,
      "EchoTime": 33.0,
      "EchoTrainLength": 88,
      "FlipAngle": 62.0,
      "HighBit": 11,
      "ImageOrientationPatient": [0.99311656243954, 0.07145194254986, 0.09281224765151, -0.063003642286, 0.9938586053007, -0.0909704002874],
      "ImagePositionPatient": [-780.3216849379, -908.95350371254, -66.27027843859],
      "ImageType": [
        "ORIGINAL",
        "PRIMARY",
        "M",
        "ND",
        "MOSAIC"
],
      "ImagedNucleus": "1H",
      "ImagingFrequency": 123.250767,
      "InPlanePhaseEncodingDirection": "COL",
      "MRAcquisitionType": "2D",
      "MagneticFieldStrength": 3.0,
      "Manufacturer": "SIEMENS",
      "ManufacturerModelName": "Prisma_fit",
      "Modality": "MR",
      "NumberOfAverages": 1.0,
      "NumberOfPhaseEncodingSteps": 88,
      "PercentPhaseFieldOfView": 100.0,
      "PercentSampling": 100.0,
      "PerformedProcedureStepStartTime": "083623.052000",
      "PhotometricInterpretation": "MONOCHROME2",
      "PixelBandwidth": 2185.0,
      "PixelRepresentation": 0,
      "PixelSpacing": [2.3977272510529, 2.3977272510529],
      "ProtocolName": "func-bold_task-RDMmotion_run-02",
      "RepetitionTime": 1200.0,
      "Rows": 704,
      "SAR": 0.05085515475147,
      "SamplesPerPixel": 1,
      "ScanOptions": "FS",
      "ScanningSequence": "EP",
      "SequenceName": "*epfid2d1_88",
      "SequenceVariant": "SK",
      "SeriesDescription": "func-bold_task-RDMmotion_run-02",
      "SeriesNumber": 9,
      "SeriesTime": "091807.738000",
      "SliceLocation": -65.461095798484,
      "SliceThickness": 2.4000000953674,
      "SmallestImagePixelValue": 0,
      "SoftwareVersions": "syngo MR E11",
      "SpacingBetweenSlices": 2.4000000239067,
      "SpecificCharacterSet": "ISO_IR 100",
      "StudyID": "1",
      "StudyTime": "083622.904000",
      "TransmitCoilName": "Body",
      "VariableFlipAngleFlag": "N",
      "WindowCenterWidthExplanation": "Algo1",
      "dBdt": 0.0},
    "slices": {}
  },
  "time": {
    "samples": {
      "AcquisitionNumber": [1, 2, 3, 4, 5, 6, 7, 8, 9, 10, 11, 12, 13, 14, 15, 16, 17, 18, 19, 20, 21, 22, 23, 24, 25, 26, 27, 28, 29, 30, 31, 32, 33, 34, 35, 36, 37, 38, 39, 40, 41, 42, 43, 44, 45, 46, 47, 48, 49, 50, 51, 52, 53, 54, 55, 56, 57, 58, 59, 60, 61, 62, 63, 64, 65, 66, 67, 68, 69, 70, 71, 72, 73, 74, 75, 76, 77, 78, 79, 80, 81, 82, 83, 84, 85, 86, 87, 88, 89, 90, 91, 92, 93, 94, 95, 96, 97, 98, 99, 100, 101, 102, 103, 104, 105, 106, 107, 108, 109, 110, 111, 112, 113, 114, 115, 116, 117, 118, 119, 120, 121, 122, 123, 124, 125],
      "AcquisitionTime": ["091730.467500", "091731.667500", "091732.867500", "091734.067500", "091735.267500", "091736.467500", "091737.667500", "091738.867500", "091740.067500", "091741.267500", "091742.467500", "091743.667500", "091744.867500", "091746.067500", "091747.267500", "091748.467500", "091749.667500", "091750.867500", "091752.067500", "091753.267500", "091754.467500", "091755.667500", "091756.867500", "091758.067500", "091759.267500", "091800.467500", "091801.667500", "091802.867500", "091804.067500", "091805.267500", "091806.467500", "091807.667500", "091808.867500", "091810.067500", "091811.267500", "091812.467500", "091813.667500", "091814.867500", "091816.067500", "091817.267500", "091818.467500", "091819.667500", "091820.867500", "091822.067500", "091823.267500", "091824.467500", "091825.667500", "091826.867500", "091828.067500", "091829.267500", "091830.467500", "091831.667500", "091832.867500", "091834.067500", "091835.267500", "091836.467500", "091837.667500", "091838.867500", "091840.067500", "091841.267500", "091842.467500", "091843.667500", "091844.867500", "091846.067500", "091847.267500", "091848.467500", "091849.667500", "091850.867500", "091852.067500", "091853.267500", "091854.467500", "091855.667500", "091856.867500", "091858.067500", "091859.267500", "091900.467500", "091901.667500", "091902.867500", "091904.067500", "091905.267500", "091906.467500", "091907.667500", "091908.867500", "091910.067500", "091911.267500", "091912.467500", "091913.667500", "091914.867500", "091916.067500", "091917.267500", "091918.467500", "091919.667500", "091920.867500", "091922.067500", "091923.267500", "091924.467500", "091925.667500", "091926.867500", "091928.067500", "091929.267500", "091930.467500", "091931.667500", "091932.867500", "091934.067500", "091935.267500", "091936.467500", "091937.667500", "091938.867500", "091940.067500", "091941.267500", "091942.467500", "091943.667500", "091944.867500", "091946.067500", "091947.267500", "091948.467500", "091949.667500", "091950.867500", "091952.067500", "091953.267500", "091954.467500", "091955.667500", "091956.867500", "091958.067500", "091959.267500"],
      "ContentTime": ["091807.742000", "091807.745000", "091807.756000", "091807.759000", "091807.761000", "091807.764000", "091807.767000", "091807.769000", "091807.772000", "091807.775000", "091807.777000", "091807.780000", "091807.791000", "091807.802000", "091807.805000", "091807.807000", "091807.810000", "091807.812000", "091807.815000", "091807.817000", "091807.826000", "091807.829000", "091807.831000", "091807.834000", "091807.837000", "091807.840000", "091807.858000", "091807.861000", "091807.864000", "091807.866000", "091847.738000", "091847.741000", "091847.744000", "091847.747000", "091847.749000", "091847.752000", "091847.754000", "091847.757000", "091847.763000", "091847.766000", "091847.769000", "091847.771000", "091847.774000", "091847.777000", "091847.779000", "091847.782000", "091847.784000", "091847.787000", "091847.790000", "091847.792000", "091847.795000", "091847.797000", "091847.800000", "091847.802000", "091847.805000", "091847.808000", "091847.810000", "091847.813000", "091847.816000", "091847.853000", "091847.855000", "091847.858000", "091847.860000", "091847.863000", "091927.738000", "091927.740000", "091927.743000", "091927.746000", "091927.748000", "091927.751000", "091927.754000", "091927.756000", "091927.759000", "091927.761000", "091927.764000", "091927.766000", "091927.777000", "091927.779000", "091927.782000", "091927.784000", "091927.787000", "091927.790000", "091927.792000", "091927.795000", "091927.797000", "091927.800000", "091927.802000", "091927.805000", "091927.808000", "091927.810000", "091927.813000", "091927.816000", "091927.818000", "091927.821000", "091927.824000", "091927.826000", "091927.829000", "092000.700000", "092000.703000", "092000.705000", "092000.708000", "092000.710000", "092000.713000", "092000.716000", "092000.718000", "092000.721000", "092000.723000", "092000.726000", "092000.729000", "092000.731000", "092000.734000", "092000.736000", "092000.739000", "092000.741000", "092000.744000", "092000.757000", "092000.759000", "092000.762000", "092000.765000", "092000.768000", "092000.771000", "092000.774000", "092000.777000", "092000.779000", "092000.782000"],
      "InstanceCreationTime": ["091807.742000", "091807.745000", "091807.756000", "091807.759000", "091807.761000", "091807.764000", "091807.767000", "091807.769000", "091807.772000", "091807.775000", "091807.777000", "091807.780000", "091807.791000", "091807.802000", "091807.805000", "091807.807000", "091807.810000", "091807.812000", "091807.815000", "091807.817000", "091807.826000", "091807.829000", "091807.831000", "091807.834000", "091807.837000", "091807.840000", "091807.858000", "091807.861000", "091807.864000", "091807.866000", "091847.738000", "091847.741000", "091847.744000", "091847.747000", "091847.749000", "091847.752000", "091847.754000", "091847.757000", "091847.763000", "091847.766000", "091847.769000", "091847.771000", "091847.774000", "091847.777000", "091847.779000", "091847.782000", "091847.784000", "091847.787000", "091847.790000", "091847.792000", "091847.795000", "091847.797000", "091847.800000", "091847.802000", "091847.805000", "091847.808000", "091847.810000", "091847.813000", "091847.816000", "091847.853000", "091847.855000", "091847.858000", "091847.860000", "091847.863000", "091927.738000", "091927.740000", "091927.743000", "091927.746000", "091927.748000", "091927.751000", "091927.754000", "091927.756000", "091927.759000", "091927.761000", "091927.764000", "091927.766000", "091927.777000", "091927.779000", "091927.782000", "091927.784000", "091927.787000", "091927.790000", "091927.792000", "091927.795000", "091927.797000", "091927.800000", "091927.802000", "091927.805000", "091927.808000", "091927.810000", "091927.813000", "091927.816000", "091927.818000", "091927.821000", "091927.824000", "091927.826000", "091927.829000", "092000.700000", "092000.703000", "092000.705000", "092000.708000", "092000.710000", "092000.713000", "092000.716000", "092000.718000", "092000.721000", "092000.723000", "092000.726000", "092000.729000", "092000.731000", "092000.734000", "092000.736000", "092000.739000", "092000.741000", "092000.744000", "092000.757000", "092000.759000", "092000.762000", "092000.765000", "092000.768000", "092000.771000", "092000.774000", "092000.777000", "092000.779000", "092000.782000"],
      "InstanceNumber": [1, 2, 3, 4, 5, 6, 7, 8, 9, 10, 11, 12, 13, 14, 15, 16, 17, 18, 19, 20, 21, 22, 23, 24, 25, 26, 27, 28, 29, 30, 31, 32, 33, 34, 35, 36, 37, 38, 39, 40, 41, 42, 43, 44, 45, 46, 47, 48, 49, 50, 51, 52, 53, 54, 55, 56, 57, 58, 59, 60, 61, 62, 63, 64, 65, 66, 67, 68, 69, 70, 71, 72, 73, 74, 75, 76, 77, 78, 79, 80, 81, 82, 83, 84, 85, 86, 87, 88, 89, 90, 91, 92, 93, 94, 95, 96, 97, 98, 99, 100, 101, 102, 103, 104, 105, 106, 107, 108, 109, 110, 111, 112, 113, 114, 115, 116, 117, 118, 119, 120, 121, 122, 123, 124, 125],
      "LargestImagePixelValue": [2459, 2405, 2365, 2355, 2368, 2350, 2361, 2357, 2345, 2346, 2361, 2362, 2410, 2377, 2370, 2372, 2336, 2340, 2347, 2356, 2362, 2347, 2351, 2368, 2351, 2365, 2358, 2346, 2347, 2372, 2388, 2362, 2351, 2338, 2339, 2349, 2384, 2407, 2424, 2408, 2395, 2377, 2390, 2394, 2380, 2356, 2344, 2370, 2354, 2378, 2372, 2362, 2371, 2342, 2368, 2387, 2378, 2369, 2360, 2350, 2370, 2379, 2368, 2354, 2382, 2389, 2384, 2365, 2372, 2353, 2378, 2378, 2385, 2367, 2341, 2348, 2372, 2383, 2393, 2393, 2385, 2378, 2379, 2428, 2398, 2397, 2387, 2397, 2389, 2374, 2370, 2398, 2392, 2404, 2417, 2375, 2403, 2387, 2402, 2422, 2416, 2392, 2402, 2402, 2398, 2440, 2387, 2405, 2408, 2409, 2428, 2415, 2387, 2417, 2393, 2392, 2424, 2401, 2417, 2427, 2400, 2387, 2378, 2394, 2378],
      "WindowCenter": [641.0, 639.0, 638.0, 637.0, 637.0, 637.0, 637.0, 637.0, 635.0, 635.0, 636.0, 637.0, 637.0, 637.0, 636.0, 636.0, 636.0, 636.0, 635.0, 636.0, 637.0, 636.0, 636.0, 636.0, 636.0, 636.0, 635.0, 636.0, 637.0, 637.0, 636.0, 635.0, 635.0, 635.0, 636.0, 637.0, 638.0, 637.0, 637.0, 636.0, 636.0, 636.0, 636.0, 636.0, 637.0, 636.0, 635.0, 635.0, 635.0, 637.0, 637.0, 636.0, 636.0, 636.0, 637.0, 637.0, 637.0, 637.0, 636.0, 635.0, 636.0, 636.0, 636.0, 637.0, 637.0, 636.0, 636.0, 637.0, 636.0, 637.0, 637.0, 636.0, 636.0, 635.0, 635.0, 636.0, 636.0, 637.0, 636.0, 636.0, 636.0, 635.0, 635.0, 637.0, 637.0, 637.0, 637.0, 636.0, 635.0, 636.0, 637.0, 637.0, 636.0, 636.0, 636.0, 635.0, 637.0, 636.0, 636.0, 636.0, 636.0, 636.0, 637.0, 637.0, 636.0, 636.0, 636.0, 636.0, 637.0, 636.0, 636.0, 636.0, 636.0, 638.0, 638.0, 638.0, 637.0, 636.0, 636.0, 636.0, 636.0, 636.0, 637.0, 637.0, 637.0],
      "WindowWidth": [1372.0, 1366.0, 1365.0, 1362.0, 1362.0, 1363.0, 1361.0, 1360.0, 1358.0, 1358.0, 1359.0, 1361.0, 1362.0, 1360.0, 1360.0, 1360.0, 1360.0, 1360.0, 1358.0, 1360.0, 1362.0, 1360.0, 1360.0, 1359.0, 1359.0, 1358.0, 1357.0, 1359.0, 1360.0, 1360.0, 1358.0, 1356.0, 1356.0, 1357.0, 1359.0, 1363.0, 1363.0, 1361.0, 1360.0, 1358.0, 1357.0, 1358.0, 1359.0, 1359.0, 1361.0, 1360.0, 1356.0, 1357.0, 1358.0, 1360.0, 1361.0, 1359.0, 1358.0, 1358.0, 1361.0, 1361.0, 1360.0, 1361.0, 1360.0, 1357.0, 1358.0, 1358.0, 1359.0, 1361.0, 1361.0, 1359.0, 1358.0, 1360.0, 1360.0, 1362.0, 1362.0, 1360.0, 1358.0, 1356.0, 1357.0, 1359.0, 1359.0, 1361.0, 1358.0, 1359.0, 1358.0, 1356.0, 1357.0, 1360.0, 1362.0, 1362.0, 1362.0, 1359.0, 1357.0, 1358.0, 1361.0, 1362.0, 1360.0, 1359.0, 1359.0, 1357.0, 1361.0, 1360.0, 1358.0, 1358.0, 1358.0, 1360.0, 1362.0, 1362.0, 1360.0, 1359.0, 1358.0, 1360.0, 1361.0, 1359.0, 1359.0, 1359.0, 1358.0, 1363.0, 1364.0, 1363.0, 1361.0, 1359.0, 1359.0, 1359.0, 1358.0, 1360.0, 1360.0, 1361.0, 1362.0]
    },
    "slices": {}
  }
}