{
  "AcquisitionMatrixPE": 88,
  "AcquisitionNumber": 1,
  "AcquisitionTime": "10:04:31.372500",
  "BandwidthPerPixelPhaseEncode": 19.592,
  "BaseResolution": 88,
  "BodyPartExamined": "BRAIN",
  "ConsistencyInfo": "N4_VE11C_LATEST_20160120",
  "ConversionSoftware": "dcm2niix",
  "ConversionSoftwareVersion": "v1.0.20190902",
  "DerivedVendorReportedEchoSpacing": 0.000580014,
  "DeviceSerialNumber": "67050",
  "DwellTime": 2.6e-06,
  "EchoTime": 0.033,
  "EchoTrainLength": 88,
  "EffectiveEchoSpacing": 0.000580014,
  "FlipAngle": 62,
  "ImageOrientationPatientDICOM": [0.993117, 0.0714519, 0.0928122, -0.0630036, 0.993859, -0.0909704],
  "ImageType": [
    "ORIGINAL",
    "PRIMARY",
    "M",
    "ND",
    "MOSAIC"
],
  "ImagingFrequency": 123.251,
  "InPlanePhaseEncodingDirectionDICOM": "COL",
  "InstitutionAddress": "Olive_Street_60_Providence_RI_US_02912",
  "InstitutionName": "BROWN_UNIVERSITY_MRF",
  "InstitutionalDepartmentName": "Department",
  "MRAcquisitionType": "2D",
  "MagneticFieldStrength": 3,
  "Manufacturer": "Siemens",
  "ManufacturersModelName": "Prisma_fit",
  "Modality": "MR",
  "MultibandAccelerationFactor": 4,
  "PartialFourier": 1,
  "PatientPosition": "HFS",
  "PercentPhaseFOV": 100,
  "PhaseEncodingDirection": "j-",
  "PhaseEncodingSteps": 88,
  "PhaseResolution": 1,
  "PixelBandwidth": 2185,
  "ProcedureStepDescription": "ASHENHAV_1222",
  "ProtocolName": "func-bold_task-RDMmotion_run-06",
  "PulseSequenceDetails": "%SiemensSeq%_ep2d_bold",
  "ReceiveCoilActiveElements": "HC1-7",
  "ReceiveCoilName": "HeadNeck_64",
  "ReconMatrixPE": 88,
  "RefLinesPE": 8,
  "RepetitionTime": 1.2,
  "SAR": 0.0508552,
  "ScanOptions": "FS",
  "ScanningSequence": "EP",
  "SequenceName": "_epfid2d1_88",
  "SequenceVariant": "SK",
  "SeriesDescription": "func-bold_task-RDMmotion_run-06",
  "SeriesNumber": 17,
  "ShimSetting": [1762, -9072, 4373, 250, -125, -185, -82, -40],
  "SliceThickness": 2.4,
  "SliceTiming": [0.55, 0, 0.6275, 0.0775, 0.7075, 0.1575, 0.785, 0.235, 0.865, 0.315, 0.9425, 0.3925, 1.0225, 0.4725, 1.1, 0.55, 0, 0.6275, 0.0775, 0.7075, 0.1575, 0.785, 0.235, 0.865, 0.315, 0.9425, 0.3925, 1.0225, 0.4725, 1.1, 0.55, 0, 0.6275, 0.0775, 0.7075, 0.1575, 0.785, 0.235, 0.865, 0.315, 0.9425, 0.3925, 1.0225, 0.4725, 1.1, 0.55, 0, 0.6275, 0.0775, 0.7075, 0.1575, 0.785, 0.235, 0.865, 0.315, 0.9425, 0.3925, 1.0225, 0.4725, 1.1],
  "SoftwareVersions": "syngo_MR_E11",
  "SpacingBetweenSlices": 2.4,
  "StationName": "AWP67050",
  "TaskName": "RDMmotion",
  "TotalReadoutTime": 0.0504612,
  "TxRefAmp": 231.45,
  "dcmmeta_affine": [
    [-2.381222724914551, -0.15106554329395294, 0.23698143661022186, 106.57600402832031],
    [-0.1713222712278366, 2.3830018043518066, -0.20279209315776825, -85.0994873046875],
    [0.22253845632076263, 0.2181222140789032, 2.379646062850952, -83.88670349121094],
    [0.0, 0.0, 0.0, 1.0]
],
  "dcmmeta_reorient_transform": [
    [0.0, -1.0, 0.0, 87.0],
    [1.0, 0.0, 0.0, 0.0],
    [0.0, 0.0, 1.0, 0.0],
    [0.0, 0.0, 0.0, 1.0]
],
  "dcmmeta_shape": [88, 88, 60, 125],
  "dcmmeta_slice_dim": 2,
  "dcmmeta_version": 0.6,
  "global": {
    "const": {
      "AcquisitionMatrix": [88, 0, 0, 88],
      "AngioFlag": "N",
      "BitsAllocated": 16,
      "BitsStored": 12,
      "BodyPartExamined": "BRAIN",
      "Columns": 704,
      "DeidentificationMethodCodeSequence": [
        {
          "CodeMeaning": "XNAT DicomEdit 6 Script",
          "CodeValue": "3",
          "CodingSchemeDesignator": "XNAT",
          "CodingSchemeVersion": "1.0"}
],
      "EchoNumbers": 1,
      "EchoTime": 33.0,
      "EchoTrainLength": 88,
      "FlipAngle": 62.0,
      "HighBit": 11,
      "ImageOrientationPatient": [0.99311656243954, 0.07145194254986, 0.09281224765151, -0.063003642286, 0.9938586053007, -0.0909704002874],
      "ImagePositionPatient": [-780.3216849379, -908.95350371254, -66.27027843859],
      "ImageType": [
        "ORIGINAL",
        "PRIMARY",
        "M",
        "ND",
        "MOSAIC"
],
      "ImagedNucleus": "1H",
      "ImagingFrequency": 123.250786,
      "InPlanePhaseEncodingDirection": "COL",
      "MRAcquisitionType": "2D",
      "MagneticFieldStrength": 3.0,
      "Manufacturer": "SIEMENS",
      "ManufacturerModelName": "Prisma_fit",
      "Modality": "MR",
      "NumberOfAverages": 1.0,
      "NumberOfPhaseEncodingSteps": 88,
      "PercentPhaseFieldOfView": 100.0,
      "PercentSampling": 100.0,
      "PerformedProcedureStepStartTime": "083623.052000",
      "PhotometricInterpretation": "MONOCHROME2",
      "PixelBandwidth": 2185.0,
      "PixelRepresentation": 0,
      "PixelSpacing": [2.3977272510529, 2.3977272510529],
      "ProtocolName": "func-bold_task-RDMmotion_run-06",
      "RepetitionTime": 1200.0,
      "Rows": 704,
      "SAR": 0.05085515475147,
      "SamplesPerPixel": 1,
      "ScanOptions": "FS",
      "ScanningSequence": "EP",
      "SequenceName": "*epfid2d1_88",
      "SequenceVariant": "SK",
      "SeriesDescription": "func-bold_task-RDMmotion_run-06",
      "SeriesNumber": 17,
      "SeriesTime": "100509.199000",
      "SliceLocation": -65.461095798484,
      "SliceThickness": 2.4000000953674,
      "SmallestImagePixelValue": 0,
      "SoftwareVersions": "syngo MR E11",
      "SpacingBetweenSlices": 2.4000000239067,
      "SpecificCharacterSet": "ISO_IR 100",
      "StudyID": "1",
      "StudyTime": "083622.904000",
      "TransmitCoilName": "Body",
      "VariableFlipAngleFlag": "N",
      "WindowCenterWidthExplanation": "Algo1",
      "dBdt": 0.0},
    "slices": {}
  },
  "time": {
    "samples": {
      "AcquisitionNumber": [1, 2, 3, 4, 5, 6, 7, 8, 9, 10, 11, 12, 13, 14, 15, 16, 17, 18, 19, 20, 21, 22, 23, 24, 25, 26, 27, 28, 29, 30, 31, 32, 33, 34, 35, 36, 37, 38, 39, 40, 41, 42, 43, 44, 45, 46, 47, 48, 49, 50, 51, 52, 53, 54, 55, 56, 57, 58, 59, 60, 61, 62, 63, 64, 65, 66, 67, 68, 69, 70, 71, 72, 73, 74, 75, 76, 77, 78, 79, 80, 81, 82, 83, 84, 85, 86, 87, 88, 89, 90, 91, 92, 93, 94, 95, 96, 97, 98, 99, 100, 101, 102, 103, 104, 105, 106, 107, 108, 109, 110, 111, 112, 113, 114, 115, 116, 117, 118, 119, 120, 121, 122, 123, 124, 125],
      "AcquisitionTime": ["100431.372500", "100432.572500", "100433.772500", "100434.972500", "100436.172500", "100437.372500", "100438.572500", "100439.772500", "100440.972500", "100442.172500", "100443.372500", "100444.572500", "100445.772500", "100446.972500", "100448.172500", "100449.372500", "100450.572500", "100451.772500", "100452.972500", "100454.172500", "100455.372500", "100456.572500", "100457.772500", "100458.972500", "100500.172500", "100501.372500", "100502.572500", "100503.772500", "100504.972500", "100506.172500", "100507.372500", "100508.572500", "100509.772500", "100510.972500", "100512.172500", "100513.372500", "100514.572500", "100515.772500", "100516.972500", "100518.172500", "100519.372500", "100520.572500", "100521.772500", "100522.972500", "100524.172500", "100525.372500", "100526.572500", "100527.772500", "100528.972500", "100530.172500", "100531.372500", "100532.572500", "100533.772500", "100534.972500", "100536.172500", "100537.372500", "100538.572500", "100539.772500", "100540.972500", "100542.172500", "100543.372500", "100544.572500", "100545.772500", "100546.972500", "100548.172500", "100549.372500", "100550.572500", "100551.772500", "100552.972500", "100554.172500", "100555.372500", "100556.572500", "100557.772500", "100558.972500", "100600.172500", "100601.372500", "100602.572500", "100603.772500", "100604.972500", "100606.172500", "100607.372500", "100608.572500", "100609.772500", "100610.972500", "100612.172500", "100613.372500", "100614.572500", "100615.772500", "100616.972500", "100618.172500", "100619.372500", "100620.572500", "100621.772500", "100622.972500", "100624.172500", "100625.372500", "100626.572500", "100627.772500", "100628.972500", "100630.172500", "100631.372500", "100632.572500", "100633.772500", "100634.972500", "100636.172500", "100637.372500", "100638.572500", "100639.772500", "100640.972500", "100642.172500", "100643.372500", "100644.572500", "100645.772500", "100646.972500", "100648.172500", "100649.372500", "100650.572500", "100651.772500", "100652.972500", "100654.172500", "100655.372500", "100656.572500", "100657.772500", "100658.972500", "100700.172500"],
      "ContentTime": ["100509.203000", "100509.206000", "100509.209000", "100509.211000", "100509.214000", "100509.217000", "100509.219000", "100509.222000", "100509.224000", "100509.234000", "100509.237000", "100509.239000", "100509.242000", "100509.245000", "100509.247000", "100509.250000", "100509.252000", "100509.255000", "100509.263000", "100509.266000", "100509.268000", "100509.271000", "100509.274000", "100509.276000", "100509.279000", "100509.281000", "100509.284000", "100509.287000", "100509.289000", "100509.292000", "100509.294000", "100549.199000", "100549.202000", "100549.204000", "100549.207000", "100549.210000", "100549.219000", "100549.222000", "100549.225000", "100549.227000", "100549.230000", "100549.233000", "100549.236000", "100549.238000", "100549.241000", "100549.243000", "100549.246000", "100549.248000", "100549.251000", "100549.254000", "100549.257000", "100549.259000", "100549.262000", "100549.264000", "100549.267000", "100549.270000", "100549.273000", "100549.275000", "100549.278000", "100549.281000", "100549.283000", "100549.286000", "100549.288000", "100549.291000", "100629.198000", "100629.201000", "100629.203000", "100629.206000", "100629.208000", "100629.211000", "100629.214000", "100629.216000", "100629.219000", "100629.222000", "100629.224000", "100629.227000", "100629.229000", "100629.232000", "100629.235000", "100629.241000", "100629.244000", "100629.247000", "100629.249000", "100629.252000", "100629.254000", "100629.257000", "100629.259000", "100629.262000", "100629.265000", "100629.267000", "100629.270000", "100629.272000", "100629.275000", "100629.278000", "100629.280000", "100629.283000", "100629.285000", "100701.829000", "100701.832000", "100701.835000", "100701.838000", "100701.840000", "100701.843000", "100701.845000", "100701.848000", "100701.851000", "100701.853000", "100701.856000", "100701.858000", "100701.861000", "100701.864000", "100701.866000", "100701.869000", "100701.871000", "100701.874000", "100701.876000", "100701.879000", "100701.882000", "100701.890000", "100701.892000", "100701.895000", "100701.898000", "100701.900000", "100701.903000", "100701.905000"],
      "InstanceCreationTime": ["100509.203000", "100509.206000", "100509.209000", "100509.211000", "100509.214000", "100509.217000", "100509.219000", "100509.222000", "100509.224000", "100509.234000", "100509.237000", "100509.239000", "100509.242000", "100509.245000", "100509.247000", "100509.250000", "100509.252000", "100509.255000", "100509.263000", "100509.266000", "100509.268000", "100509.271000", "100509.274000", "100509.276000", "100509.279000", "100509.281000", "100509.284000", "100509.287000", "100509.289000", "100509.292000", "100509.294000", "100549.199000", "100549.202000", "100549.204000", "100549.207000", "100549.210000", "100549.219000", "100549.222000", "100549.225000", "100549.227000", "100549.230000", "100549.233000", "100549.236000", "100549.238000", "100549.241000", "100549.243000", "100549.246000", "100549.248000", "100549.251000", "100549.254000", "100549.257000", "100549.259000", "100549.262000", "100549.264000", "100549.267000", "100549.270000", "100549.273000", "100549.275000", "100549.278000", "100549.281000", "100549.283000", "100549.286000", "100549.288000", "100549.291000", "100629.198000", "100629.201000", "100629.203000", "100629.206000", "100629.208000", "100629.211000", "100629.214000", "100629.216000", "100629.219000", "100629.222000", "100629.224000", "100629.227000", "100629.229000", "100629.232000", "100629.235000", "100629.241000", "100629.244000", "100629.247000", "100629.249000", "100629.252000", "100629.254000", "100629.257000", "100629.259000", "100629.262000", "100629.265000", "100629.267000", "100629.270000", "100629.272000", "100629.275000", "100629.278000", "100629.280000", "100629.283000", "100629.285000", "100701.829000", "100701.832000", "100701.835000", "100701.838000", "100701.840000", "100701.843000", "100701.845000", "100701.848000", "100701.851000", "100701.853000", "100701.856000", "100701.858000", "100701.861000", "100701.864000", "100701.866000", "100701.869000", "100701.871000", "100701.874000", "100701.876000", "100701.879000", "100701.882000", "100701.890000", "100701.892000", "100701.895000", "100701.898000", "100701.900000", "100701.903000", "100701.905000"],
      "InstanceNumber": [1, 2, 3, 4, 5, 6, 7, 8, 9, 10, 11, 12, 13, 14, 15, 16, 17, 18, 19, 20, 21, 22, 23, 24, 25, 26, 27, 28, 29, 30, 31, 32, 33, 34, 35, 36, 37, 38, 39, 40, 41, 42, 43, 44, 45, 46, 47, 48, 49, 50, 51, 52, 53, 54, 55, 56, 57, 58, 59, 60, 61, 62, 63, 64, 65, 66, 67, 68, 69, 70, 71, 72, 73, 74, 75, 76, 77, 78, 79, 80, 81, 82, 83, 84, 85, 86, 87, 88, 89, 90, 91, 92, 93, 94, 95, 96, 97, 98, 99, 100, 101, 102, 103, 104, 105, 106, 107, 108, 109, 110, 111, 112, 113, 114, 115, 116, 117, 118, 119, 120, 121, 122, 123, 124, 125],
      "LargestImagePixelValue": [2801, 2720, 2652, 2639, 2574, 2557, 2582, 2582, 2574, 2592, 2566, 2591, 2597, 2564, 2615, 2596, 2566, 2585, 2535, 2603, 2586, 2564, 2553, 2562, 2583, 2548, 2577, 2569, 2586, 2605, 2536, 2649, 2574, 2599, 2595, 2555, 2595, 2577, 2582, 2612, 2595, 2593, 2552, 2583, 2621, 2592, 2565, 2613, 2612, 2565, 2594, 2590, 2597, 2578, 2621, 2600, 2624, 2635, 2609, 2602, 2595, 2603, 2652, 2566, 2612, 2599, 2613, 2594, 2630, 2597, 2600, 2579, 2643, 2626, 2597, 2621, 2610, 2587, 2636, 2528, 2612, 2567, 2602, 2604, 2621, 2594, 2642, 2597, 2647, 2590, 2598, 2590, 2601, 2599, 2630, 2611, 2591, 2631, 2607, 2580, 2631, 2551, 2658, 2620, 2618, 2649, 2592, 2659, 2632, 2615, 2657, 2619, 2645, 2653, 2626, 2639, 2620, 2594, 2648, 2618, 2620, 2648, 2585, 2661, 2632],
      "WindowCenter": [645.0, 643.0, 641.0, 639.0, 639.0, 639.0, 639.0, 640.0, 639.0, 639.0, 638.0, 639.0, 639.0, 638.0, 639.0, 638.0, 638.0, 638.0, 637.0, 638.0, 638.0, 637.0, 637.0, 638.0, 639.0, 638.0, 638.0, 637.0, 638.0, 638.0, 637.0, 638.0, 638.0, 639.0, 639.0, 637.0, 637.0, 638.0, 639.0, 640.0, 639.0, 638.0, 637.0, 638.0, 638.0, 639.0, 639.0, 639.0, 638.0, 637.0, 638.0, 639.0, 640.0, 639.0, 639.0, 638.0, 638.0, 638.0, 637.0, 637.0, 637.0, 637.0, 637.0, 636.0, 637.0, 637.0, 638.0, 638.0, 638.0, 638.0, 638.0, 637.0, 638.0, 637.0, 638.0, 639.0, 639.0, 639.0, 639.0, 638.0, 639.0, 638.0, 639.0, 639.0, 639.0, 639.0, 639.0, 639.0, 639.0, 639.0, 639.0, 638.0, 639.0, 640.0, 641.0, 641.0, 640.0, 640.0, 639.0, 639.0, 638.0, 637.0, 638.0, 638.0, 638.0, 638.0, 638.0, 639.0, 638.0, 637.0, 638.0, 638.0, 638.0, 638.0, 637.0, 638.0, 638.0, 638.0, 638.0, 638.0, 638.0, 638.0, 637.0, 638.0, 637.0],
      "WindowWidth": [1378.0, 1373.0, 1369.0, 1366.0, 1364.0, 1365.0, 1366.0, 1367.0, 1366.0, 1364.0, 1363.0, 1363.0, 1364.0, 1364.0, 1365.0, 1363.0, 1363.0, 1362.0, 1360.0, 1363.0, 1363.0, 1361.0, 1361.0, 1362.0, 1364.0, 1364.0, 1363.0, 1361.0, 1362.0, 1362.0, 1361.0, 1362.0, 1363.0, 1364.0, 1365.0, 1360.0, 1360.0, 1363.0, 1365.0, 1366.0, 1365.0, 1362.0, 1361.0, 1361.0, 1363.0, 1365.0, 1365.0, 1364.0, 1361.0, 1360.0, 1362.0, 1365.0, 1366.0, 1365.0, 1364.0, 1363.0, 1362.0, 1362.0, 1360.0, 1359.0, 1359.0, 1359.0, 1360.0, 1359.0, 1360.0, 1361.0, 1362.0, 1362.0, 1362.0, 1362.0, 1361.0, 1361.0, 1362.0, 1361.0, 1362.0, 1364.0, 1365.0, 1365.0, 1364.0, 1362.0, 1364.0, 1363.0, 1364.0, 1364.0, 1364.0, 1364.0, 1365.0, 1365.0, 1365.0, 1365.0, 1363.0, 1362.0, 1365.0, 1368.0, 1369.0, 1368.0, 1367.0, 1365.0, 1364.0, 1364.0, 1363.0, 1360.0, 1362.0, 1362.0, 1362.0, 1363.0, 1363.0, 1364.0, 1362.0, 1360.0, 1362.0, 1362.0, 1362.0, 1362.0, 1361.0, 1361.0, 1363.0, 1361.0, 1362.0, 1361.0, 1362.0, 1363.0, 1361.0, 1361.0, 1360.0]
    },
    "slices": {}
  }
}