{
  "AcquisitionMatrixPE": 88,
  "AcquisitionNumber": 1,
  "AcquisitionTime": "16:39:16.752500",
  "BandwidthPerPixelPhaseEncode": 19.592,
  "BaseResolution": 88,
  "BodyPartExamined": "BRAIN",
  "ConsistencyInfo": "N4_VE11C_LATEST_20160120",
  "ConversionSoftware": "dcm2niix",
  "ConversionSoftwareVersion": "v1.0.20190902",
  "DerivedVendorReportedEchoSpacing": 0.000580014,
  "DeviceSerialNumber": "67050",
  "DwellTime": 2.6e-06,
  "EchoTime": 0.033,
  "EchoTrainLength": 88,
  "EffectiveEchoSpacing": 0.000580014,
  "FlipAngle": 62,
  "ImageOrientationPatientDICOM": [0.998606, 0.0290735, 0.0440563, -0.0210922, 0.984895, -0.171861],
  "ImageType": [
    "ORIGINAL",
    "PRIMARY",
    "M",
    "ND",
    "MOSAIC"
],
  "ImagingFrequency": 123.251,
  "InPlanePhaseEncodingDirectionDICOM": "COL",
  "InstitutionAddress": "Olive_Street_60_Providence_RI_US_02912",
  "InstitutionName": "BROWN_UNIVERSITY_MRF",
  "InstitutionalDepartmentName": "Department",
  "MRAcquisitionType": "2D",
  "MagneticFieldStrength": 3,
  "Manufacturer": "Siemens",
  "ManufacturersModelName": "Prisma_fit",
  "Modality": "MR",
  "MultibandAccelerationFactor": 4,
  "PartialFourier": 1,
  "PatientPosition": "HFS",
  "PercentPhaseFOV": 100,
  "PhaseEncodingDirection": "j-",
  "PhaseEncodingSteps": 88,
  "PhaseResolution": 1,
  "PixelBandwidth": 2185,
  "ProcedureStepDescription": "ASHENHAV_1222",
  "ProtocolName": "func-bold_task-RDMlocalizer_run-02",
  "PulseSequenceDetails": "%SiemensSeq%_ep2d_bold",
  "ReceiveCoilActiveElements": "HC1-7",
  "ReceiveCoilName": "HeadNeck_64",
  "ReconMatrixPE": 88,
  "RefLinesPE": 8,
  "RepetitionTime": 1.2,
  "SAR": 0.0617615,
  "ScanOptions": "FS",
  "ScanningSequence": "EP",
  "SequenceName": "_epfid2d1_88",
  "SequenceVariant": "SK",
  "SeriesDescription": "func-bold_task-RDMlocalizer_run-02",
  "SeriesNumber": 20,
  "ShimSetting": [1769, -9091, 4399, 428, -70, -249, 43, 12],
  "SliceThickness": 2.4,
  "SliceTiming": [0.5525, 0, 0.63, 0.08, 0.71, 0.1575, 0.7875, 0.2375, 0.865, 0.315, 0.945, 0.395, 1.0225, 0.4725, 1.1025, 0.5525, 0, 0.63, 0.08, 0.71, 0.1575, 0.7875, 0.2375, 0.865, 0.315, 0.945, 0.395, 1.0225, 0.4725, 1.1025, 0.5525, 0, 0.63, 0.08, 0.71, 0.1575, 0.7875, 0.2375, 0.865, 0.315, 0.945, 0.395, 1.0225, 0.4725, 1.1025, 0.5525, 0, 0.63, 0.08, 0.71, 0.1575, 0.7875, 0.2375, 0.865, 0.315, 0.945, 0.395, 1.0225, 0.4725, 1.1025],
  "SoftwareVersions": "syngo_MR_E11",
  "SpacingBetweenSlices": 2.4,
  "StationName": "AWP67050",
  "TaskName": "RDMlocalizer",
  "TotalReadoutTime": 0.0504612,
  "TxRefAmp": 254.149,
  "dcmmeta_affine": [
    [-2.3943846225738525, -0.05057332664728165, 0.11612989753484726, 108.64788818359375],
    [-0.06971030682325363, 2.3615105152130127, -0.4096611440181732, -79.7043685913086],
    [0.10563502460718155, 0.4120757579803467, 2.3619253635406494, -80.73521423339844],
    [0.0, 0.0, 0.0, 1.0]
],
  "dcmmeta_reorient_transform": [
    [0.0, -1.0, 0.0, 87.0],
    [1.0, 0.0, 0.0, 0.0],
    [0.0, 0.0, 1.0, 0.0],
    [0.0, 0.0, 0.0, 1.0]
],
  "dcmmeta_shape": [88, 88, 60, 195],
  "dcmmeta_slice_dim": 2,
  "dcmmeta_version": 0.6,
  "global": {
    "const": {
      "AcquisitionMatrix": [88, 0, 0, 88],
      "AngioFlag": "N",
      "BitsAllocated": 16,
      "BitsStored": 12,
      "BodyPartExamined": "BRAIN",
      "Columns": 704,
      "DeidentificationMethodCodeSequence": [
        {
          "CodeMeaning": "XNAT DicomEdit 6 Script",
          "CodeValue": "3",
          "CodingSchemeDesignator": "XNAT",
          "CodingSchemeVersion": "1.0"}
],
      "EchoNumbers": 1,
      "EchoTime": 33.0,
      "EchoTrainLength": 88,
      "FlipAngle": 62.0,
      "HighBit": 11,
      "ImageOrientationPatient": [0.99860591488418, 0.0290734943836, 0.0440563126313, -0.0210921938825, 0.98489538727105, -0.1718609772154],
      "ImagePositionPatient": [-826.141881586, -874.56305525433, 49.499116829894],
      "ImageType": [
        "ORIGINAL",
        "PRIMARY",
        "M",
        "ND",
        "MOSAIC"
],
      "ImagedNucleus": "1H",
      "ImagingFrequency": 123.250722,
      "InPlanePhaseEncodingDirection": "COL",
      "MRAcquisitionType": "2D",
      "MagneticFieldStrength": 3.0,
      "Manufacturer": "SIEMENS",
      "ManufacturerModelName": "Prisma_fit",
      "Modality": "MR",
      "NumberOfAverages": 1.0,
      "NumberOfPhaseEncodingSteps": 88,
      "PercentPhaseFieldOfView": 100.0,
      "PercentSampling": 100.0,
      "PerformedProcedureStepStartTime": "151453.303000",
      "PhotometricInterpretation": "MONOCHROME2",
      "PixelBandwidth": 2185.0,
      "PixelRepresentation": 0,
      "PixelSpacing": [2.3977272510529, 2.3977272510529],
      "ProtocolName": "func-bold_task-RDMlocalizer_run-02",
      "RepetitionTime": 1200.0,
      "Rows": 704,
      "SAR": 0.06176153489563,
      "SamplesPerPixel": 1,
      "ScanOptions": "FS",
      "ScanningSequence": "EP",
      "SequenceName": "*epfid2d1_88",
      "SequenceVariant": "SK",
      "SeriesDescription": "func-bold_task-RDMlocalizer_run-02",
      "SeriesNumber": 20,
      "SeriesTime": "163946.215000",
      "SliceLocation": -60.592295046741,
      "SliceThickness": 2.4000000953674,
      "SmallestImagePixelValue": 0,
      "SoftwareVersions": "syngo MR E11",
      "SpacingBetweenSlices": 2.4000000129153,
      "SpecificCharacterSet": "ISO_IR 100",
      "StudyID": "1",
      "StudyTime": "151453.174000",
      "TransmitCoilName": "Body",
      "VariableFlipAngleFlag": "N",
      "WindowCenterWidthExplanation": "Algo1",
      "dBdt": 0.0},
    "slices": {}
  },
  "time": {
    "samples": {
      "AcquisitionNumber": [1, 2, 3, 4, 5, 6, 7, 8, 9, 10, 11, 12, 13, 14, 15, 16, 17, 18, 19, 20, 21, 22, 23, 24, 25, 26, 27, 28, 29, 30, 31, 32, 33, 34, 35, 36, 37, 38, 39, 40, 41, 42, 43, 44, 45, 46, 47, 48, 49, 50, 51, 52, 53, 54, 55, 56, 57, 58, 59, 60, 61, 62, 63, 64, 65, 66, 67, 68, 69, 70, 71, 72, 73, 74, 75, 76, 77, 78, 79, 80, 81, 82, 83, 84, 85, 86, 87, 88, 89, 90, 91, 92, 93, 94, 95, 96, 97, 98, 99, 100, 101, 102, 103, 104, 105, 106, 107, 108, 109, 110, 111, 112, 113, 114, 115, 116, 117, 118, 119, 120, 121, 122, 123, 124, 125, 126, 127, 128, 129, 130, 131, 132, 133, 134, 135, 136, 137, 138, 139, 140, 141, 142, 143, 144, 145, 146, 147, 148, 149, 150, 151, 152, 153, 154, 155, 156, 157, 158, 159, 160, 161, 162, 163, 164, 165, 166, 167, 168, 169, 170, 171, 172, 173, 174, 175, 176, 177, 178, 179, 180, 181, 182, 183, 184, 185, 186, 187, 188, 189, 190, 191, 192, 193, 194, 195],
      "AcquisitionTime": ["163916.752500", "163917.952500", "163919.152500", "163920.352500", "163921.552500", "163922.752500", "163923.952500", "163925.152500", "163926.352500", "163927.552500", "163928.752500", "163929.952500", "163931.152500", "163932.352500", "163933.552500", "163934.752500", "163935.952500", "163937.152500", "163938.352500", "163939.552500", "163940.752500", "163941.952500", "163943.152500", "163944.352500", "163945.552500", "163946.752500", "163947.952500", "163949.152500", "163950.352500", "163951.552500", "163952.752500", "163953.952500", "163955.152500", "163956.352500", "163957.552500", "163958.752500", "163959.952500", "164001.152500", "164002.352500", "164003.552500", "164004.752500", "164005.952500", "164007.152500", "164008.352500", "164009.552500", "164010.752500", "164011.952500", "164013.152500", "164014.352500", "164015.552500", "164016.752500", "164017.952500", "164019.152500", "164020.352500", "164021.552500", "164022.752500", "164023.952500", "164025.152500", "164026.352500", "164027.552500", "164028.752500", "164029.952500", "164031.152500", "164032.352500", "164033.552500", "164034.752500", "164035.952500", "164037.152500", "164038.352500", "164039.552500", "164040.752500", "164041.952500", "164043.152500", "164044.352500", "164045.552500", "164046.752500", "164047.952500", "164049.152500", "164050.352500", "164051.552500", "164052.752500", "164053.952500", "164055.152500", "164056.352500", "164057.552500", "164058.752500", "164059.952500", "164101.152500", "164102.352500", "164103.552500", "164104.752500", "164105.952500", "164107.152500", "164108.352500", "164109.552500", "164110.752500", "164111.952500", "164113.152500", "164114.352500", "164115.552500", "164116.752500", "164117.952500", "164119.152500", "164120.352500", "164121.552500", "164122.752500", "164123.952500", "164125.152500", "164126.352500", "164127.552500", "164128.752500", "164129.952500", "164131.152500", "164132.352500", "164133.552500", "164134.752500", "164135.952500", "164137.152500", "164138.352500", "164139.552500", "164140.752500", "164141.952500", "164143.152500", "164144.352500", "164145.552500", "164146.752500", "164147.952500", "164149.152500", "164150.352500", "164151.552500", "164152.752500", "164153.952500", "164155.152500", "164156.352500", "164157.552500", "164158.752500", "164159.952500", "164201.152500", "164202.352500", "164203.552500", "164204.752500", "164205.952500", "164207.152500", "164208.352500", "164209.552500", "164210.752500", "164211.952500", "164213.152500", "164214.352500", "164215.552500", "164216.752500", "164217.952500", "164219.152500", "164220.352500", "164221.552500", "164222.752500", "164223.952500", "164225.152500", "164226.352500", "164227.552500", "164228.752500", "164229.952500", "164231.152500", "164232.352500", "164233.552500", "164234.752500", "164235.952500", "164237.152500", "164238.352500", "164239.552500", "164240.752500", "164241.952500", "164243.152500", "164244.352500", "164245.552500", "164246.752500", "164247.952500", "164249.152500", "164250.352500", "164251.552500", "164252.752500", "164253.952500", "164255.152500", "164256.352500", "164257.552500", "164258.752500", "164259.952500", "164301.152500", "164302.352500", "164303.552500", "164304.752500", "164305.952500", "164307.152500", "164308.352500", "164309.552500"],
      "ContentTime": ["163946.218000", "163946.221000", "163946.224000", "163946.227000", "163946.229000", "163946.232000", "163946.234000", "163946.248000", "163946.251000", "163946.253000", "163946.256000", "163946.258000", "163946.261000", "163946.263000", "163946.274000", "163946.283000", "163946.286000", "163946.288000", "163946.291000", "163946.293000", "163946.296000", "163946.299000", "163946.301000", "163946.304000", "164026.213000", "164026.216000", "164026.235000", "164026.238000", "164026.240000", "164026.243000", "164026.256000", "164026.259000", "164026.262000", "164026.264000", "164026.268000", "164026.271000", "164026.273000", "164026.276000", "164026.278000", "164026.281000", "164026.284000", "164026.286000", "164026.289000", "164026.292000", "164026.294000", "164026.297000", "164026.299000", "164026.302000", "164026.305000", "164026.307000", "164026.310000", "164026.312000", "164026.315000", "164026.318000", "164026.320000", "164026.323000", "164026.325000", "164106.214000", "164106.217000", "164106.220000", "164106.222000", "164106.225000", "164106.228000", "164106.230000", "164106.233000", "164106.235000", "164106.238000", "164106.241000", "164106.243000", "164106.246000", "164106.248000", "164106.251000", "164106.253000", "164106.256000", "164106.259000", "164106.261000", "164106.264000", "164106.267000", "164106.269000", "164106.272000", "164106.274000", "164106.277000", "164106.280000", "164106.282000", "164106.285000", "164106.287000", "164106.290000", "164106.293000", "164106.295000", "164106.298000", "164106.300000", "164146.213000", "164146.216000", "164146.219000", "164146.221000", "164146.224000", "164146.227000", "164146.229000", "164146.232000", "164146.235000", "164146.237000", "164146.240000", "164146.242000", "164146.245000", "164146.248000", "164146.251000", "164146.253000", "164146.256000", "164146.258000", "164146.261000", "164146.263000", "164146.266000", "164146.269000", "164146.271000", "164146.274000", "164146.276000", "164146.280000", "164146.283000", "164146.286000", "164146.288000", "164146.291000", "164146.294000", "164146.296000", "164146.299000", "164226.214000", "164226.217000", "164226.219000", "164226.222000", "164226.224000", "164226.227000", "164226.230000", "164226.232000", "164226.235000", "164226.238000", "164226.241000", "164226.243000", "164226.246000", "164226.249000", "164226.251000", "164226.254000", "164226.256000", "164226.259000", "164226.262000", "164226.264000", "164226.267000", "164226.270000", "164226.272000", "164226.275000", "164226.278000", "164226.280000", "164226.283000", "164226.286000", "164226.288000", "164226.291000", "164226.293000", "164226.296000", "164226.299000", "164306.213000", "164306.216000", "164306.219000", "164306.221000", "164306.224000", "164306.227000", "164306.229000", "164306.232000", "164306.235000", "164306.237000", "164306.240000", "164306.242000", "164306.245000", "164306.248000", "164306.250000", "164306.253000", "164306.256000", "164306.258000", "164306.261000", "164306.264000", "164306.266000", "164306.269000", "164306.272000", "164306.274000", "164306.277000", "164306.279000", "164306.282000", "164306.285000", "164306.287000", "164306.290000", "164306.293000", "164306.295000", "164306.298000", "164306.300000", "164310.683000", "164310.686000", "164310.689000", "164310.691000"],
      "InstanceCreationTime": ["163946.218000", "163946.221000", "163946.224000", "163946.227000", "163946.229000", "163946.232000", "163946.234000", "163946.248000", "163946.251000", "163946.253000", "163946.256000", "163946.258000", "163946.261000", "163946.263000", "163946.274000", "163946.283000", "163946.286000", "163946.288000", "163946.291000", "163946.293000", "163946.296000", "163946.299000", "163946.301000", "163946.304000", "164026.213000", "164026.216000", "164026.235000", "164026.238000", "164026.240000", "164026.243000", "164026.256000", "164026.259000", "164026.262000", "164026.264000", "164026.268000", "164026.271000", "164026.273000", "164026.276000", "164026.278000", "164026.281000", "164026.284000", "164026.286000", "164026.289000", "164026.292000", "164026.294000", "164026.297000", "164026.299000", "164026.302000", "164026.305000", "164026.307000", "164026.310000", "164026.312000", "164026.315000", "164026.318000", "164026.320000", "164026.323000", "164026.325000", "164106.214000", "164106.217000", "164106.220000", "164106.222000", "164106.225000", "164106.228000", "164106.230000", "164106.233000", "164106.235000", "164106.238000", "164106.241000", "164106.243000", "164106.246000", "164106.248000", "164106.251000", "164106.253000", "164106.256000", "164106.259000", "164106.261000", "164106.264000", "164106.267000", "164106.269000", "164106.272000", "164106.274000", "164106.277000", "164106.280000", "164106.282000", "164106.285000", "164106.287000", "164106.290000", "164106.293000", "164106.295000", "164106.298000", "164106.300000", "164146.213000", "164146.216000", "164146.219000", "164146.221000", "164146.224000", "164146.227000", "164146.229000", "164146.232000", "164146.235000", "164146.237000", "164146.240000", "164146.242000", "164146.245000", "164146.248000", "164146.251000", "164146.253000", "164146.256000", "164146.258000", "164146.261000", "164146.263000", "164146.266000", "164146.269000", "164146.271000", "164146.274000", "164146.276000", "164146.280000", "164146.283000", "164146.286000", "164146.288000", "164146.291000", "164146.294000", "164146.296000", "164146.299000", "164226.214000", "164226.217000", "164226.219000", "164226.222000", "164226.224000", "164226.227000", "164226.230000", "164226.232000", "164226.235000", "164226.238000", "164226.241000", "164226.243000", "164226.246000", "164226.249000", "164226.251000", "164226.254000", "164226.256000", "164226.259000", "164226.262000", "164226.264000", "164226.267000", "164226.270000", "164226.272000", "164226.275000", "164226.278000", "164226.280000", "164226.283000", "164226.286000", "164226.288000", "164226.291000", "164226.293000", "164226.296000", "164226.299000", "164306.213000", "164306.216000", "164306.219000", "164306.221000", "164306.224000", "164306.227000", "164306.229000", "164306.232000", "164306.235000", "164306.237000", "164306.240000", "164306.242000", "164306.245000", "164306.248000", "164306.250000", "164306.253000", "164306.256000", "164306.258000", "164306.261000", "164306.264000", "164306.266000", "164306.269000", "164306.272000", "164306.274000", "164306.277000", "164306.279000", "164306.282000", "164306.285000", "164306.287000", "164306.290000", "164306.293000", "164306.295000", "164306.298000", "164306.300000", "164310.683000", "164310.686000", "164310.689000", "164310.691000"],
      "InstanceNumber": [1, 2, 3, 4, 5, 6, 7, 8, 9, 10, 11, 12, 13, 14, 15, 16, 17, 18, 19, 20, 21, 22, 23, 24, 25, 26, 27, 28, 29, 30, 31, 32, 33, 34, 35, 36, 37, 38, 39, 40, 41, 42, 43, 44, 45, 46, 47, 48, 49, 50, 51, 52, 53, 54, 55, 56, 57, 58, 59, 60, 61, 62, 63, 64, 65, 66, 67, 68, 69, 70, 71, 72, 73, 74, 75, 76, 77, 78, 79, 80, 81, 82, 83, 84, 85, 86, 87, 88, 89, 90, 91, 92, 93, 94, 95, 96, 97, 98, 99, 100, 101, 102, 103, 104, 105, 106, 107, 108, 109, 110, 111, 112, 113, 114, 115, 116, 117, 118, 119, 120, 121, 122, 123, 124, 125, 126, 127, 128, 129, 130, 131, 132, 133, 134, 135, 136, 137, 138, 139, 140, 141, 142, 143, 144, 145, 146, 147, 148, 149, 150, 151, 152, 153, 154, 155, 156, 157, 158, 159, 160, 161, 162, 163, 164, 165, 166, 167, 168, 169, 170, 171, 172, 173, 174, 175, 176, 177, 178, 179, 180, 181, 182, 183, 184, 185, 186, 187, 188, 189, 190, 191, 192, 193, 194, 195],
      "LargestImagePixelValue": [2351, 2280, 2255, 2269, 2240, 2293, 2283, 2252, 2260, 2241, 2219, 2243, 2274, 2296, 2335, 2303, 2262, 2271, 2285, 2268, 2264, 2218, 2207, 2204, 2213, 2195, 2214, 2215, 2204, 2225, 2211, 2217, 2226, 2228, 2218, 2212, 2219, 2207, 2207, 2205, 2225, 2229, 2233, 2235, 2245, 2251, 2249, 2257, 2264, 2282, 2220, 2210, 2192, 2194, 2197, 2189, 2192, 2200, 2205, 2202, 2199, 2218, 2233, 2247, 2282, 2287, 2298, 2277, 2259, 2256, 2238, 2234, 2280, 2257, 2224, 2214, 2208, 2216, 2221, 2213, 2241, 2269, 2264, 2272, 2236, 2232, 2207, 2224, 2198, 2221, 2233, 2255, 2278, 2256, 2248, 2208, 2263, 2264, 2254, 2272, 2251, 2231, 2228, 2231, 2252, 2242, 2240, 2245, 2235, 2255, 2272, 2280, 2264, 2285, 2262, 2252, 2248, 2265, 2273, 2262, 2254, 2285, 2283, 2267, 2266, 2250, 2251, 2235, 2247, 2259, 2286, 2303, 2292, 2262, 2245, 2237, 2237, 2215, 2211, 2230, 2257, 2242, 2243, 2263, 2233, 2219, 2191, 2178, 2204, 2268, 2277, 2267, 2265, 2241, 2248, 2247, 2249, 2264, 2267, 2220, 2240, 2272, 2240, 2245, 2262, 2270, 2279, 2271, 2291, 2301, 2297, 2280, 2270, 2308, 2253, 2286, 2284, 2290, 2302, 2265, 2284, 2296, 2249, 2263, 2263, 2242, 2248, 2273, 2291, 2320, 2307, 2317, 2308, 2295, 2304],
      "WindowCenter": [596.0, 592.0, 590.0, 589.0, 589.0, 589.0, 589.0, 588.0, 587.0, 588.0, 587.0, 589.0, 592.0, 592.0, 592.0, 590.0, 589.0, 590.0, 591.0, 589.0, 588.0, 585.0, 585.0, 585.0, 584.0, 583.0, 584.0, 584.0, 584.0, 584.0, 584.0, 585.0, 585.0, 586.0, 586.0, 586.0, 586.0, 586.0, 587.0, 587.0, 587.0, 587.0, 587.0, 588.0, 588.0, 589.0, 589.0, 591.0, 590.0, 589.0, 589.0, 588.0, 587.0, 586.0, 585.0, 585.0, 585.0, 585.0, 584.0, 584.0, 585.0, 587.0, 588.0, 589.0, 591.0, 591.0, 591.0, 590.0, 588.0, 588.0, 587.0, 587.0, 587.0, 586.0, 587.0, 587.0, 586.0, 586.0, 587.0, 587.0, 589.0, 589.0, 590.0, 588.0, 586.0, 585.0, 585.0, 586.0, 586.0, 587.0, 587.0, 589.0, 590.0, 589.0, 588.0, 586.0, 588.0, 589.0, 589.0, 589.0, 588.0, 586.0, 585.0, 586.0, 586.0, 586.0, 586.0, 586.0, 587.0, 587.0, 589.0, 590.0, 591.0, 591.0, 590.0, 589.0, 588.0, 588.0, 589.0, 588.0, 588.0, 588.0, 587.0, 586.0, 587.0, 587.0, 587.0, 587.0, 587.0, 588.0, 589.0, 590.0, 590.0, 588.0, 587.0, 586.0, 586.0, 585.0, 585.0, 585.0, 585.0, 585.0, 585.0, 585.0, 585.0, 584.0, 584.0, 583.0, 586.0, 588.0, 588.0, 588.0, 586.0, 585.0, 585.0, 584.0, 585.0, 586.0, 587.0, 585.0, 586.0, 586.0, 587.0, 587.0, 589.0, 589.0, 589.0, 588.0, 587.0, 587.0, 588.0, 588.0, 586.0, 587.0, 587.0, 587.0, 589.0, 590.0, 591.0, 589.0, 588.0, 587.0, 588.0, 589.0, 588.0, 588.0, 588.0, 590.0, 592.0, 592.0, 592.0, 594.0, 595.0, 595.0, 594.0],
      "WindowWidth": [1275.0, 1265.0, 1260.0, 1257.0, 1256.0, 1256.0, 1255.0, 1253.0, 1253.0, 1253.0, 1253.0, 1257.0, 1264.0, 1264.0, 1263.0, 1259.0, 1256.0, 1260.0, 1260.0, 1257.0, 1253.0, 1248.0, 1247.0, 1247.0, 1245.0, 1243.0, 1244.0, 1244.0, 1245.0, 1246.0, 1245.0, 1247.0, 1248.0, 1249.0, 1250.0, 1250.0, 1250.0, 1250.0, 1251.0, 1251.0, 1252.0, 1252.0, 1253.0, 1253.0, 1254.0, 1256.0, 1258.0, 1260.0, 1258.0, 1257.0, 1257.0, 1254.0, 1251.0, 1250.0, 1248.0, 1247.0, 1247.0, 1247.0, 1245.0, 1245.0, 1246.0, 1251.0, 1254.0, 1257.0, 1261.0, 1261.0, 1261.0, 1258.0, 1254.0, 1253.0, 1252.0, 1252.0, 1251.0, 1249.0, 1251.0, 1251.0, 1250.0, 1251.0, 1252.0, 1252.0, 1255.0, 1257.0, 1258.0, 1253.0, 1249.0, 1247.0, 1247.0, 1249.0, 1250.0, 1251.0, 1252.0, 1256.0, 1259.0, 1256.0, 1253.0, 1250.0, 1254.0, 1256.0, 1257.0, 1257.0, 1253.0, 1249.0, 1248.0, 1249.0, 1250.0, 1250.0, 1248.0, 1249.0, 1251.0, 1252.0, 1255.0, 1258.0, 1261.0, 1262.0, 1258.0, 1256.0, 1255.0, 1254.0, 1255.0, 1254.0, 1254.0, 1254.0, 1252.0, 1250.0, 1251.0, 1251.0, 1251.0, 1251.0, 1251.0, 1254.0, 1257.0, 1259.0, 1258.0, 1254.0, 1251.0, 1250.0, 1248.0, 1246.0, 1247.0, 1247.0, 1247.0, 1247.0, 1247.0, 1247.0, 1247.0, 1245.0, 1245.0, 1244.0, 1249.0, 1255.0, 1254.0, 1255.0, 1250.0, 1247.0, 1246.0, 1245.0, 1247.0, 1249.0, 1251.0, 1248.0, 1248.0, 1250.0, 1251.0, 1252.0, 1255.0, 1257.0, 1257.0, 1253.0, 1251.0, 1252.0, 1254.0, 1253.0, 1250.0, 1250.0, 1251.0, 1252.0, 1255.0, 1259.0, 1261.0, 1257.0, 1253.0, 1252.0, 1254.0, 1255.0, 1254.0, 1253.0, 1254.0, 1258.0, 1262.0, 1263.0, 1263.0, 1268.0, 1269.0, 1269.0, 1267.0]
    },
    "slices": {}
  }
}