{
  "AcquisitionMatrixPE": 88,
  "AcquisitionNumber": 1,
  "AcquisitionTime": "15:50:27.652500",
  "BandwidthPerPixelPhaseEncode": 19.592,
  "BaseResolution": 88,
  "BodyPartExamined": "BRAIN",
  "ConsistencyInfo": "N4_VE11C_LATEST_20160120",
  "ConversionSoftware": "dcm2niix",
  "ConversionSoftwareVersion": "v1.0.20190902",
  "DerivedVendorReportedEchoSpacing": 0.000580014,
  "DeviceSerialNumber": "67050",
  "DwellTime": 2.6e-06,
  "EchoTime": 0.033,
  "EchoTrainLength": 88,
  "EffectiveEchoSpacing": 0.000580014,
  "FlipAngle": 62,
  "ImageOrientationPatientDICOM": [0.998606, 0.0290735, 0.0440563, -0.0210922, 0.984895, -0.171861],
  "ImageType": [
    "ORIGINAL",
    "PRIMARY",
    "M",
    "ND",
    "MOSAIC"
],
  "ImagingFrequency": 123.251,
  "InPlanePhaseEncodingDirectionDICOM": "COL",
  "InstitutionAddress": "Olive_Street_60_Providence_RI_US_02912",
  "InstitutionName": "BROWN_UNIVERSITY_MRF",
  "InstitutionalDepartmentName": "Department",
  "MRAcquisitionType": "2D",
  "MagneticFieldStrength": 3,
  "Manufacturer": "Siemens",
  "ManufacturersModelName": "Prisma_fit",
  "Modality": "MR",
  "MultibandAccelerationFactor": 4,
  "PartialFourier": 1,
  "PatientPosition": "HFS",
  "PercentPhaseFOV": 100,
  "PhaseEncodingDirection": "j-",
  "PhaseEncodingSteps": 88,
  "PhaseResolution": 1,
  "PixelBandwidth": 2185,
  "ProcedureStepDescription": "ASHENHAV_1222",
  "ProtocolName": "func-bold_task-RDMcolor_run-03",
  "PulseSequenceDetails": "%SiemensSeq%_ep2d_bold",
  "ReceiveCoilActiveElements": "HC1-7",
  "ReceiveCoilName": "HeadNeck_64",
  "ReconMatrixPE": 88,
  "RefLinesPE": 8,
  "RepetitionTime": 1.2,
  "SAR": 0.0620651,
  "ScanOptions": "FS",
  "ScanningSequence": "EP",
  "SequenceName": "_epfid2d1_88",
  "SequenceVariant": "SK",
  "SeriesDescription": "func-bold_task-RDMcolor_run-03",
  "SeriesNumber": 12,
  "ShimSetting": [1769, -9091, 4399, 428, -70, -249, 43, 12],
  "SliceThickness": 2.4,
  "SliceTiming": [0.55, 0, 0.63, 0.08, 0.7075, 0.1575, 0.7875, 0.2375, 0.865, 0.315, 0.945, 0.395, 1.0225, 0.4725, 1.1025, 0.55, 0, 0.63, 0.08, 0.7075, 0.1575, 0.7875, 0.2375, 0.865, 0.315, 0.945, 0.395, 1.0225, 0.4725, 1.1025, 0.55, 0, 0.63, 0.08, 0.7075, 0.1575, 0.7875, 0.2375, 0.865, 0.315, 0.945, 0.395, 1.0225, 0.4725, 1.1025, 0.55, 0, 0.63, 0.08, 0.7075, 0.1575, 0.7875, 0.2375, 0.865, 0.315, 0.945, 0.395, 1.0225, 0.4725, 1.1025],
  "SoftwareVersions": "syngo_MR_E11",
  "SpacingBetweenSlices": 2.4,
  "StationName": "AWP67050",
  "TaskName": "RDMcolor",
  "TotalReadoutTime": 0.0504612,
  "TxRefAmp": 254.149,
  "dcmmeta_affine": [
    [-2.3943846225738525, -0.05057332664728165, 0.11612989753484726, 108.64788818359375],
    [-0.06971030682325363, 2.3615105152130127, -0.4096611440181732, -79.7043685913086],
    [0.10563502460718155, 0.4120757579803467, 2.3619253635406494, -80.73521423339844],
    [0.0, 0.0, 0.0, 1.0]
],
  "dcmmeta_reorient_transform": [
    [0.0, -1.0, 0.0, 87.0],
    [1.0, 0.0, 0.0, 0.0],
    [0.0, 0.0, 1.0, 0.0],
    [0.0, 0.0, 0.0, 1.0]
],
  "dcmmeta_shape": [88, 88, 60, 392],
  "dcmmeta_slice_dim": 2,
  "dcmmeta_version": 0.6,
  "global": {
    "const": {
      "AcquisitionMatrix": [88, 0, 0, 88],
      "AngioFlag": "N",
      "BitsAllocated": 16,
      "BitsStored": 12,
      "BodyPartExamined": "BRAIN",
      "Columns": 704,
      "DeidentificationMethodCodeSequence": [
        {
          "CodeMeaning": "XNAT DicomEdit 6 Script",
          "CodeValue": "3",
          "CodingSchemeDesignator": "XNAT",
          "CodingSchemeVersion": "1.0"}
],
      "EchoNumbers": 1,
      "EchoTime": 33.0,
      "EchoTrainLength": 88,
      "FlipAngle": 62.0,
      "HighBit": 11,
      "ImageOrientationPatient": [0.99860591488418, 0.0290734943836, 0.0440563126313, -0.0210921938825, 0.98489538727105, -0.1718609772154],
      "ImagePositionPatient": [-826.141881586, -874.56305525433, 49.499116829894],
      "ImageType": [
        "ORIGINAL",
        "PRIMARY",
        "M",
        "ND",
        "MOSAIC"
],
      "ImagedNucleus": "1H",
      "ImagingFrequency": 123.25071,
      "InPlanePhaseEncodingDirection": "COL",
      "MRAcquisitionType": "2D",
      "MagneticFieldStrength": 3.0,
      "Manufacturer": "SIEMENS",
      "ManufacturerModelName": "Prisma_fit",
      "Modality": "MR",
      "NumberOfAverages": 1.0,
      "NumberOfPhaseEncodingSteps": 88,
      "PercentPhaseFieldOfView": 100.0,
      "PercentSampling": 100.0,
      "PerformedProcedureStepStartTime": "151453.303000",
      "PhotometricInterpretation": "MONOCHROME2",
      "PixelBandwidth": 2185.0,
      "PixelRepresentation": 0,
      "PixelSpacing": [2.3977272510529, 2.3977272510529],
      "ProtocolName": "func-bold_task-RDMcolor_run-03",
      "RepetitionTime": 1200.0,
      "Rows": 704,
      "SAR": 0.06206509210554,
      "SamplesPerPixel": 1,
      "ScanOptions": "FS",
      "ScanningSequence": "EP",
      "SequenceName": "*epfid2d1_88",
      "SequenceVariant": "SK",
      "SeriesDescription": "func-bold_task-RDMcolor_run-03",
      "SeriesNumber": 12,
      "SeriesTime": "155052.931000",
      "SliceLocation": -60.592295046741,
      "SliceThickness": 2.4000000953674,
      "SmallestImagePixelValue": 0,
      "SoftwareVersions": "syngo MR E11",
      "SpacingBetweenSlices": 2.4000000129153,
      "SpecificCharacterSet": "ISO_IR 100",
      "StudyID": "1",
      "StudyTime": "151453.174000",
      "TransmitCoilName": "Body",
      "VariableFlipAngleFlag": "N",
      "WindowCenterWidthExplanation": "Algo1",
      "dBdt": 0.0},
    "slices": {}
  },
  "time": {
    "samples": {
      "AcquisitionNumber": [1, 2, 3, 4, 5, 6, 7, 8, 9, 10, 11, 12, 13, 14, 15, 16, 17, 18, 19, 20, 21, 22, 23, 24, 25, 26, 27, 28, 29, 30, 31, 32, 33, 34, 35, 36, 37, 38, 39, 40, 41, 42, 43, 44, 45, 46, 47, 48, 49, 50, 51, 52, 53, 54, 55, 56, 57, 58, 59, 60, 61, 62, 63, 64, 65, 66, 67, 68, 69, 70, 71, 72, 73, 74, 75, 76, 77, 78, 79, 80, 81, 82, 83, 84, 85, 86, 87, 88, 89, 90, 91, 92, 93, 94, 95, 96, 97, 98, 99, 100, 101, 102, 103, 104, 105, 106, 107, 108, 109, 110, 111, 112, 113, 114, 115, 116, 117, 118, 119, 120, 121, 122, 123, 124, 125, 126, 127, 128, 129, 130, 131, 132, 133, 134, 135, 136, 137, 138, 139, 140, 141, 142, 143, 144, 145, 146, 147, 148, 149, 150, 151, 152, 153, 154, 155, 156, 157, 158, 159, 160, 161, 162, 163, 164, 165, 166, 167, 168, 169, 170, 171, 172, 173, 174, 175, 176, 177, 178, 179, 180, 181, 182, 183, 184, 185, 186, 187, 188, 189, 190, 191, 192, 193, 194, 195, 196, 197, 198, 199, 200, 201, 202, 203, 204, 205, 206, 207, 208, 209, 210, 211, 212, 213, 214, 215, 216, 217, 218, 219, 220, 221, 222, 223, 224, 225, 226, 227, 228, 229, 230, 231, 232, 233, 234, 235, 236, 237, 238, 239, 240, 241, 242, 243, 244, 245, 246, 247, 248, 249, 250, 251, 252, 253, 254, 255, 256, 257, 258, 259, 260, 261, 262, 263, 264, 265, 266, 267, 268, 269, 270, 271, 272, 273, 274, 275, 276, 277, 278, 279, 280, 281, 282, 283, 284, 285, 286, 287, 288, 289, 290, 291, 292, 293, 294, 295, 296, 297, 298, 299, 300, 301, 302, 303, 304, 305, 306, 307, 308, 309, 310, 311, 312, 313, 314, 315, 316, 317, 318, 319, 320, 321, 322, 323, 324, 325, 326, 327, 328, 329, 330, 331, 332, 333, 334, 335, 336, 337, 338, 339, 340, 341, 342, 343, 344, 345, 346, 347, 348, 349, 350, 351, 352, 353, 354, 355, 356, 357, 358, 359, 360, 361, 362, 363, 364, 365, 366, 367, 368, 369, 370, 371, 372, 373, 374, 375, 376, 377, 378, 379, 380, 381, 382, 383, 384, 385, 386, 387, 388, 389, 390, 391, 392],
      "AcquisitionTime": ["155027.652500", "155028.852500", "155030.052500", "155031.252500", "155032.452500", "155033.652500", "155034.852500", "155036.052500", "155037.252500", "155038.452500", "155039.652500", "155040.852500", "155042.052500", "155043.252500", "155044.452500", "155045.652500", "155046.852500", "155048.052500", "155049.252500", "155050.452500", "155051.652500", "155052.852500", "155054.052500", "155055.252500", "155056.452500", "155057.652500", "155058.852500", "155100.052500", "155101.252500", "155102.452500", "155103.652500", "155104.852500", "155106.052500", "155107.252500", "155108.452500", "155109.652500", "155110.852500", "155112.052500", "155113.252500", "155114.452500", "155115.652500", "155116.852500", "155118.052500", "155119.252500", "155120.452500", "155121.652500", "155122.852500", "155124.052500", "155125.252500", "155126.452500", "155127.652500", "155128.852500", "155130.052500", "155131.252500", "155132.452500", "155133.652500", "155134.852500", "155136.052500", "155137.252500", "155138.452500", "155139.652500", "155140.852500", "155142.052500", "155143.252500", "155144.452500", "155145.652500", "155146.852500", "155148.052500", "155149.252500", "155150.452500", "155151.652500", "155152.852500", "155154.052500", "155155.252500", "155156.452500", "155157.652500", "155158.852500", "155200.052500", "155201.252500", "155202.452500", "155203.652500", "155204.852500", "155206.052500", "155207.252500", "155208.452500", "155209.652500", "155210.852500", "155212.052500", "155213.252500", "155214.452500", "155215.652500", "155216.852500", "155218.052500", "155219.252500", "155220.452500", "155221.652500", "155222.852500", "155224.052500", "155225.252500", "155226.452500", "155227.652500", "155228.852500", "155230.052500", "155231.252500", "155232.452500", "155233.652500", "155234.852500", "155236.052500", "155237.252500", "155238.452500", "155239.652500", "155240.852500", "155242.052500", "155243.252500", "155244.452500", "155245.652500", "155246.852500", "155248.052500", "155249.252500", "155250.452500", "155251.652500", "155252.852500", "155254.052500", "155255.252500", "155256.452500", "155257.652500", "155258.852500", "155300.052500", "155301.252500", "155302.452500", "155303.652500", "155304.852500", "155306.052500", "155307.252500", "155308.452500", "155309.652500", "155310.852500", "155312.052500", "155313.252500", "155314.452500", "155315.652500", "155316.852500", "155318.052500", "155319.252500", "155320.452500", "155321.652500", "155322.852500", "155324.052500", "155325.252500", "155326.452500", "155327.652500", "155328.852500", "155330.052500", "155331.252500", "155332.452500", "155333.652500", "155334.852500", "155336.052500", "155337.252500", "155338.452500", "155339.652500", "155340.852500", "155342.052500", "155343.252500", "155344.452500", "155345.652500", "155346.852500", "155348.052500", "155349.252500", "155350.452500", "155351.652500", "155352.852500", "155354.052500", "155355.252500", "155356.452500", "155357.652500", "155358.852500", "155400.052500", "155401.252500", "155402.452500", "155403.652500", "155404.852500", "155406.052500", "155407.252500", "155408.452500", "155409.652500", "155410.852500", "155412.052500", "155413.252500", "155414.452500", "155415.652500", "155416.852500", "155418.052500", "155419.252500", "155420.452500", "155421.652500", "155422.852500", "155424.052500", "155425.252500", "155426.452500", "155427.652500", "155428.852500", "155430.052500", "155431.252500", "155432.452500", "155433.652500", "155434.852500", "155436.052500", "155437.252500", "155438.452500", "155439.652500", "155440.852500", "155442.052500", "155443.252500", "155444.452500", "155445.652500", "155446.852500", "155448.052500", "155449.252500", "155450.452500", "155451.652500", "155452.852500", "155454.052500", "155455.252500", "155456.452500", "155457.652500", "155458.852500", "155500.052500", "155501.252500", "155502.452500", "155503.652500", "155504.852500", "155506.052500", "155507.252500", "155508.452500", "155509.652500", "155510.852500", "155512.052500", "155513.252500", "155514.452500", "155515.652500", "155516.852500", "155518.052500", "155519.252500", "155520.452500", "155521.652500", "155522.852500", "155524.052500", "155525.252500", "155526.452500", "155527.652500", "155528.852500", "155530.052500", "155531.252500", "155532.452500", "155533.652500", "155534.852500", "155536.052500", "155537.252500", "155538.452500", "155539.652500", "155540.852500", "155542.052500", "155543.252500", "155544.452500", "155545.652500", "155546.852500", "155548.052500", "155549.252500", "155550.452500", "155551.652500", "155552.852500", "155554.052500", "155555.252500", "155556.452500", "155557.652500", "155558.852500", "155600.052500", "155601.252500", "155602.452500", "155603.652500", "155604.852500", "155606.052500", "155607.252500", "155608.452500", "155609.652500", "155610.852500", "155612.052500", "155613.252500", "155614.452500", "155615.652500", "155616.852500", "155618.052500", "155619.252500", "155620.452500", "155621.652500", "155622.852500", "155624.052500", "155625.252500", "155626.452500", "155627.652500", "155628.852500", "155630.052500", "155631.252500", "155632.452500", "155633.652500", "155634.852500", "155636.052500", "155637.252500", "155638.452500", "155639.652500", "155640.852500", "155642.052500", "155643.252500", "155644.452500", "155645.652500", "155646.852500", "155648.052500", "155649.252500", "155650.452500", "155651.652500", "155652.852500", "155654.052500", "155655.252500", "155656.452500", "155657.652500", "155658.852500", "155700.052500", "155701.252500", "155702.452500", "155703.652500", "155704.852500", "155706.052500", "155707.252500", "155708.452500", "155709.652500", "155710.852500", "155712.052500", "155713.252500", "155714.452500", "155715.652500", "155716.852500", "155718.052500", "155719.252500", "155720.452500", "155721.652500", "155722.852500", "155724.052500", "155725.252500", "155726.452500", "155727.652500", "155728.852500", "155730.052500", "155731.252500", "155732.452500", "155733.652500", "155734.852500", "155736.052500", "155737.252500", "155738.452500", "155739.652500", "155740.852500", "155742.052500", "155743.252500", "155744.452500", "155745.652500", "155746.852500", "155748.052500", "155749.252500", "155750.452500", "155751.652500", "155752.852500", "155754.052500", "155755.252500", "155756.452500", "155757.652500", "155758.852500", "155800.052500", "155801.252500", "155802.452500", "155803.652500", "155804.852500", "155806.052500", "155807.252500", "155808.452500", "155809.652500", "155810.852500", "155812.052500", "155813.252500", "155814.452500", "155815.652500", "155816.852500"],
      "ContentTime": ["155052.935000", "155052.938000", "155052.941000", "155052.943000", "155052.946000", "155052.948000", "155052.951000", "155052.953000", "155052.969000", "155052.971000", "155052.974000", "155052.976000", "155052.979000", "155052.982000", "155052.984000", "155052.987000", "155052.989000", "155052.992000", "155052.995000", "155052.997000", "155132.929000", "155132.932000", "155132.935000", "155132.937000", "155132.940000", "155132.942000", "155132.945000", "155132.948000", "155132.950000", "155132.953000", "155132.956000", "155132.958000", "155132.961000", "155132.963000", "155132.966000", "155132.968000", "155132.971000", "155132.973000", "155132.976000", "155132.979000", "155132.981000", "155132.984000", "155132.986000", "155132.989000", "155132.991000", "155132.994000", "155132.997000", "155133.000000", "155133.003000", "155133.005000", "155133.008000", "155133.011000", "155133.013000", "155212.931000", "155212.933000", "155212.936000", "155212.938000", "155212.941000", "155212.944000", "155212.946000", "155212.949000", "155212.951000", "155212.954000", "155212.957000", "155212.959000", "155212.962000", "155212.964000", "155212.967000", "155212.969000", "155212.972000", "155212.975000", "155212.977000", "155212.980000", "155212.982000", "155212.985000", "155212.987000", "155212.990000", "155212.993000", "155212.995000", "155212.998000", "155213.001000", "155213.004000", "155213.007000", "155213.009000", "155213.012000", "155213.014000", "155213.017000", "155252.931000", "155252.934000", "155252.936000", "155252.939000", "155252.941000", "155252.944000", "155252.947000", "155252.949000", "155252.952000", "155252.954000", "155252.957000", "155252.960000", "155252.962000", "155252.965000", "155252.967000", "155252.970000", "155252.972000", "155252.975000", "155252.978000", "155252.980000", "155252.983000", "155252.986000", "155252.988000", "155252.991000", "155252.993000", "155252.996000", "155252.998000", "155253.002000", "155253.005000", "155253.008000", "155253.010000", "155253.013000", "155253.015000", "155332.930000", "155332.932000", "155332.935000", "155332.938000", "155332.940000", "155332.943000", "155332.946000", "155332.948000", "155332.951000", "155332.953000", "155332.956000", "155332.959000", "155332.961000", "155332.964000", "155332.967000", "155332.969000", "155332.972000", "155332.974000", "155332.977000", "155332.979000", "155332.982000", "155332.984000", "155332.987000", "155332.990000", "155332.992000", "155332.995000", "155332.997000", "155333.001000", "155333.003000", "155333.006000", "155333.009000", "155333.011000", "155333.014000", "155412.930000", "155412.933000", "155412.936000", "155412.938000", "155412.941000", "155412.943000", "155412.946000", "155412.948000", "155412.951000", "155412.954000", "155412.956000", "155412.959000", "155412.961000", "155412.964000", "155412.967000", "155412.969000", "155412.972000", "155412.983000", "155412.985000", "155412.988000", "155412.991000", "155412.993000", "155412.996000", "155412.998000", "155413.002000", "155413.005000", "155413.007000", "155413.010000", "155413.012000", "155413.015000", "155413.018000", "155413.020000", "155413.023000", "155413.025000", "155452.931000", "155452.933000", "155452.936000", "155452.938000", "155452.941000", "155452.944000", "155452.946000", "155452.949000", "155452.951000", "155452.954000", "155452.956000", "155452.959000", "155452.962000", "155452.964000", "155452.967000", "155452.970000", "155452.972000", "155452.975000", "155452.977000", "155452.980000", "155452.982000", "155452.985000", "155452.988000", "155452.990000", "155452.993000", "155452.995000", "155452.998000", "155453.002000", "155453.005000", "155453.008000", "155453.010000", "155453.013000", "155453.016000", "155532.931000", "155532.933000", "155532.936000", "155532.938000", "155532.941000", "155532.944000", "155532.946000", "155532.949000", "155532.952000", "155532.954000", "155532.957000", "155532.960000", "155532.962000", "155532.965000", "155532.967000", "155532.970000", "155532.973000", "155532.975000", "155532.978000", "155532.980000", "155532.989000", "155532.992000", "155532.994000", "155532.997000", "155533.001000", "155533.003000", "155533.006000", "155533.008000", "155533.011000", "155533.014000", "155533.016000", "155533.019000", "155533.021000", "155612.931000", "155612.933000", "155612.936000", "155612.939000", "155612.941000", "155612.944000", "155612.946000", "155612.949000", "155612.952000", "155612.954000", "155612.957000", "155612.959000", "155612.962000", "155612.965000", "155612.967000", "155612.970000", "155612.973000", "155612.975000", "155612.978000", "155612.980000", "155612.983000", "155612.986000", "155612.988000", "155612.991000", "155612.993000", "155612.996000", "155612.999000", "155613.001000", "155613.004000", "155613.006000", "155613.009000", "155613.012000", "155613.014000", "155613.017000", "155652.930000", "155652.933000", "155652.936000", "155652.938000", "155652.941000", "155652.944000", "155652.946000", "155652.949000", "155652.951000", "155652.954000", "155652.956000", "155652.959000", "155652.961000", "155652.965000", "155652.967000", "155652.970000", "155652.972000", "155652.975000", "155652.977000", "155652.980000", "155652.983000", "155652.985000", "155652.988000", "155652.990000", "155652.993000", "155652.995000", "155652.998000", "155653.002000", "155653.005000", "155653.007000", "155653.010000", "155653.012000", "155653.015000", "155732.931000", "155732.934000", "155732.936000", "155732.939000", "155732.941000", "155732.944000", "155732.946000", "155732.949000", "155732.952000", "155732.954000", "155732.957000", "155732.959000", "155732.962000", "155732.965000", "155732.967000", "155732.970000", "155732.972000", "155732.975000", "155732.978000", "155732.980000", "155732.983000", "155732.986000", "155732.988000", "155732.991000", "155732.993000", "155732.996000", "155732.998000", "155733.002000", "155733.005000", "155733.007000", "155733.010000", "155733.012000", "155733.015000", "155812.930000", "155812.932000", "155812.935000", "155812.938000", "155812.940000", "155812.943000", "155812.945000", "155812.948000", "155812.951000", "155812.953000", "155812.956000", "155812.958000", "155812.961000", "155812.964000", "155812.966000", "155812.969000", "155812.971000", "155812.974000", "155812.977000", "155812.979000", "155812.982000", "155812.984000", "155812.987000", "155812.989000", "155812.992000", "155812.994000", "155812.997000", "155813.001000", "155813.003000", "155813.006000", "155813.008000", "155813.011000", "155813.014000", "155813.016000", "155818.760000", "155818.763000", "155818.765000", "155818.768000", "155818.770000"],
      "InstanceCreationTime": ["155052.935000", "155052.938000", "155052.941000", "155052.943000", "155052.946000", "155052.948000", "155052.951000", "155052.953000", "155052.969000", "155052.971000", "155052.974000", "155052.976000", "155052.979000", "155052.982000", "155052.984000", "155052.987000", "155052.989000", "155052.992000", "155052.995000", "155052.997000", "155132.929000", "155132.932000", "155132.935000", "155132.937000", "155132.940000", "155132.942000", "155132.945000", "155132.948000", "155132.950000", "155132.953000", "155132.956000", "155132.958000", "155132.961000", "155132.963000", "155132.966000", "155132.968000", "155132.971000", "155132.973000", "155132.976000", "155132.979000", "155132.981000", "155132.984000", "155132.986000", "155132.989000", "155132.991000", "155132.994000", "155132.997000", "155133.000000", "155133.003000", "155133.005000", "155133.008000", "155133.011000", "155133.013000", "155212.931000", "155212.933000", "155212.936000", "155212.938000", "155212.941000", "155212.944000", "155212.946000", "155212.949000", "155212.951000", "155212.954000", "155212.957000", "155212.959000", "155212.962000", "155212.964000", "155212.967000", "155212.969000", "155212.972000", "155212.975000", "155212.977000", "155212.980000", "155212.982000", "155212.985000", "155212.987000", "155212.990000", "155212.993000", "155212.995000", "155212.998000", "155213.001000", "155213.004000", "155213.007000", "155213.009000", "155213.012000", "155213.014000", "155213.017000", "155252.931000", "155252.934000", "155252.936000", "155252.939000", "155252.941000", "155252.944000", "155252.947000", "155252.949000", "155252.952000", "155252.954000", "155252.957000", "155252.960000", "155252.962000", "155252.965000", "155252.967000", "155252.970000", "155252.972000", "155252.975000", "155252.978000", "155252.980000", "155252.983000", "155252.986000", "155252.988000", "155252.991000", "155252.993000", "155252.996000", "155252.998000", "155253.002000", "155253.005000", "155253.008000", "155253.010000", "155253.013000", "155253.015000", "155332.930000", "155332.932000", "155332.935000", "155332.938000", "155332.940000", "155332.943000", "155332.946000", "155332.948000", "155332.951000", "155332.953000", "155332.956000", "155332.959000", "155332.961000", "155332.964000", "155332.967000", "155332.969000", "155332.972000", "155332.974000", "155332.977000", "155332.979000", "155332.982000", "155332.984000", "155332.987000", "155332.990000", "155332.992000", "155332.995000", "155332.997000", "155333.001000", "155333.003000", "155333.006000", "155333.009000", "155333.011000", "155333.014000", "155412.930000", "155412.933000", "155412.936000", "155412.938000", "155412.941000", "155412.943000", "155412.946000", "155412.948000", "155412.951000", "155412.954000", "155412.956000", "155412.959000", "155412.961000", "155412.964000", "155412.967000", "155412.969000", "155412.972000", "155412.983000", "155412.985000", "155412.988000", "155412.991000", "155412.993000", "155412.996000", "155412.998000", "155413.002000", "155413.005000", "155413.007000", "155413.010000", "155413.012000", "155413.015000", "155413.018000", "155413.020000", "155413.023000", "155413.025000", "155452.931000", "155452.933000", "155452.936000", "155452.938000", "155452.941000", "155452.944000", "155452.946000", "155452.949000", "155452.951000", "155452.954000", "155452.956000", "155452.959000", "155452.962000", "155452.964000", "155452.967000", "155452.970000", "155452.972000", "155452.975000", "155452.977000", "155452.980000", "155452.982000", "155452.985000", "155452.988000", "155452.990000", "155452.993000", "155452.995000", "155452.998000", "155453.002000", "155453.005000", "155453.008000", "155453.010000", "155453.013000", "155453.016000", "155532.931000", "155532.933000", "155532.936000", "155532.938000", "155532.941000", "155532.944000", "155532.946000", "155532.949000", "155532.952000", "155532.954000", "155532.957000", "155532.960000", "155532.962000", "155532.965000", "155532.967000", "155532.970000", "155532.973000", "155532.975000", "155532.978000", "155532.980000", "155532.989000", "155532.992000", "155532.994000", "155532.997000", "155533.001000", "155533.003000", "155533.006000", "155533.008000", "155533.011000", "155533.014000", "155533.016000", "155533.019000", "155533.021000", "155612.931000", "155612.933000", "155612.936000", "155612.939000", "155612.941000", "155612.944000", "155612.946000", "155612.949000", "155612.952000", "155612.954000", "155612.957000", "155612.959000", "155612.962000", "155612.965000", "155612.967000", "155612.970000", "155612.973000", "155612.975000", "155612.978000", "155612.980000", "155612.983000", "155612.986000", "155612.988000", "155612.991000", "155612.993000", "155612.996000", "155612.999000", "155613.001000", "155613.004000", "155613.006000", "155613.009000", "155613.012000", "155613.014000", "155613.017000", "155652.930000", "155652.933000", "155652.936000", "155652.938000", "155652.941000", "155652.944000", "155652.946000", "155652.949000", "155652.951000", "155652.954000", "155652.956000", "155652.959000", "155652.961000", "155652.965000", "155652.967000", "155652.970000", "155652.972000", "155652.975000", "155652.977000", "155652.980000", "155652.983000", "155652.985000", "155652.988000", "155652.990000", "155652.993000", "155652.995000", "155652.998000", "155653.002000", "155653.005000", "155653.007000", "155653.010000", "155653.012000", "155653.015000", "155732.931000", "155732.934000", "155732.936000", "155732.939000", "155732.941000", "155732.944000", "155732.946000", "155732.949000", "155732.952000", "155732.954000", "155732.957000", "155732.959000", "155732.962000", "155732.965000", "155732.967000", "155732.970000", "155732.972000", "155732.975000", "155732.978000", "155732.980000", "155732.983000", "155732.986000", "155732.988000", "155732.991000", "155732.993000", "155732.996000", "155732.998000", "155733.002000", "155733.005000", "155733.007000", "155733.010000", "155733.012000", "155733.015000", "155812.930000", "155812.932000", "155812.935000", "155812.938000", "155812.940000", "155812.943000", "155812.945000", "155812.948000", "155812.951000", "155812.953000", "155812.956000", "155812.958000", "155812.961000", "155812.964000", "155812.966000", "155812.969000", "155812.971000", "155812.974000", "155812.977000", "155812.979000", "155812.982000", "155812.984000", "155812.987000", "155812.989000", "155812.992000", "155812.994000", "155812.997000", "155813.001000", "155813.003000", "155813.006000", "155813.008000", "155813.011000", "155813.014000", "155813.016000", "155818.760000", "155818.763000", "155818.765000", "155818.768000", "155818.770000"],
      "InstanceNumber": [1, 2, 3, 4, 5, 6, 7, 8, 9, 10, 11, 12, 13, 14, 15, 16, 17, 18, 19, 20, 21, 22, 23, 24, 25, 26, 27, 28, 29, 30, 31, 32, 33, 34, 35, 36, 37, 38, 39, 40, 41, 42, 43, 44, 45, 46, 47, 48, 49, 50, 51, 52, 53, 54, 55, 56, 57, 58, 59, 60, 61, 62, 63, 64, 65, 66, 67, 68, 69, 70, 71, 72, 73, 74, 75, 76, 77, 78, 79, 80, 81, 82, 83, 84, 85, 86, 87, 88, 89, 90, 91, 92, 93, 94, 95, 96, 97, 98, 99, 100, 101, 102, 103, 104, 105, 106, 107, 108, 109, 110, 111, 112, 113, 114, 115, 116, 117, 118, 119, 120, 121, 122, 123, 124, 125, 126, 127, 128, 129, 130, 131, 132, 133, 134, 135, 136, 137, 138, 139, 140, 141, 142, 143, 144, 145, 146, 147, 148, 149, 150, 151, 152, 153, 154, 155, 156, 157, 158, 159, 160, 161, 162, 163, 164, 165, 166, 167, 168, 169, 170, 171, 172, 173, 174, 175, 176, 177, 178, 179, 180, 181, 182, 183, 184, 185, 186, 187, 188, 189, 190, 191, 192, 193, 194, 195, 196, 197, 198, 199, 200, 201, 202, 203, 204, 205, 206, 207, 208, 209, 210, 211, 212, 213, 214, 215, 216, 217, 218, 219, 220, 221, 222, 223, 224, 225, 226, 227, 228, 229, 230, 231, 232, 233, 234, 235, 236, 237, 238, 239, 240, 241, 242, 243, 244, 245, 246, 247, 248, 249, 250, 251, 252, 253, 254, 255, 256, 257, 258, 259, 260, 261, 262, 263, 264, 265, 266, 267, 268, 269, 270, 271, 272, 273, 274, 275, 276, 277, 278, 279, 280, 281, 282, 283, 284, 285, 286, 287, 288, 289, 290, 291, 292, 293, 294, 295, 296, 297, 298, 299, 300, 301, 302, 303, 304, 305, 306, 307, 308, 309, 310, 311, 312, 313, 314, 315, 316, 317, 318, 319, 320, 321, 322, 323, 324, 325, 326, 327, 328, 329, 330, 331, 332, 333, 334, 335, 336, 337, 338, 339, 340, 341, 342, 343, 344, 345, 346, 347, 348, 349, 350, 351, 352, 353, 354, 355, 356, 357, 358, 359, 360, 361, 362, 363, 364, 365, 366, 367, 368, 369, 370, 371, 372, 373, 374, 375, 376, 377, 378, 379, 380, 381, 382, 383, 384, 385, 386, 387, 388, 389, 390, 391, 392],
