{
  "AcquisitionMatrixPE": 88,
  "AcquisitionNumber": 1,
  "AcquisitionTime": "15:23:44.730000",
  "BandwidthPerPixelPhaseEncode": 19.592,
  "BaseResolution": 88,
  "BodyPartExamined": "BRAIN",
  "ConsistencyInfo": "N4_VE11C_LATEST_20160120",
  "ConversionSoftware": "dcm2niix",
  "ConversionSoftwareVersion": "v1.0.20190902",
  "DerivedVendorReportedEchoSpacing": 0.000580014,
  "DeviceSerialNumber": "67050",
  "DwellTime": 2.6e-06,
  "EchoTime": 0.033,
  "EchoTrainLength": 88,
  "EffectiveEchoSpacing": 0.000580014,
  "FlipAngle": 62,
  "ImageOrientationPatientDICOM": [0.998606, 0.0290735, 0.0440563, -0.0210922, 0.984895, -0.171861],
  "ImageType": [
    "ORIGINAL",
    "PRIMARY",
    "M",
    "ND",
    "MOSAIC"
],
  "ImagingFrequency": 123.251,
  "InPlanePhaseEncodingDirectionDICOM": "COL",
  "InstitutionAddress": "Olive_Street_60_Providence_RI_US_02912",
  "InstitutionName": "BROWN_UNIVERSITY_MRF",
  "InstitutionalDepartmentName": "Department",
  "MRAcquisitionType": "2D",
  "MagneticFieldStrength": 3,
  "Manufacturer": "Siemens",
  "ManufacturersModelName": "Prisma_fit",
  "Modality": "MR",
  "MultibandAccelerationFactor": 4,
  "PartialFourier": 1,
  "PatientPosition": "HFS",
  "PercentPhaseFOV": 100,
  "PhaseEncodingDirection": "j-",
  "PhaseEncodingSteps": 88,
  "PhaseResolution": 1,
  "PixelBandwidth": 2185,
  "ProcedureStepDescription": "ASHENHAV_1222",
  "ProtocolName": "func-bold_task-RDMmotion_run-01",
  "PulseSequenceDetails": "%SiemensSeq%_ep2d_bold",
  "ReceiveCoilActiveElements": "HC1-7",
  "ReceiveCoilName": "HeadNeck_64",
  "ReconMatrixPE": 88,
  "RefLinesPE": 8,
  "RepetitionTime": 1.2,
  "SAR": 0.0614351,
  "ScanOptions": "FS",
  "ScanningSequence": "EP",
  "SequenceName": "_epfid2d1_88",
  "SequenceVariant": "SK",
  "SeriesDescription": "func-bold_task-RDMmotion_run-01",
  "SeriesNumber": 7,
  "ShimSetting": [1769, -9091, 4399, 428, -70, -249, 43, 12],
  "SliceThickness": 2.4,
  "SliceTiming": [0.55, 0, 0.6275, 0.0775, 0.7075, 0.1575, 0.785, 0.235, 0.865, 0.315, 0.9425, 0.3925, 1.0225, 0.47, 1.1, 0.55, 0, 0.6275, 0.0775, 0.7075, 0.1575, 0.785, 0.235, 0.865, 0.315, 0.9425, 0.3925, 1.0225, 0.47, 1.1, 0.55, 0, 0.6275, 0.0775, 0.7075, 0.1575, 0.785, 0.235, 0.865, 0.315, 0.9425, 0.3925, 1.0225, 0.47, 1.1, 0.55, 0, 0.6275, 0.0775, 0.7075, 0.1575, 0.785, 0.235, 0.865, 0.315, 0.9425, 0.3925, 1.0225, 0.47, 1.1],
  "SoftwareVersions": "syngo_MR_E11",
  "SpacingBetweenSlices": 2.4,
  "StationName": "AWP67050",
  "TaskName": "RDMmotion",
  "TotalReadoutTime": 0.0504612,
  "TxRefAmp": 254.149,
  "dcmmeta_affine": [
    [-2.3943846225738525, -0.05057332664728165, 0.11612989753484726, 108.64788818359375],
    [-0.06971030682325363, 2.3615105152130127, -0.4096611440181732, -79.7043685913086],
    [0.10563502460718155, 0.4120757579803467, 2.3619253635406494, -80.73521423339844],
    [0.0, 0.0, 0.0, 1.0]
],
  "dcmmeta_reorient_transform": [
    [0.0, -1.0, 0.0, 87.0],
    [1.0, 0.0, 0.0, 0.0],
    [0.0, 0.0, 1.0, 0.0],
    [0.0, 0.0, 0.0, 1.0]
],
  "dcmmeta_shape": [88, 88, 60, 125],
  "dcmmeta_slice_dim": 2,
  "dcmmeta_version": 0.6,
  "global": {
    "const": {
      "AcquisitionMatrix": [88, 0, 0, 88],
      "AngioFlag": "N",
      "BitsAllocated": 16,
      "BitsStored": 12,
      "BodyPartExamined": "BRAIN",
      "Columns": 704,
      "DeidentificationMethodCodeSequence": [
        {
          "CodeMeaning": "XNAT DicomEdit 6 Script",
          "CodeValue": "3",
          "CodingSchemeDesignator": "XNAT",
          "CodingSchemeVersion": "1.0"}
],
      "EchoNumbers": 1,
      "EchoTime": 33.0,
      "EchoTrainLength": 88,
      "FlipAngle": 62.0,
      "HighBit": 11,
      "ImageOrientationPatient": [0.99860591488418, 0.0290734943836, 0.0440563126313, -0.0210921938825, 0.98489538727105, -0.1718609772154],
      "ImagePositionPatient": [-826.141881586, -874.56305525433, 49.499116829894],
      "ImageType": [
        "ORIGINAL",
        "PRIMARY",
        "M",
        "ND",
        "MOSAIC"
],
      "ImagedNucleus": "1H",
      "ImagingFrequency": 123.250697,
      "InPlanePhaseEncodingDirection": "COL",
      "MRAcquisitionType": "2D",
      "MagneticFieldStrength": 3.0,
      "Manufacturer": "SIEMENS",
      "ManufacturerModelName": "Prisma_fit",
      "Modality": "MR",
      "NumberOfAverages": 1.0,
      "NumberOfPhaseEncodingSteps": 88,
      "PercentPhaseFieldOfView": 100.0,
      "PercentSampling": 100.0,
      "PerformedProcedureStepStartTime": "151453.303000",
      "PhotometricInterpretation": "MONOCHROME2",
      "PixelBandwidth": 2185.0,
      "PixelRepresentation": 0,
      "PixelSpacing": [2.3977272510529, 2.3977272510529],
      "ProtocolName": "func-bold_task-RDMmotion_run-01",
      "RepetitionTime": 1200.0,
      "Rows": 704,
      "SAR": 0.06143510770898,
      "SamplesPerPixel": 1,
      "ScanOptions": "FS",
      "ScanningSequence": "EP",
      "SequenceName": "*epfid2d1_88",
      "SequenceVariant": "SK",
      "SeriesDescription": "func-bold_task-RDMmotion_run-01",
      "SeriesNumber": 7,
      "SeriesTime": "152409.228000",
      "SliceLocation": -60.592295046741,
      "SliceThickness": 2.4000000953674,
      "SmallestImagePixelValue": 0,
      "SoftwareVersions": "syngo MR E11",
      "SpacingBetweenSlices": 2.4000000129153,
      "SpecificCharacterSet": "ISO_IR 100",
      "StudyID": "1",
      "StudyTime": "151453.174000",
      "TransmitCoilName": "Body",
      "VariableFlipAngleFlag": "N",
      "WindowCenterWidthExplanation": "Algo1",
      "dBdt": 0.0},
    "slices": {}
  },
  "time": {
    "samples": {
      "AcquisitionNumber": [1, 2, 3, 4, 5, 6, 7, 8, 9, 10, 11, 12, 13, 14, 15, 16, 17, 18, 19, 20, 21, 22, 23, 24, 25, 26, 27, 28, 29, 30, 31, 32, 33, 34, 35, 36, 37, 38, 39, 40, 41, 42, 43, 44, 45, 46, 47, 48, 49, 50, 51, 52, 53, 54, 55, 56, 57, 58, 59, 60, 61, 62, 63, 64, 65, 66, 67, 68, 69, 70, 71, 72, 73, 74, 75, 76, 77, 78, 79, 80, 81, 82, 83, 84, 85, 86, 87, 88, 89, 90, 91, 92, 93, 94, 95, 96, 97, 98, 99, 100, 101, 102, 103, 104, 105, 106, 107, 108, 109, 110, 111, 112, 113, 114, 115, 116, 117, 118, 119, 120, 121, 122, 123, 124, 125],
      "AcquisitionTime": ["152344.730000", "152345.930000", "152347.130000", "152348.330000", "152349.530000", "152350.730000", "152351.930000", "152353.130000", "152354.330000", "152355.530000", "152356.730000", "152357.930000", "152359.130000", "152400.330000", "152401.530000", "152402.730000", "152403.930000", "152405.130000", "152406.330000", "152407.530000", "152408.730000", "152409.930000", "152411.130000", "152412.330000", "152413.530000", "152414.730000", "152415.930000", "152417.130000", "152418.330000", "152419.530000", "152420.730000", "152421.930000", "152423.130000", "152424.330000", "152425.530000", "152426.730000", "152427.930000", "152429.130000", "152430.330000", "152431.530000", "152432.730000", "152433.930000", "152435.130000", "152436.330000", "152437.530000", "152438.730000", "152439.930000", "152441.130000", "152442.330000", "152443.530000", "152444.730000", "152445.930000", "152447.130000", "152448.330000", "152449.530000", "152450.730000", "152451.930000", "152453.130000", "152454.330000", "152455.530000", "152456.730000", "152457.930000", "152459.130000", "152500.330000", "152501.530000", "152502.730000", "152503.930000", "152505.130000", "152506.330000", "152507.530000", "152508.730000", "152509.930000", "152511.130000", "152512.330000", "152513.530000", "152514.730000", "152515.930000", "152517.130000", "152518.330000", "152519.530000", "152520.730000", "152521.930000", "152523.130000", "152524.330000", "152525.530000", "152526.730000", "152527.930000", "152529.130000", "152530.330000", "152531.530000", "152532.730000", "152533.930000", "152535.130000", "152536.330000", "152537.530000", "152538.730000", "152539.930000", "152541.130000", "152542.330000", "152543.530000", "152544.730000", "152545.930000", "152547.130000", "152548.330000", "152549.530000", "152550.730000", "152551.930000", "152553.130000", "152554.330000", "152555.530000", "152556.730000", "152557.930000", "152559.130000", "152600.330000", "152601.530000", "152602.730000", "152603.930000", "152605.130000", "152606.330000", "152607.530000", "152608.730000", "152609.930000", "152611.130000", "152612.330000", "152613.530000"],
      "ContentTime": ["152409.232000", "152409.235000", "152409.246000", "152409.249000", "152409.251000", "152409.254000", "152409.256000", "152409.259000", "152409.265000", "152409.267000", "152409.270000", "152409.273000", "152409.275000", "152409.278000", "152409.280000", "152409.283000", "152409.285000", "152409.288000", "152409.290000", "152409.293000", "152449.227000", "152449.230000", "152449.233000", "152449.236000", "152449.238000", "152449.241000", "152449.260000", "152449.263000", "152449.266000", "152449.268000", "152449.271000", "152449.273000", "152449.276000", "152449.278000", "152449.281000", "152449.283000", "152449.286000", "152449.289000", "152449.291000", "152449.294000", "152449.296000", "152449.299000", "152449.301000", "152449.304000", "152449.307000", "152449.309000", "152449.312000", "152449.314000", "152449.327000", "152449.330000", "152449.332000", "152449.335000", "152449.337000", "152529.228000", "152529.230000", "152529.234000", "152529.236000", "152529.239000", "152529.241000", "152529.244000", "152529.246000", "152529.249000", "152529.258000", "152529.261000", "152529.263000", "152529.266000", "152529.268000", "152529.271000", "152529.274000", "152529.276000", "152529.279000", "152529.282000", "152529.284000", "152529.287000", "152529.290000", "152529.292000", "152529.295000", "152529.297000", "152529.300000", "152529.302000", "152529.305000", "152529.308000", "152529.310000", "152529.313000", "152529.315000", "152529.318000", "152529.320000", "152609.227000", "152609.230000", "152609.233000", "152609.236000", "152609.238000", "152609.241000", "152609.244000", "152609.246000", "152609.249000", "152609.251000", "152609.254000", "152609.256000", "152609.259000", "152609.262000", "152609.264000", "152609.267000", "152609.269000", "152609.272000", "152609.275000", "152609.277000", "152609.280000", "152609.282000", "152609.291000", "152609.293000", "152609.296000", "152609.298000", "152609.301000", "152609.303000", "152609.306000", "152609.309000", "152609.311000", "152609.314000", "152609.316000", "152614.803000", "152614.805000", "152614.808000", "152614.811000", "152614.813000"],
      "InstanceCreationTime": ["152409.232000", "152409.235000", "152409.246000", "152409.249000", "152409.251000", "152409.254000", "152409.256000", "152409.259000", "152409.265000", "152409.267000", "152409.270000", "152409.273000", "152409.275000", "152409.278000", "152409.280000", "152409.283000", "152409.285000", "152409.288000", "152409.290000", "152409.293000", "152449.227000", "152449.230000", "152449.233000", "152449.236000", "152449.238000", "152449.241000", "152449.260000", "152449.263000", "152449.266000", "152449.268000", "152449.271000", "152449.273000", "152449.276000", "152449.278000", "152449.281000", "152449.283000", "152449.286000", "152449.289000", "152449.291000", "152449.294000", "152449.296000", "152449.299000", "152449.301000", "152449.304000", "152449.307000", "152449.309000", "152449.312000", "152449.314000", "152449.327000", "152449.330000", "152449.332000", "152449.335000", "152449.337000", "152529.228000", "152529.230000", "152529.234000", "152529.236000", "152529.239000", "152529.241000", "152529.244000", "152529.246000", "152529.249000", "152529.258000", "152529.261000", "152529.263000", "152529.266000", "152529.268000", "152529.271000", "152529.274000", "152529.276000", "152529.279000", "152529.282000", "152529.284000", "152529.287000", "152529.290000", "152529.292000", "152529.295000", "152529.297000", "152529.300000", "152529.302000", "152529.305000", "152529.308000", "152529.310000", "152529.313000", "152529.315000", "152529.318000", "152529.320000", "152609.227000", "152609.230000", "152609.233000", "152609.236000", "152609.238000", "152609.241000", "152609.244000", "152609.246000", "152609.249000", "152609.251000", "152609.254000", "152609.256000", "152609.259000", "152609.262000", "152609.264000", "152609.267000", "152609.269000", "152609.272000", "152609.275000", "152609.277000", "152609.280000", "152609.282000", "152609.291000", "152609.293000", "152609.296000", "152609.298000", "152609.301000", "152609.303000", "152609.306000", "152609.309000", "152609.311000", "152609.314000", "152609.316000", "152614.803000", "152614.805000", "152614.808000", "152614.811000", "152614.813000"],
      "InstanceNumber": [1, 2, 3, 4, 5, 6, 7, 8, 9, 10, 11, 12, 13, 14, 15, 16, 17, 18, 19, 20, 21, 22, 23, 24, 25, 26, 27, 28, 29, 30, 31, 32, 33, 34, 35, 36, 37, 38, 39, 40, 41, 42, 43, 44, 45, 46, 47, 48, 49, 50, 51, 52, 53, 54, 55, 56, 57, 58, 59, 60, 61, 62, 63, 64, 65, 66, 67, 68, 69, 70, 71, 72, 73, 74, 75, 76, 77, 78, 79, 80, 81, 82, 83, 84, 85, 86, 87, 88, 89, 90, 91, 92, 93, 94, 95, 96, 97, 98, 99, 100, 101, 102, 103, 104, 105, 106, 107, 108, 109, 110, 111, 112, 113, 114, 115, 116, 117, 118, 119, 120, 121, 122, 123, 124, 125],
      "LargestImagePixelValue": [2345, 2249, 2190, 2189, 2175, 2184, 2189, 2176, 2170, 2183, 2185, 2188, 2174, 2185, 2187, 2173, 2176, 2170, 2184, 2168, 2172, 2177, 2179, 2168, 2166, 2180, 2172, 2158, 2172, 2172, 2172, 2178, 2179, 2192, 2191, 2164, 2160, 2161, 2182, 2162, 2162, 2168, 2193, 2178, 2165, 2177, 2171, 2156, 2171, 2177, 2172, 2174, 2170, 2174, 2196, 2182, 2180, 2195, 2184, 2186, 2188, 2176, 2176, 2182, 2177, 2185, 2177, 2162, 2170, 2172, 2180, 2187, 2188, 2182, 2168, 2167, 2159, 2174, 2157, 2175, 2178, 2193, 2186, 2200, 2181, 2180, 2189, 2164, 2166, 2175, 2157, 2152, 2156, 2167, 2187, 2165, 2180, 2161, 2193, 2174, 2145, 2143, 2145, 2171, 2151, 2146, 2129, 2145, 2144, 2155, 2153, 2154, 2140, 2159, 2169, 2164, 2175, 2189, 2159, 2163, 2163, 2162, 2171, 2183, 2180],
      "WindowCenter": [595.0, 591.0, 589.0, 589.0, 589.0, 590.0, 590.0, 590.0, 589.0, 589.0, 590.0, 590.0, 590.0, 590.0, 589.0, 590.0, 590.0, 590.0, 590.0, 589.0, 590.0, 589.0, 590.0, 589.0, 589.0, 589.0, 589.0, 588.0, 589.0, 589.0, 590.0, 590.0, 589.0, 589.0, 589.0, 588.0, 588.0, 588.0, 589.0, 589.0, 589.0, 589.0, 589.0, 589.0, 588.0, 589.0, 589.0, 589.0, 589.0, 589.0, 589.0, 589.0, 589.0, 589.0, 589.0, 589.0, 590.0, 590.0, 590.0, 589.0, 589.0, 589.0, 589.0, 589.0, 589.0, 589.0, 589.0, 589.0, 589.0, 589.0, 589.0, 589.0, 589.0, 588.0, 588.0, 588.0, 588.0, 589.0, 588.0, 589.0, 589.0, 588.0, 588.0, 588.0, 588.0, 587.0, 588.0, 588.0, 587.0, 587.0, 588.0, 588.0, 588.0, 588.0, 589.0, 588.0, 588.0, 587.0, 588.0, 587.0, 586.0, 587.0, 587.0, 587.0, 586.0, 586.0, 586.0, 587.0, 587.0, 587.0, 587.0, 588.0, 588.0, 587.0, 588.0, 588.0, 589.0, 589.0, 588.0, 588.0, 588.0, 587.0, 588.0, 589.0, 588.0],
      "WindowWidth": [1272.0, 1262.0, 1258.0, 1257.0, 1258.0, 1259.0, 1259.0, 1258.0, 1258.0, 1258.0, 1259.0, 1258.0, 1259.0, 1258.0, 1258.0, 1258.0, 1259.0, 1259.0, 1259.0, 1257.0, 1258.0, 1258.0, 1258.0, 1258.0, 1257.0, 1257.0, 1256.0, 1255.0, 1257.0, 1257.0, 1258.0, 1258.0, 1258.0, 1257.0, 1256.0, 1255.0, 1255.0, 1255.0, 1256.0, 1257.0, 1256.0, 1257.0, 1257.0, 1257.0, 1255.0, 1256.0, 1257.0, 1256.0, 1257.0, 1257.0, 1256.0, 1257.0, 1257.0, 1257.0, 1257.0, 1257.0, 1258.0, 1259.0, 1258.0, 1258.0, 1256.0, 1256.0, 1256.0, 1257.0, 1256.0, 1257.0, 1256.0, 1257.0, 1256.0, 1256.0, 1257.0, 1256.0, 1256.0, 1256.0, 1255.0, 1254.0, 1255.0, 1256.0, 1255.0, 1256.0, 1256.0, 1255.0, 1255.0, 1254.0, 1255.0, 1254.0, 1254.0, 1254.0, 1253.0, 1253.0, 1254.0, 1254.0, 1255.0, 1256.0, 1258.0, 1255.0, 1255.0, 1253.0, 1254.0, 1252.0, 1251.0, 1252.0, 1252.0, 1252.0, 1251.0, 1251.0, 1250.0, 1252.0, 1252.0, 1252.0, 1253.0, 1254.0, 1254.0, 1253.0, 1254.0, 1255.0, 1256.0, 1256.0, 1254.0, 1254.0, 1254.0, 1253.0, 1253.0, 1255.0, 1255.0]
    },
    "slices": {}
  }
}