{
  "AcquisitionMatrixPE": 88,
  "AcquisitionNumber": 1,
  "AcquisitionTime": "15:27:0.615000",
  "BandwidthPerPixelPhaseEncode": 19.592,
  "BaseResolution": 88,
  "BodyPartExamined": "BRAIN",
  "ConsistencyInfo": "N4_VE11C_LATEST_20160120",
  "ConversionSoftware": "dcm2niix",
  "ConversionSoftwareVersion": "v1.0.20190902",
  "DerivedVendorReportedEchoSpacing": 0.000580014,
  "DeviceSerialNumber": "67050",
  "DwellTime": 2.6e-06,
  "EchoTime": 0.033,
  "EchoTrainLength": 88,
  "EffectiveEchoSpacing": 0.000580014,
  "FlipAngle": 62,
  "ImageOrientationPatientDICOM": [0.998606, 0.0290735, 0.0440563, -0.0210922, 0.984895, -0.171861],
  "ImageType": [
    "ORIGINAL",
    "PRIMARY",
    "M",
    "ND",
    "MOSAIC"
],
  "ImagingFrequency": 123.251,
  "InPlanePhaseEncodingDirectionDICOM": "COL",
  "InstitutionAddress": "Olive_Street_60_Providence_RI_US_02912",
  "InstitutionName": "BROWN_UNIVERSITY_MRF",
  "InstitutionalDepartmentName": "Department",
  "MRAcquisitionType": "2D",
  "MagneticFieldStrength": 3,
  "Manufacturer": "Siemens",
  "ManufacturersModelName": "Prisma_fit",
  "Modality": "MR",
  "MultibandAccelerationFactor": 4,
  "PartialFourier": 1,
  "PatientPosition": "HFS",
  "PercentPhaseFOV": 100,
  "PhaseEncodingDirection": "j-",
  "PhaseEncodingSteps": 88,
  "PhaseResolution": 1,
  "PixelBandwidth": 2185,
  "ProcedureStepDescription": "ASHENHAV_1222",
  "ProtocolName": "func-bold_task-RDMcolor_run-01",
  "PulseSequenceDetails": "%SiemensSeq%_ep2d_bold",
  "ReceiveCoilActiveElements": "HC1-7",
  "ReceiveCoilName": "HeadNeck_64",
  "ReconMatrixPE": 88,
  "RefLinesPE": 8,
  "RepetitionTime": 1.2,
  "SAR": 0.0620651,
  "ScanOptions": "FS",
  "ScanningSequence": "EP",
  "SequenceName": "_epfid2d1_88",
  "SequenceVariant": "SK",
  "SeriesDescription": "func-bold_task-RDMcolor_run-01",
  "SeriesNumber": 8,
  "ShimSetting": [1769, -9091, 4399, 428, -70, -249, 43, 12],
  "SliceThickness": 2.4,
  "SliceTiming": [0.55, 0, 0.63, 0.08, 0.7075, 0.1575, 0.7875, 0.2375, 0.865, 0.315, 0.945, 0.395, 1.0225, 0.4725, 1.1025, 0.55, 0, 0.63, 0.08, 0.7075, 0.1575, 0.7875, 0.2375, 0.865, 0.315, 0.945, 0.395, 1.0225, 0.4725, 1.1025, 0.55, 0, 0.63, 0.08, 0.7075, 0.1575, 0.7875, 0.2375, 0.865, 0.315, 0.945, 0.395, 1.0225, 0.4725, 1.1025, 0.55, 0, 0.63, 0.08, 0.7075, 0.1575, 0.7875, 0.2375, 0.865, 0.315, 0.945, 0.395, 1.0225, 0.4725, 1.1025],
  "SoftwareVersions": "syngo_MR_E11",
  "SpacingBetweenSlices": 2.4,
  "StationName": "AWP67050",
  "TaskName": "RDMcolor",
  "TotalReadoutTime": 0.0504612,
  "TxRefAmp": 254.149,
  "dcmmeta_affine": [
    [-2.3943846225738525, -0.05057332664728165, 0.11612989753484726, 108.64788818359375],
    [-0.06971030682325363, 2.3615105152130127, -0.4096611440181732, -79.7043685913086],
    [0.10563502460718155, 0.4120757579803467, 2.3619253635406494, -80.73521423339844],
    [0.0, 0.0, 0.0, 1.0]
],
  "dcmmeta_reorient_transform": [
    [0.0, -1.0, 0.0, 87.0],
    [1.0, 0.0, 0.0, 0.0],
    [0.0, 0.0, 1.0, 0.0],
    [0.0, 0.0, 0.0, 1.0]
],
  "dcmmeta_shape": [88, 88, 60, 392],
  "dcmmeta_slice_dim": 2,
  "dcmmeta_version": 0.6,
  "global": {
    "const": {
      "AcquisitionMatrix": [88, 0, 0, 88],
      "AngioFlag": "N",
      "BitsAllocated": 16,
      "BitsStored": 12,
      "BodyPartExamined": "BRAIN",
      "Columns": 704,
      "DeidentificationMethodCodeSequence": [
        {
          "CodeMeaning": "XNAT DicomEdit 6 Script",
          "CodeValue": "3",
          "CodingSchemeDesignator": "XNAT",
          "CodingSchemeVersion": "1.0"}
],
      "EchoNumbers": 1,
      "EchoTime": 33.0,
      "EchoTrainLength": 88,
      "FlipAngle": 62.0,
      "HighBit": 11,
      "ImageOrientationPatient": [0.99860591488418, 0.0290734943836, 0.0440563126313, -0.0210921938825, 0.98489538727105, -0.1718609772154],
      "ImagePositionPatient": [-826.141881586, -874.56305525433, 49.499116829894],
      "ImageType": [
        "ORIGINAL",
        "PRIMARY",
        "M",
        "ND",
        "MOSAIC"
],
      "ImagedNucleus": "1H",
      "ImagingFrequency": 123.250699,
      "InPlanePhaseEncodingDirection": "COL",
      "MRAcquisitionType": "2D",
      "MagneticFieldStrength": 3.0,
      "Manufacturer": "SIEMENS",
      "ManufacturerModelName": "Prisma_fit",
      "Modality": "MR",
      "NumberOfAverages": 1.0,
      "NumberOfPhaseEncodingSteps": 88,
      "PercentPhaseFieldOfView": 100.0,
      "PercentSampling": 100.0,
      "PerformedProcedureStepStartTime": "151453.303000",
      "PhotometricInterpretation": "MONOCHROME2",
      "PixelBandwidth": 2185.0,
      "PixelRepresentation": 0,
      "PixelSpacing": [2.3977272510529, 2.3977272510529],
      "ProtocolName": "func-bold_task-RDMcolor_run-01",
      "RepetitionTime": 1200.0,
      "Rows": 704,
      "SAR": 0.06206509210554,
      "SamplesPerPixel": 1,
      "ScanOptions": "FS",
      "ScanningSequence": "EP",
      "SequenceName": "*epfid2d1_88",
      "SequenceVariant": "SK",
      "SeriesDescription": "func-bold_task-RDMcolor_run-01",
      "SeriesNumber": 8,
      "SeriesTime": "152726.216000",
      "SliceLocation": -60.592295046741,
      "SliceThickness": 2.4000000953674,
      "SmallestImagePixelValue": 0,
      "SoftwareVersions": "syngo MR E11",
      "SpacingBetweenSlices": 2.4000000129153,
      "SpecificCharacterSet": "ISO_IR 100",
      "StudyID": "1",
      "StudyTime": "151453.174000",
      "TransmitCoilName": "Body",
      "VariableFlipAngleFlag": "N",
      "WindowCenterWidthExplanation": "Algo1",
      "dBdt": 0.0},
    "slices": {}
  },
  "time": {
    "samples": {
      "AcquisitionNumber": [1, 2, 3, 4, 5, 6, 7, 8, 9, 10, 11, 12, 13, 14, 15, 16, 17, 18, 19, 20, 21, 22, 23, 24, 25, 26, 27, 28, 29, 30, 31, 32, 33, 34, 35, 36, 37, 38, 39, 40, 41, 42, 43, 44, 45, 46, 47, 48, 49, 50, 51, 52, 53, 54, 55, 56, 57, 58, 59, 60, 61, 62, 63, 64, 65, 66, 67, 68, 69, 70, 71, 72, 73, 74, 75, 76, 77, 78, 79, 80, 81, 82, 83, 84, 85, 86, 87, 88, 89, 90, 91, 92, 93, 94, 95, 96, 97, 98, 99, 100, 101, 102, 103, 104, 105, 106, 107, 108, 109, 110, 111, 112, 113, 114, 115, 116, 117, 118, 119, 120, 121, 122, 123, 124, 125, 126, 127, 128, 129, 130, 131, 132, 133, 134, 135, 136, 137, 138, 139, 140, 141, 142, 143, 144, 145, 146, 147, 148, 149, 150, 151, 152, 153, 154, 155, 156, 157, 158, 159, 160, 161, 162, 163, 164, 165, 166, 167, 168, 169, 170, 171, 172, 173, 174, 175, 176, 177, 178, 179, 180, 181, 182, 183, 184, 185, 186, 187, 188, 189, 190, 191, 192, 193, 194, 195, 196, 197, 198, 199, 200, 201, 202, 203, 204, 205, 206, 207, 208, 209, 210, 211, 212, 213, 214, 215, 216, 217, 218, 219, 220, 221, 222, 223, 224, 225, 226, 227, 228, 229, 230, 231, 232, 233, 234, 235, 236, 237, 238, 239, 240, 241, 242, 243, 244, 245, 246, 247, 248, 249, 250, 251, 252, 253, 254, 255, 256, 257, 258, 259, 260, 261, 262, 263, 264, 265, 266, 267, 268, 269, 270, 271, 272, 273, 274, 275, 276, 277, 278, 279, 280, 281, 282, 283, 284, 285, 286, 287, 288, 289, 290, 291, 292, 293, 294, 295, 296, 297, 298, 299, 300, 301, 302, 303, 304, 305, 306, 307, 308, 309, 310, 311, 312, 313, 314, 315, 316, 317, 318, 319, 320, 321, 322, 323, 324, 325, 326, 327, 328, 329, 330, 331, 332, 333, 334, 335, 336, 337, 338, 339, 340, 341, 342, 343, 344, 345, 346, 347, 348, 349, 350, 351, 352, 353, 354, 355, 356, 357, 358, 359, 360, 361, 362, 363, 364, 365, 366, 367, 368, 369, 370, 371, 372, 373, 374, 375, 376, 377, 378, 379, 380, 381, 382, 383, 384, 385, 386, 387, 388, 389, 390, 391, 392],
      "AcquisitionTime": ["152700.615000", "152701.815000", "152703.015000", "152704.215000", "152705.415000", "152706.615000", "152707.815000", "152709.015000", "152710.215000", "152711.415000", "152712.615000", "152713.815000", "152715.015000", "152716.215000", "152717.415000", "152718.615000", "152719.815000", "152721.015000", "152722.215000", "152723.415000", "152724.615000", "152725.815000", "152727.015000", "152728.215000", "152729.415000", "152730.615000", "152731.815000", "152733.015000", "152734.215000", "152735.415000", "152736.615000", "152737.815000", "152739.015000", "152740.215000", "152741.415000", "152742.615000", "152743.815000", "152745.015000", "152746.215000", "152747.415000", "152748.615000", "152749.815000", "152751.015000", "152752.215000", "152753.415000", "152754.615000", "152755.815000", "152757.015000", "152758.215000", "152759.415000", "152800.615000", "152801.815000", "152803.015000", "152804.215000", "152805.415000", "152806.615000", "152807.815000", "152809.015000", "152810.215000", "152811.415000", "152812.615000", "152813.815000", "152815.015000", "152816.215000", "152817.415000", "152818.615000", "152819.815000", "152821.015000", "152822.215000", "152823.415000", "152824.615000", "152825.815000", "152827.015000", "152828.215000", "152829.415000", "152830.615000", "152831.815000", "152833.015000", "152834.215000", "152835.415000", "152836.615000", "152837.815000", "152839.015000", "152840.215000", "152841.415000", "152842.615000", "152843.815000", "152845.015000", "152846.215000", "152847.415000", "152848.615000", "152849.815000", "152851.015000", "152852.215000", "152853.415000", "152854.615000", "152855.815000", "152857.015000", "152858.215000", "152859.415000", "152900.615000", "152901.815000", "152903.015000", "152904.215000", "152905.415000", "152906.615000", "152907.815000", "152909.015000", "152910.215000", "152911.415000", "152912.615000", "152913.815000", "152915.015000", "152916.215000", "152917.415000", "152918.615000", "152919.815000", "152921.015000", "152922.215000", "152923.415000", "152924.615000", "152925.815000", "152927.015000", "152928.215000", "152929.415000", "152930.615000", "152931.815000", "152933.015000", "152934.215000", "152935.415000", "152936.615000", "152937.815000", "152939.015000", "152940.215000", "152941.415000", "152942.615000", "152943.815000", "152945.015000", "152946.215000", "152947.415000", "152948.615000", "152949.815000", "152951.015000", "152952.215000", "152953.415000", "152954.615000", "152955.815000", "152957.015000", "152958.215000", "152959.415000", "153000.615000", "153001.815000", "153003.015000", "153004.215000", "153005.415000", "153006.615000", "153007.815000", "153009.015000", "153010.215000", "153011.415000", "153012.615000", "153013.815000", "153015.015000", "153016.215000", "153017.415000", "153018.615000", "153019.815000", "153021.015000", "153022.215000", "153023.415000", "153024.615000", "153025.815000", "153027.015000", "153028.215000", "153029.415000", "153030.615000", "153031.815000", "153033.015000", "153034.215000", "153035.415000", "153036.615000", "153037.815000", "153039.015000", "153040.215000", "153041.415000", "153042.615000", "153043.815000", "153045.015000", "153046.215000", "153047.415000", "153048.615000", "153049.815000", "153051.015000", "153052.215000", "153053.415000", "153054.615000", "153055.815000", "153057.015000", "153058.215000", "153059.415000", "153100.615000", "153101.815000", "153103.015000", "153104.215000", "153105.415000", "153106.615000", "153107.815000", "153109.015000", "153110.215000", "153111.415000", "153112.615000", "153113.815000", "153115.015000", "153116.215000", "153117.415000", "153118.615000", "153119.815000", "153121.015000", "153122.215000", "153123.415000", "153124.615000", "153125.815000", "153127.015000", "153128.215000", "153129.415000", "153130.615000", "153131.815000", "153133.015000", "153134.215000", "153135.415000", "153136.615000", "153137.815000", "153139.015000", "153140.215000", "153141.415000", "153142.615000", "153143.815000", "153145.015000", "153146.215000", "153147.415000", "153148.615000", "153149.815000", "153151.015000", "153152.215000", "153153.415000", "153154.615000", "153155.815000", "153157.015000", "153158.215000", "153159.415000", "153200.615000", "153201.815000", "153203.015000", "153204.215000", "153205.415000", "153206.615000", "153207.815000", "153209.015000", "153210.215000", "153211.415000", "153212.615000", "153213.815000", "153215.015000", "153216.215000", "153217.415000", "153218.615000", "153219.815000", "153221.015000", "153222.215000", "153223.415000", "153224.615000", "153225.815000", "153227.015000", "153228.215000", "153229.415000", "153230.615000", "153231.815000", "153233.015000", "153234.215000", "153235.415000", "153236.615000", "153237.815000", "153239.015000", "153240.215000", "153241.415000", "153242.615000", "153243.815000", "153245.015000", "153246.215000", "153247.415000", "153248.615000", "153249.815000", "153251.015000", "153252.215000", "153253.415000", "153254.615000", "153255.815000", "153257.015000", "153258.215000", "153259.415000", "153300.615000", "153301.815000", "153303.015000", "153304.215000", "153305.415000", "153306.615000", "153307.815000", "153309.015000", "153310.215000", "153311.415000", "153312.615000", "153313.815000", "153315.015000", "153316.215000", "153317.415000", "153318.615000", "153319.815000", "153321.015000", "153322.215000", "153323.415000", "153324.615000", "153325.815000", "153327.015000", "153328.215000", "153329.415000", "153330.615000", "153331.815000", "153333.015000", "153334.215000", "153335.415000", "153336.615000", "153337.815000", "153339.015000", "153340.215000", "153341.415000", "153342.615000", "153343.815000", "153345.015000", "153346.215000", "153347.415000", "153348.615000", "153349.815000", "153351.015000", "153352.215000", "153353.415000", "153354.615000", "153355.815000", "153357.015000", "153358.215000", "153359.415000", "153400.615000", "153401.815000", "153403.015000", "153404.215000", "153405.415000", "153406.615000", "153407.815000", "153409.015000", "153410.215000", "153411.415000", "153412.615000", "153413.815000", "153415.015000", "153416.215000", "153417.415000", "153418.615000", "153419.815000", "153421.015000", "153422.215000", "153423.415000", "153424.615000", "153425.815000", "153427.015000", "153428.215000", "153429.415000", "153430.615000", "153431.815000", "153433.015000", "153434.215000", "153435.415000", "153436.615000", "153437.815000", "153439.015000", "153440.215000", "153441.415000", "153442.615000", "153443.815000", "153445.015000", "153446.215000", "153447.415000", "153448.615000", "153449.815000"],
      "ContentTime": ["152726.220000", "152726.223000", "152726.226000", "152726.229000", "152726.232000", "152726.234000", "152726.237000", "152726.240000", "152726.243000", "152726.245000", "152726.248000", "152726.251000", "152726.261000", "152726.264000", "152726.266000", "152726.272000", "152726.274000", "152726.277000", "152726.280000", "152726.283000", "152726.285000", "152806.213000", "152806.216000", "152806.219000", "152806.222000", "152806.224000", "152806.227000", "152806.229000", "152806.232000", "152806.235000", "152806.237000", "152806.240000", "152806.242000", "152806.245000", "152806.248000", "152806.250000", "152806.253000", "152806.255000", "152806.258000", "152806.261000", "152806.263000", "152806.266000", "152806.268000", "152806.271000", "152806.274000", "152806.276000", "152806.279000", "152806.281000", "152806.285000", "152806.288000", "152806.290000", "152806.293000", "152806.296000", "152806.298000", "152846.213000", "152846.216000", "152846.219000", "152846.222000", "152846.225000", "152846.228000", "152846.231000", "152846.237000", "152846.240000", "152846.243000", "152846.246000", "152846.248000", "152846.251000", "152846.253000", "152846.256000", "152846.259000", "152846.261000", "152846.264000", "152846.267000", "152846.269000", "152846.272000", "152846.274000", "152846.277000", "152846.280000", "152846.282000", "152846.285000", "152846.287000", "152846.290000", "152846.293000", "152846.295000", "152846.298000", "152846.300000", "152846.303000", "152926.215000", "152926.217000", "152926.220000", "152926.223000", "152926.239000", "152926.242000", "152926.245000", "152926.247000", "152926.250000", "152926.252000", "152926.255000", "152926.258000", "152926.260000", "152926.271000", "152926.274000", "152926.276000", "152926.279000", "152926.282000", "152926.284000", "152926.287000", "152926.289000", "152926.292000", "152926.294000", "152926.297000", "152926.299000", "152926.302000", "152926.304000", "152926.307000", "152926.310000", "152926.312000", "152926.315000", "152926.317000", "152926.320000", "152926.323000", "153006.213000", "153006.216000", "153006.219000", "153006.222000", "153006.224000", "153006.227000", "153006.229000", "153006.232000", "153006.234000", "153006.237000", "153006.240000", "153006.242000", "153006.245000", "153006.247000", "153006.250000", "153006.253000", "153006.255000", "153006.258000", "153006.260000", "153006.263000", "153006.265000", "153006.268000", "153006.271000", "153006.273000", "153006.276000", "153006.278000", "153006.281000", "153006.285000", "153006.288000", "153006.291000", "153006.293000", "153006.296000", "153006.298000", "153046.213000", "153046.216000", "153046.219000", "153046.222000", "153046.224000", "153046.227000", "153046.229000", "153046.232000", "153046.235000", "153046.237000", "153046.240000", "153046.243000", "153046.245000", "153046.249000", "153046.251000", "153046.254000", "153046.257000", "153046.259000", "153046.262000", "153046.265000", "153046.267000", "153046.270000", "153046.272000", "153046.275000", "153046.277000", "153046.280000", "153046.283000", "153046.285000", "153046.288000", "153046.291000", "153046.293000", "153046.296000", "153046.299000", "153126.213000", "153126.216000", "153126.219000", "153126.222000", "153126.224000", "153126.227000", "153126.230000", "153126.232000", "153126.235000", "153126.238000", "153126.240000", "153126.243000", "153126.245000", "153126.248000", "153126.251000", "153126.253000", "153126.256000", "153126.258000", "153126.261000", "153126.263000", "153126.266000", "153126.269000", "153126.271000", "153126.274000", "153126.276000", "153126.279000", "153126.282000", "153126.284000", "153126.287000", "153126.290000", "153126.292000", "153126.295000", "153126.297000", "153126.300000", "153206.215000", "153206.218000", "153206.220000", "153206.223000", "153206.225000", "153206.228000", "153206.231000", "153206.233000", "153206.236000", "153206.238000", "153206.241000", "153206.244000", "153206.246000", "153206.249000", "153206.252000", "153206.254000", "153206.257000", "153206.260000", "153206.262000", "153206.265000", "153206.267000", "153206.270000", "153206.273000", "153206.275000", "153206.278000", "153206.280000", "153206.284000", "153206.287000", "153206.290000", "153206.292000", "153206.295000", "153206.298000", "153206.300000", "153246.213000", "153246.216000", "153246.219000", "153246.232000", "153246.235000", "153246.238000", "153246.240000", "153246.243000", "153246.246000", "153246.249000", "153246.252000", "153246.254000", "153246.257000", "153246.260000", "153246.263000", "153246.265000", "153246.268000", "153246.270000", "153246.273000", "153246.276000", "153246.278000", "153246.281000", "153246.284000", "153246.286000", "153246.289000", "153246.291000", "153246.294000", "153246.297000", "153246.299000", "153246.302000", "153246.304000", "153246.307000", "153246.309000", "153326.214000", "153326.229000", "153326.232000", "153326.234000", "153326.237000", "153326.239000", "153326.242000", "153326.245000", "153326.247000", "153326.250000", "153326.252000", "153326.255000", "153326.258000", "153326.261000", "153326.263000", "153326.266000", "153326.268000", "153326.271000", "153326.273000", "153326.276000", "153326.279000", "153326.281000", "153326.284000", "153326.287000", "153326.289000", "153326.292000", "153326.294000", "153326.297000", "153326.300000", "153326.302000", "153326.305000", "153326.307000", "153326.310000", "153326.312000", "153406.215000", "153406.218000", "153406.220000", "153406.223000", "153406.225000", "153406.228000", "153406.231000", "153406.233000", "153406.236000", "153406.239000", "153406.241000", "153406.244000", "153406.247000", "153406.249000", "153406.252000", "153406.255000", "153406.257000", "153406.260000", "153406.262000", "153406.265000", "153406.268000", "153406.270000", "153406.273000", "153406.276000", "153406.278000", "153406.281000", "153406.285000", "153406.288000", "153406.290000", "153406.293000", "153406.296000", "153406.298000", "153406.301000", "153446.213000", "153446.217000", "153446.220000", "153446.223000", "153446.226000", "153446.228000", "153446.231000", "153446.234000", "153446.237000", "153446.239000", "153446.242000", "153446.244000", "153446.247000", "153446.250000", "153446.252000", "153446.255000", "153446.257000", "153446.260000", "153446.263000", "153446.265000", "153446.268000", "153446.270000", "153446.273000", "153446.276000", "153446.278000", "153446.281000", "153446.284000", "153446.286000", "153446.289000", "153446.291000", "153446.294000", "153446.296000", "153446.299000", "153451.089000", "153451.092000", "153451.095000", "153451.097000", "153451.100000"],
      "InstanceCreationTime": ["152726.220000", "152726.223000", "152726.226000", "152726.229000", "152726.232000", "152726.234000", "152726.237000", "152726.240000", "152726.243000", "152726.245000", "152726.248000", "152726.251000", "152726.261000", "152726.264000", "152726.266000", "152726.272000", "152726.274000", "152726.277000", "152726.280000", "152726.283000", "152726.285000", "152806.213000", "152806.216000", "152806.219000", "152806.222000", "152806.224000", "152806.227000", "152806.229000", "152806.232000", "152806.235000", "152806.237000", "152806.240000", "152806.242000", "152806.245000", "152806.248000", "152806.250000", "152806.253000", "152806.255000", "152806.258000", "152806.261000", "152806.263000", "152806.266000", "152806.268000", "152806.271000", "152806.274000", "152806.276000", "152806.279000", "152806.281000", "152806.285000", "152806.288000", "152806.290000", "152806.293000", "152806.296000", "152806.298000", "152846.213000", "152846.216000", "152846.219000", "152846.222000", "152846.225000", "152846.228000", "152846.231000", "152846.237000", "152846.240000", "152846.243000", "152846.246000", "152846.248000", "152846.251000", "152846.253000", "152846.256000", "152846.259000", "152846.261000", "152846.264000", "152846.267000", "152846.269000", "152846.272000", "152846.274000", "152846.277000", "152846.280000", "152846.282000", "152846.285000", "152846.287000", "152846.290000", "152846.293000", "152846.295000", "152846.298000", "152846.300000", "152846.303000", "152926.215000", "152926.217000", "152926.220000", "152926.223000", "152926.239000", "152926.242000", "152926.245000", "152926.247000", "152926.250000", "152926.252000", "152926.255000", "152926.258000", "152926.260000", "152926.271000", "152926.274000", "152926.276000", "152926.279000", "152926.282000", "152926.284000", "152926.287000", "152926.289000", "152926.292000", "152926.294000", "152926.297000", "152926.299000", "152926.302000", "152926.304000", "152926.307000", "152926.310000", "152926.312000", "152926.315000", "152926.317000", "152926.320000", "152926.323000", "153006.213000", "153006.216000", "153006.219000", "153006.222000", "153006.224000", "153006.227000", "153006.229000", "153006.232000", "153006.234000", "153006.237000", "153006.240000", "153006.242000", "153006.245000", "153006.247000", "153006.250000", "153006.253000", "153006.255000", "153006.258000", "153006.260000", "153006.263000", "153006.265000", "153006.268000", "153006.271000", "153006.273000", "153006.276000", "153006.278000", "153006.281000", "153006.285000", "153006.288000", "153006.291000", "153006.293000", "153006.296000", "153006.298000", "153046.213000", "153046.216000", "153046.219000", "153046.222000", "153046.224000", "153046.227000", "153046.229000", "153046.232000", "153046.235000", "153046.237000", "153046.240000", "153046.243000", "153046.245000", "153046.249000", "153046.251000", "153046.254000", "153046.257000", "153046.259000", "153046.262000", "153046.265000", "153046.267000", "153046.270000", "153046.272000", "153046.275000", "153046.277000", "153046.280000", "153046.283000", "153046.285000", "153046.288000", "153046.291000", "153046.293000", "153046.296000", "153046.299000", "153126.213000", "153126.216000", "153126.219000", "153126.222000", "153126.224000", "153126.227000", "153126.230000", "153126.232000", "153126.235000", "153126.238000", "153126.240000", "153126.243000", "153126.245000", "153126.248000", "153126.251000", "153126.253000", "153126.256000", "153126.258000", "153126.261000", "153126.263000", "153126.266000", "153126.269000", "153126.271000", "153126.274000", "153126.276000", "153126.279000", "153126.282000", "153126.284000", "153126.287000", "153126.290000", "153126.292000", "153126.295000", "153126.297000", "153126.300000", "153206.215000", "153206.218000", "153206.220000", "153206.223000", "153206.225000", "153206.228000", "153206.231000", "153206.233000", "153206.236000", "153206.238000", "153206.241000", "153206.244000", "153206.246000", "153206.249000", "153206.252000", "153206.254000", "153206.257000", "153206.260000", "153206.262000", "153206.265000", "153206.267000", "153206.270000", "153206.273000", "153206.275000", "153206.278000", "153206.280000", "153206.284000", "153206.287000", "153206.290000", "153206.292000", "153206.295000", "153206.298000", "153206.300000", "153246.213000", "153246.216000", "153246.219000", "153246.232000", "153246.235000", "153246.238000", "153246.240000", "153246.243000", "153246.246000", "153246.249000", "153246.252000", "153246.254000", "153246.257000", "153246.260000", "153246.263000", "153246.265000", "153246.268000", "153246.270000", "153246.273000", "153246.276000", "153246.278000", "153246.281000", "153246.284000", "153246.286000", "153246.289000", "153246.291000", "153246.294000", "153246.297000", "153246.299000", "153246.302000", "153246.304000", "153246.307000", "153246.309000", "153326.214000", "153326.229000", "153326.232000", "153326.234000", "153326.237000", "153326.239000", "153326.242000", "153326.245000", "153326.247000", "153326.250000", "153326.252000", "153326.255000", "153326.258000", "153326.261000", "153326.263000", "153326.266000", "153326.268000", "153326.271000", "153326.273000", "153326.276000", "153326.279000", "153326.281000", "153326.284000", "153326.287000", "153326.289000", "153326.292000", "153326.294000", "153326.297000", "153326.300000", "153326.302000", "153326.305000", "153326.307000", "153326.310000", "153326.312000", "153406.215000", "153406.218000", "153406.220000", "153406.223000", "153406.225000", "153406.228000", "153406.231000", "153406.233000", "153406.236000", "153406.239000", "153406.241000", "153406.244000", "153406.247000", "153406.249000", "153406.252000", "153406.255000", "153406.257000", "153406.260000", "153406.262000", "153406.265000", "153406.268000", "153406.270000", "153406.273000", "153406.276000", "153406.278000", "153406.281000", "153406.285000", "153406.288000", "153406.290000", "153406.293000", "153406.296000", "153406.298000", "153406.301000", "153446.213000", "153446.217000", "153446.220000", "153446.223000", "153446.226000", "153446.228000", "153446.231000", "153446.234000", "153446.237000", "153446.239000", "153446.242000", "153446.244000", "153446.247000", "153446.250000", "153446.252000", "153446.255000", "153446.257000", "153446.260000", "153446.263000", "153446.265000", "153446.268000", "153446.270000", "153446.273000", "153446.276000", "153446.278000", "153446.281000", "153446.284000", "153446.286000", "153446.289000", "153446.291000", "153446.294000", "153446.296000", "153446.299000", "153451.089000", "153451.092000", "153451.095000", "153451.097000", "153451.100000"],
      "InstanceNumber": [1, 2, 3, 4, 5, 6, 7, 8, 9, 10, 11, 12, 13, 14, 15, 16, 17, 18, 19, 20, 21, 22, 23, 24, 25, 26, 27, 28, 29, 30, 31, 32, 33, 34, 35, 36, 37, 38, 39, 40, 41, 42, 43, 44, 45, 46, 47, 48, 49, 50, 51, 52, 53, 54, 55, 56, 57, 58, 59, 60, 61, 62, 63, 64, 65, 66, 67, 68, 69, 70, 71, 72, 73, 74, 75, 76, 77, 78, 79, 80, 81, 82, 83, 84, 85, 86, 87, 88, 89, 90, 91, 92, 93, 94, 95, 96, 97, 98, 99, 100, 101, 102, 103, 104, 105, 106, 107, 108, 109, 110, 111, 112, 113, 114, 115, 116, 117, 118, 119, 120, 121, 122, 123, 124, 125, 126, 127, 128, 129, 130, 131, 132, 133, 134, 135, 136, 137, 138, 139, 140, 141, 142, 143, 144, 145, 146, 147, 148, 149, 150, 151, 152, 153, 154, 155, 156, 157, 158, 159, 160, 161, 162, 163, 164, 165, 166, 167, 168, 169, 170, 171, 172, 173, 174, 175, 176, 177, 178, 179, 180, 181, 182, 183, 184, 185, 186, 187, 188, 189, 190, 191, 192, 193, 194, 195, 196, 197, 198, 199, 200, 201, 202, 203, 204, 205, 206, 207, 208, 209, 210, 211, 212, 213, 214, 215, 216, 217, 218, 219, 220, 221, 222, 223, 224, 225, 226, 227, 228, 229, 230, 231, 232, 233, 234, 235, 236, 237, 238, 239, 240, 241, 242, 243, 244, 245, 246, 247, 248, 249, 250, 251, 252, 253, 254, 255, 256, 257, 258, 259, 260, 261, 262, 263, 264, 265, 266, 267, 268, 269, 270, 271, 272, 273, 274, 275, 276, 277, 278, 279, 280, 281, 282, 283, 284, 285, 286, 287, 288, 289, 290, 291, 292, 293, 294, 295, 296, 297, 298, 299, 300, 301, 302, 303, 304, 305, 306, 307, 308, 309, 310, 311, 312, 313, 314, 315, 316, 317, 318, 319, 320, 321, 322, 323, 324, 325, 326, 327, 328, 329, 330, 331, 332, 333, 334, 335, 336, 337, 338, 339, 340, 341, 342, 343, 344, 345, 346, 347, 348, 349, 350, 351, 352, 353, 354, 355, 356, 357, 358, 359, 360, 361, 362, 363, 364, 365, 366, 367, 368, 369, 370, 371, 372, 373, 374, 375, 376, 377, 378, 379, 380, 381, 382, 383, 384, 385, 386, 387, 388, 389, 390, 391, 392],
