{
  "AcquisitionMatrixPE": 88,
  "AcquisitionNumber": 1,
  "AcquisitionTime": "15:47:17.035000",
  "BandwidthPerPixelPhaseEncode": 19.592,
  "BaseResolution": 88,
  "BodyPartExamined": "BRAIN",
  "ConsistencyInfo": "N4_VE11C_LATEST_20160120",
  "ConversionSoftware": "dcm2niix",
  "ConversionSoftwareVersion": "v1.0.20190902",
  "DerivedVendorReportedEchoSpacing": 0.000580014,
  "DeviceSerialNumber": "67050",
  "DwellTime": 2.6e-06,
  "EchoTime": 0.033,
  "EchoTrainLength": 88,
  "EffectiveEchoSpacing": 0.000580014,
  "FlipAngle": 62,
  "ImageOrientationPatientDICOM": [0.998606, 0.0290735, 0.0440563, -0.0210922, 0.984895, -0.171861],
  "ImageType": [
    "ORIGINAL",
    "PRIMARY",
    "M",
    "ND",
    "MOSAIC"
],
  "ImagingFrequency": 123.251,
  "InPlanePhaseEncodingDirectionDICOM": "COL",
  "InstitutionAddress": "Olive_Street_60_Providence_RI_US_02912",
  "InstitutionName": "BROWN_UNIVERSITY_MRF",
  "InstitutionalDepartmentName": "Department",
  "MRAcquisitionType": "2D",
  "MagneticFieldStrength": 3,
  "Manufacturer": "Siemens",
  "ManufacturersModelName": "Prisma_fit",
  "Modality": "MR",
  "MultibandAccelerationFactor": 4,
  "PartialFourier": 1,
  "PatientPosition": "HFS",
  "PercentPhaseFOV": 100,
  "PhaseEncodingDirection": "j-",
  "PhaseEncodingSteps": 88,
  "PhaseResolution": 1,
  "PixelBandwidth": 2185,
  "ProcedureStepDescription": "ASHENHAV_1222",
  "ProtocolName": "func-bold_task-RDMmotion_run-03",
  "PulseSequenceDetails": "%SiemensSeq%_ep2d_bold",
  "ReceiveCoilActiveElements": "HC1-7",
  "ReceiveCoilName": "HeadNeck_64",
  "ReconMatrixPE": 88,
  "RefLinesPE": 8,
  "RepetitionTime": 1.2,
  "SAR": 0.0614351,
  "ScanOptions": "FS",
  "ScanningSequence": "EP",
  "SequenceName": "_epfid2d1_88",
  "SequenceVariant": "SK",
  "SeriesDescription": "func-bold_task-RDMmotion_run-03",
  "SeriesNumber": 11,
  "ShimSetting": [1769, -9091, 4399, 428, -70, -249, 43, 12],
  "SliceThickness": 2.4,
  "SliceTiming": [0.55, 0, 0.63, 0.08, 0.7075, 0.1575, 0.7875, 0.2375, 0.865, 0.315, 0.945, 0.395, 1.0225, 0.4725, 1.1025, 0.55, 0, 0.63, 0.08, 0.7075, 0.1575, 0.7875, 0.2375, 0.865, 0.315, 0.945, 0.395, 1.0225, 0.4725, 1.1025, 0.55, 0, 0.63, 0.08, 0.7075, 0.1575, 0.7875, 0.2375, 0.865, 0.315, 0.945, 0.395, 1.0225, 0.4725, 1.1025, 0.55, 0, 0.63, 0.08, 0.7075, 0.1575, 0.7875, 0.2375, 0.865, 0.315, 0.945, 0.395, 1.0225, 0.4725, 1.1025],
  "SoftwareVersions": "syngo_MR_E11",
  "SpacingBetweenSlices": 2.4,
  "StationName": "AWP67050",
  "TaskName": "RDMmotion",
  "TotalReadoutTime": 0.0504612,
  "TxRefAmp": 254.149,
  "dcmmeta_affine": [
    [-2.3943846225738525, -0.05057332664728165, 0.11612989753484726, 108.64788818359375],
    [-0.06971030682325363, 2.3615105152130127, -0.4096611440181732, -79.7043685913086],
    [0.10563502460718155, 0.4120757579803467, 2.3619253635406494, -80.73521423339844],
    [0.0, 0.0, 0.0, 1.0]
],
  "dcmmeta_reorient_transform": [
    [0.0, -1.0, 0.0, 87.0],
    [1.0, 0.0, 0.0, 0.0],
    [0.0, 0.0, 1.0, 0.0],
    [0.0, 0.0, 0.0, 1.0]
],
  "dcmmeta_shape": [88, 88, 60, 125],
  "dcmmeta_slice_dim": 2,
  "dcmmeta_version": 0.6,
  "global": {
    "const": {
      "AcquisitionMatrix": [88, 0, 0, 88],
      "AngioFlag": "N",
      "BitsAllocated": 16,
      "BitsStored": 12,
      "BodyPartExamined": "BRAIN",
      "Columns": 704,
      "DeidentificationMethodCodeSequence": [
        {
          "CodeMeaning": "XNAT DicomEdit 6 Script",
          "CodeValue": "3",
          "CodingSchemeDesignator": "XNAT",
          "CodingSchemeVersion": "1.0"}
],
      "EchoNumbers": 1,
      "EchoTime": 33.0,
      "EchoTrainLength": 88,
      "FlipAngle": 62.0,
      "HighBit": 11,
      "ImageOrientationPatient": [0.99860591488418, 0.0290734943836, 0.0440563126313, -0.0210921938825, 0.98489538727105, -0.1718609772154],
      "ImagePositionPatient": [-826.141881586, -874.56305525433, 49.499116829894],
      "ImageType": [
        "ORIGINAL",
        "PRIMARY",
        "M",
        "ND",
        "MOSAIC"
],
      "ImagedNucleus": "1H",
      "ImagingFrequency": 123.250708,
      "InPlanePhaseEncodingDirection": "COL",
      "MRAcquisitionType": "2D",
      "MagneticFieldStrength": 3.0,
      "Manufacturer": "SIEMENS",
      "ManufacturerModelName": "Prisma_fit",
      "Modality": "MR",
      "NumberOfAverages": 1.0,
      "NumberOfPhaseEncodingSteps": 88,
      "PercentPhaseFieldOfView": 100.0,
      "PercentSampling": 100.0,
      "PerformedProcedureStepStartTime": "151453.303000",
      "PhotometricInterpretation": "MONOCHROME2",
      "PixelBandwidth": 2185.0,
      "PixelRepresentation": 0,
      "PixelSpacing": [2.3977272510529, 2.3977272510529],
      "ProtocolName": "func-bold_task-RDMmotion_run-03",
      "RepetitionTime": 1200.0,
      "Rows": 704,
      "SAR": 0.06143510770898,
      "SamplesPerPixel": 1,
      "ScanOptions": "FS",
      "ScanningSequence": "EP",
      "SequenceName": "*epfid2d1_88",
      "SequenceVariant": "SK",
      "SeriesDescription": "func-bold_task-RDMmotion_run-03",
      "SeriesNumber": 11,
      "SeriesTime": "154726.215000",
      "SliceLocation": -60.592295046741,
      "SliceThickness": 2.4000000953674,
      "SmallestImagePixelValue": 0,
      "SoftwareVersions": "syngo MR E11",
      "SpacingBetweenSlices": 2.4000000129153,
      "SpecificCharacterSet": "ISO_IR 100",
      "StudyID": "1",
      "StudyTime": "151453.174000",
      "TransmitCoilName": "Body",
      "VariableFlipAngleFlag": "N",
      "WindowCenterWidthExplanation": "Algo1",
      "dBdt": 0.0},
    "slices": {}
  },
  "time": {
    "samples": {
      "AcquisitionNumber": [1, 2, 3, 4, 5, 6, 7, 8, 9, 10, 11, 12, 13, 14, 15, 16, 17, 18, 19, 20, 21, 22, 23, 24, 25, 26, 27, 28, 29, 30, 31, 32, 33, 34, 35, 36, 37, 38, 39, 40, 41, 42, 43, 44, 45, 46, 47, 48, 49, 50, 51, 52, 53, 54, 55, 56, 57, 58, 59, 60, 61, 62, 63, 64, 65, 66, 67, 68, 69, 70, 71, 72, 73, 74, 75, 76, 77, 78, 79, 80, 81, 82, 83, 84, 85, 86, 87, 88, 89, 90, 91, 92, 93, 94, 95, 96, 97, 98, 99, 100, 101, 102, 103, 104, 105, 106, 107, 108, 109, 110, 111, 112, 113, 114, 115, 116, 117, 118, 119, 120, 121, 122, 123, 124, 125],
      "AcquisitionTime": ["154717.035000", "154718.235000", "154719.435000", "154720.635000", "154721.835000", "154723.035000", "154724.235000", "154725.435000", "154726.635000", "154727.835000", "154729.035000", "154730.235000", "154731.435000", "154732.635000", "154733.835000", "154735.035000", "154736.235000", "154737.435000", "154738.635000", "154739.835000", "154741.035000", "154742.235000", "154743.435000", "154744.635000", "154745.835000", "154747.035000", "154748.235000", "154749.435000", "154750.635000", "154751.835000", "154753.035000", "154754.235000", "154755.435000", "154756.635000", "154757.835000", "154759.035000", "154800.235000", "154801.435000", "154802.635000", "154803.835000", "154805.035000", "154806.235000", "154807.435000", "154808.635000", "154809.835000", "154811.035000", "154812.235000", "154813.435000", "154814.635000", "154815.835000", "154817.035000", "154818.235000", "154819.435000", "154820.635000", "154821.835000", "154823.035000", "154824.235000", "154825.435000", "154826.635000", "154827.835000", "154829.035000", "154830.235000", "154831.435000", "154832.635000", "154833.835000", "154835.035000", "154836.235000", "154837.435000", "154838.635000", "154839.835000", "154841.035000", "154842.235000", "154843.435000", "154844.635000", "154845.835000", "154847.035000", "154848.235000", "154849.435000", "154850.635000", "154851.835000", "154853.035000", "154854.235000", "154855.435000", "154856.635000", "154857.835000", "154859.035000", "154900.235000", "154901.435000", "154902.635000", "154903.835000", "154905.035000", "154906.235000", "154907.435000", "154908.635000", "154909.835000", "154911.035000", "154912.235000", "154913.435000", "154914.635000", "154915.835000", "154917.035000", "154918.235000", "154919.435000", "154920.635000", "154921.835000", "154923.035000", "154924.235000", "154925.435000", "154926.635000", "154927.835000", "154929.035000", "154930.235000", "154931.435000", "154932.635000", "154933.835000", "154935.035000", "154936.235000", "154937.435000", "154938.635000", "154939.835000", "154941.035000", "154942.235000", "154943.435000", "154944.635000", "154945.835000"],
      "ContentTime": ["154726.218000", "154726.221000", "154726.224000", "154726.226000", "154726.229000", "154726.232000", "154726.234000", "154806.214000", "154806.227000", "154806.229000", "154806.232000", "154806.235000", "154806.237000", "154806.240000", "154806.243000", "154806.245000", "154806.248000", "154806.250000", "154806.253000", "154806.255000", "154806.258000", "154806.267000", "154806.270000", "154806.273000", "154806.275000", "154806.278000", "154806.281000", "154806.283000", "154806.286000", "154806.288000", "154806.291000", "154806.293000", "154806.296000", "154806.299000", "154806.301000", "154806.304000", "154806.306000", "154806.309000", "154806.312000", "154806.314000", "154846.213000", "154846.216000", "154846.219000", "154846.222000", "154846.224000", "154846.227000", "154846.230000", "154846.232000", "154846.235000", "154846.238000", "154846.240000", "154846.243000", "154846.245000", "154846.248000", "154846.251000", "154846.253000", "154846.260000", "154846.263000", "154846.266000", "154846.268000", "154846.271000", "154846.273000", "154846.276000", "154846.279000", "154846.281000", "154846.284000", "154846.287000", "154846.289000", "154846.292000", "154846.294000", "154846.297000", "154846.299000", "154846.302000", "154846.305000", "154926.214000", "154926.216000", "154926.219000", "154926.222000", "154926.224000", "154926.227000", "154926.230000", "154926.232000", "154926.235000", "154926.237000", "154926.240000", "154926.243000", "154926.245000", "154926.248000", "154926.250000", "154926.253000", "154926.256000", "154926.258000", "154926.261000", "154926.263000", "154926.266000", "154926.268000", "154926.271000", "154926.274000", "154926.276000", "154926.279000", "154926.282000", "154926.284000", "154926.287000", "154926.289000", "154926.308000", "154926.311000", "154926.313000", "154947.357000", "154947.360000", "154947.363000", "154947.366000", "154947.368000", "154947.371000", "154947.374000", "154947.377000", "154947.379000", "154947.382000", "154947.385000", "154947.388000", "154947.390000", "154947.393000", "154947.396000", "154947.399000", "154947.401000", "154947.408000"],
      "InstanceCreationTime": ["154726.218000", "154726.221000", "154726.224000", "154726.226000", "154726.229000", "154726.232000", "154726.234000", "154806.214000", "154806.227000", "154806.229000", "154806.232000", "154806.235000", "154806.237000", "154806.240000", "154806.243000", "154806.245000", "154806.248000", "154806.250000", "154806.253000", "154806.255000", "154806.258000", "154806.267000", "154806.270000", "154806.273000", "154806.275000", "154806.278000", "154806.281000", "154806.283000", "154806.286000", "154806.288000", "154806.291000", "154806.293000", "154806.296000", "154806.299000", "154806.301000", "154806.304000", "154806.306000", "154806.309000", "154806.312000", "154806.314000", "154846.213000", "154846.216000", "154846.219000", "154846.222000", "154846.224000", "154846.227000", "154846.230000", "154846.232000", "154846.235000", "154846.238000", "154846.240000", "154846.243000", "154846.245000", "154846.248000", "154846.251000", "154846.253000", "154846.260000", "154846.263000", "154846.266000", "154846.268000", "154846.271000", "154846.273000", "154846.276000", "154846.279000", "154846.281000", "154846.284000", "154846.287000", "154846.289000", "154846.292000", "154846.294000", "154846.297000", "154846.299000", "154846.302000", "154846.305000", "154926.214000", "154926.216000", "154926.219000", "154926.222000", "154926.224000", "154926.227000", "154926.230000", "154926.232000", "154926.235000", "154926.237000", "154926.240000", "154926.243000", "154926.245000", "154926.248000", "154926.250000", "154926.253000", "154926.256000", "154926.258000", "154926.261000", "154926.263000", "154926.266000", "154926.268000", "154926.271000", "154926.274000", "154926.276000", "154926.279000", "154926.282000", "154926.284000", "154926.287000", "154926.289000", "154926.308000", "154926.311000", "154926.313000", "154947.357000", "154947.360000", "154947.363000", "154947.366000", "154947.368000", "154947.371000", "154947.374000", "154947.377000", "154947.379000", "154947.382000", "154947.385000", "154947.388000", "154947.390000", "154947.393000", "154947.396000", "154947.399000", "154947.401000", "154947.408000"],
      "InstanceNumber": [1, 2, 3, 4, 5, 6, 7, 8, 9, 10, 11, 12, 13, 14, 15, 16, 17, 18, 19, 20, 21, 22, 23, 24, 25, 26, 27, 28, 29, 30, 31, 32, 33, 34, 35, 36, 37, 38, 39, 40, 41, 42, 43, 44, 45, 46, 47, 48, 49, 50, 51, 52, 53, 54, 55, 56, 57, 58, 59, 60, 61, 62, 63, 64, 65, 66, 67, 68, 69, 70, 71, 72, 73, 74, 75, 76, 77, 78, 79, 80, 81, 82, 83, 84, 85, 86, 87, 88, 89, 90, 91, 92, 93, 94, 95, 96, 97, 98, 99, 100, 101, 102, 103, 104, 105, 106, 107, 108, 109, 110, 111, 112, 113, 114, 115, 116, 117, 118, 119, 120, 121, 122, 123, 124, 125],
      "LargestImagePixelValue": [2438, 2383, 2351, 2328, 2307, 2307, 2323, 2329, 2327, 2319, 2322, 2311, 2306, 2326, 2318, 2319, 2313, 2310, 2315, 2324, 2323, 2332, 2320, 2328, 2306, 2318, 2340, 2329, 2322, 2295, 2314, 2335, 2336, 2331, 2326, 2330, 2328, 2335, 2301, 2315, 2295, 2347, 2324, 2311, 2316, 2315, 2320, 2312, 2314, 2314, 2311, 2307, 2313, 2306, 2299, 2304, 2312, 2304, 2301, 2322, 2309, 2286, 2312, 2316, 2305, 2294, 2326, 2318, 2335, 2333, 2333, 2298, 2301, 2298, 2299, 2314, 2309, 2293, 2313, 2297, 2316, 2316, 2266, 2280, 2320, 2335, 2347, 2342, 2331, 2315, 2308, 2310, 2330, 2349, 2351, 2337, 2346, 2330, 2327, 2308, 2284, 2317, 2309, 2270, 2304, 2299, 2270, 2314, 2301, 2296, 2307, 2300, 2324, 2310, 2327, 2324, 2310, 2328, 2327, 2290, 2263, 2287, 2267, 2248, 2267],
      "WindowCenter": [601.0, 596.0, 593.0, 591.0, 591.0, 592.0, 593.0, 593.0, 592.0, 592.0, 592.0, 591.0, 591.0, 591.0, 592.0, 593.0, 592.0, 591.0, 592.0, 592.0, 592.0, 592.0, 592.0, 591.0, 591.0, 592.0, 593.0, 592.0, 590.0, 590.0, 591.0, 592.0, 592.0, 592.0, 592.0, 594.0, 593.0, 593.0, 591.0, 592.0, 592.0, 594.0, 594.0, 593.0, 591.0, 591.0, 591.0, 591.0, 590.0, 590.0, 590.0, 589.0, 590.0, 590.0, 590.0, 591.0, 592.0, 592.0, 591.0, 591.0, 591.0, 591.0, 593.0, 592.0, 592.0, 591.0, 593.0, 593.0, 594.0, 595.0, 594.0, 593.0, 591.0, 593.0, 592.0, 591.0, 590.0, 591.0, 591.0, 592.0, 590.0, 590.0, 589.0, 590.0, 591.0, 593.0, 593.0, 593.0, 593.0, 592.0, 593.0, 595.0, 595.0, 597.0, 598.0, 599.0, 597.0, 596.0, 594.0, 593.0, 592.0, 592.0, 591.0, 590.0, 591.0, 592.0, 591.0, 593.0, 592.0, 592.0, 593.0, 593.0, 594.0, 595.0, 594.0, 595.0, 595.0, 594.0, 594.0, 593.0, 593.0, 592.0, 592.0, 592.0, 592.0],
      "WindowWidth": [1284.0, 1273.0, 1265.0, 1261.0, 1261.0, 1263.0, 1264.0, 1265.0, 1263.0, 1263.0, 1262.0, 1261.0, 1260.0, 1261.0, 1262.0, 1264.0, 1263.0, 1261.0, 1262.0, 1263.0, 1263.0, 1263.0, 1262.0, 1260.0, 1261.0, 1263.0, 1265.0, 1263.0, 1259.0, 1259.0, 1261.0, 1263.0, 1263.0, 1262.0, 1264.0, 1266.0, 1266.0, 1265.0, 1261.0, 1262.0, 1264.0, 1267.0, 1267.0, 1264.0, 1261.0, 1259.0, 1260.0, 1260.0, 1259.0, 1259.0, 1258.0, 1257.0, 1257.0, 1258.0, 1258.0, 1260.0, 1263.0, 1262.0, 1260.0, 1261.0, 1261.0, 1262.0, 1264.0, 1263.0, 1262.0, 1261.0, 1264.0, 1266.0, 1268.0, 1269.0, 1266.0, 1264.0, 1262.0, 1264.0, 1262.0, 1261.0, 1259.0, 1260.0, 1261.0, 1263.0, 1259.0, 1258.0, 1257.0, 1258.0, 1262.0, 1265.0, 1266.0, 1265.0, 1264.0, 1264.0, 1264.0, 1268.0, 1270.0, 1274.0, 1277.0, 1278.0, 1275.0, 1271.0, 1267.0, 1264.0, 1262.0, 1261.0, 1261.0, 1258.0, 1260.0, 1262.0, 1261.0, 1264.0, 1263.0, 1263.0, 1265.0, 1264.0, 1266.0, 1269.0, 1268.0, 1269.0, 1269.0, 1267.0, 1266.0, 1265.0, 1264.0, 1264.0, 1264.0, 1262.0, 1262.0]
    },
    "slices": {}
  }
}