{
  "AcquisitionMatrixPE": 88,
  "AcquisitionNumber": 1,
  "AcquisitionTime": "15:27:52.110000",
  "BandwidthPerPixelPhaseEncode": 19.592,
  "BaseResolution": 88,
  "BodyPartExamined": "BRAIN",
  "ConsistencyInfo": "N4_VE11C_LATEST_20160120",
  "ConversionSoftware": "dcm2niix",
  "ConversionSoftwareVersion": "v1.0.20190902",
  "DerivedVendorReportedEchoSpacing": 0.000580014,
  "DeviceSerialNumber": "67050",
  "DwellTime": 2.6e-06,
  "EchoTime": 0.033,
  "EchoTrainLength": 88,
  "EffectiveEchoSpacing": 0.000580014,
  "FlipAngle": 62,
  "ImageOrientationPatientDICOM": [0.99862, 0.00904778, 0.0517284, -0.0101093, 0.999743, 0.0202959],
  "ImageType": [
    "ORIGINAL",
    "PRIMARY",
    "M",
    "ND",
    "MOSAIC"
],
  "ImagingFrequency": 123.251,
  "InPlanePhaseEncodingDirectionDICOM": "COL",
  "InstitutionAddress": "Olive_Street_60_Providence_RI_US_02912",
  "InstitutionName": "BROWN_UNIVERSITY_MRF",
  "InstitutionalDepartmentName": "Department",
  "MRAcquisitionType": "2D",
  "MagneticFieldStrength": 3,
  "Manufacturer": "Siemens",
  "ManufacturersModelName": "Prisma_fit",
  "Modality": "MR",
  "MultibandAccelerationFactor": 4,
  "PartialFourier": 1,
  "PatientPosition": "HFS",
  "PercentPhaseFOV": 100,
  "PhaseEncodingDirection": "j-",
  "PhaseEncodingSteps": 88,
  "PhaseResolution": 1,
  "PixelBandwidth": 2185,
  "ProcedureStepDescription": "ASHENHAV_1222",
  "ProtocolName": "func-bold_task-RDMcolor_run-04",
  "PulseSequenceDetails": "%SiemensSeq%_ep2d_bold",
  "ReceiveCoilActiveElements": "HC1-7",
  "ReceiveCoilName": "HeadNeck_64",
  "ReconMatrixPE": 88,
  "RefLinesPE": 8,
  "RepetitionTime": 1.2,
  "SAR": 0.0609255,
  "ScanOptions": "FS",
  "ScanningSequence": "EP",
  "SequenceName": "_epfid2d1_88",
  "SequenceVariant": "SK",
  "SeriesDescription": "func-bold_task-RDMcolor_run-04",
  "SeriesNumber": 14,
  "ShimSetting": [1749, -9088, 4398, 530, -107, -81, 4, 1],
  "SliceThickness": 2.4,
  "SliceTiming": [0.55, 0, 0.6275, 0.0775, 0.7075, 0.155, 0.785, 0.235, 0.865, 0.3125, 0.9425, 0.3925, 1.0225, 0.47, 1.1, 0.55, 0, 0.6275, 0.0775, 0.7075, 0.155, 0.785, 0.235, 0.865, 0.3125, 0.9425, 0.3925, 1.0225, 0.47, 1.1, 0.55, 0, 0.6275, 0.0775, 0.7075, 0.155, 0.785, 0.235, 0.865, 0.3125, 0.9425, 0.3925, 1.0225, 0.47, 1.1, 0.55, 0, 0.6275, 0.0775, 0.7075, 0.155, 0.785, 0.235, 0.865, 0.3125, 0.9425, 0.3925, 1.0225, 0.47, 1.1],
  "SoftwareVersions": "syngo_MR_E11",
  "SpacingBetweenSlices": 2.4,
  "StationName": "AWP67050",
  "TaskName": "RDMcolor",
  "TotalReadoutTime": 0.0504612,
  "TxRefAmp": 219.808,
  "dcmmeta_affine": [
    [-2.394418954849243, -0.024239283055067062, 0.12367545068264008, 103.76765441894531],
    [-0.021694105118513107, 2.3971107006073, 0.04989797994494438, -98.03829193115234],
    [0.12403051555156708, -0.04866401478648186, 2.396291732788086, -71.09801483154297],
    [0.0, 0.0, 0.0, 1.0]
],
  "dcmmeta_reorient_transform": [
    [0.0, -1.0, 0.0, 87.0],
    [1.0, 0.0, 0.0, 0.0],
    [0.0, 0.0, 1.0, 0.0],
    [0.0, 0.0, 0.0, 1.0]
],
  "dcmmeta_shape": [88, 88, 60, 392],
  "dcmmeta_slice_dim": 2,
  "dcmmeta_version": 0.6,
  "global": {
    "const": {
      "AcquisitionMatrix": [88, 0, 0, 88],
      "AngioFlag": "N",
      "BitsAllocated": 16,
      "BitsStored": 12,
      "BodyPartExamined": "BRAIN",
      "Columns": 704,
      "DeidentificationMethodCodeSequence": [
        {
          "CodeMeaning": "XNAT DicomEdit 6 Script",
          "CodeValue": "3",
          "CodingSchemeDesignator": "XNAT",
          "CodingSchemeVersion": "1.0"}
],
      "EchoNumbers": 1,
      "EchoTime": 33.0,
      "EchoTrainLength": 88,
      "FlipAngle": 62.0,
      "HighBit": 11,
      "ImageOrientationPatient": [0.99862020487187, 0.00904777854967, 0.05172836866729, -0.0101092745987, 0.99974290659484, 0.02029589319042],
      "ImagePositionPatient": [-831.6741494726, -855.50226399141, -128.52169941983],
      "ImageType": [
        "ORIGINAL",
        "PRIMARY",
        "M",
        "ND",
        "MOSAIC"
],
      "ImagedNucleus": "1H",
      "ImagingFrequency": 123.250774,
      "InPlanePhaseEncodingDirection": "COL",
      "MRAcquisitionType": "2D",
      "MagneticFieldStrength": 3.0,
      "Manufacturer": "SIEMENS",
      "ManufacturerModelName": "Prisma_fit",
      "Modality": "MR",
      "NumberOfAverages": 1.0,
      "NumberOfPhaseEncodingSteps": 88,
      "PercentPhaseFieldOfView": 100.0,
      "PercentSampling": 100.0,
      "PerformedProcedureStepStartTime": "143433.499000",
      "PhotometricInterpretation": "MONOCHROME2",
      "PixelBandwidth": 2185.0,
      "PixelRepresentation": 0,
      "PixelSpacing": [2.3977272510529, 2.3977272510529],
      "ProtocolName": "func-bold_task-RDMcolor_run-04",
      "RepetitionTime": 1200.0,
      "Rows": 704,
      "SAR": 0.06092552331689,
      "SamplesPerPixel": 1,
      "ScanOptions": "FS",
      "ScanningSequence": "EP",
      "SequenceName": "*epfid2d1_88",
      "SequenceVariant": "SK",
      "SeriesDescription": "func-bold_task-RDMcolor_run-04",
      "SeriesNumber": 14,
      "SeriesTime": "152834.987000",
      "SliceLocation": -67.679162675399,
      "SliceThickness": 2.4000000953674,
      "SmallestImagePixelValue": 0,
      "SoftwareVersions": "syngo MR E11",
      "SpacingBetweenSlices": 2.3999999914005,
      "SpecificCharacterSet": "ISO_IR 100",
      "StudyID": "1",
      "StudyTime": "143433.413000",
      "TransmitCoilName": "Body",
      "VariableFlipAngleFlag": "N",
      "WindowCenterWidthExplanation": "Algo1",
      "dBdt": 0.0},
    "slices": {}
  },
  "time": {
    "samples": {
      "AcquisitionNumber": [1, 2, 3, 4, 5, 6, 7, 8, 9, 10, 11, 12, 13, 14, 15, 16, 17, 18, 19, 20, 21, 22, 23, 24, 25, 26, 27, 28, 29, 30, 31, 32, 33, 34, 35, 36, 37, 38, 39, 40, 41, 42, 43, 44, 45, 46, 47, 48, 49, 50, 51, 52, 53, 54, 55, 56, 57, 58, 59, 60, 61, 62, 63, 64, 65, 66, 67, 68, 69, 70, 71, 72, 73, 74, 75, 76, 77, 78, 79, 80, 81, 82, 83, 84, 85, 86, 87, 88, 89, 90, 91, 92, 93, 94, 95, 96, 97, 98, 99, 100, 101, 102, 103, 104, 105, 106, 107, 108, 109, 110, 111, 112, 113, 114, 115, 116, 117, 118, 119, 120, 121, 122, 123, 124, 125, 126, 127, 128, 129, 130, 131, 132, 133, 134, 135, 136, 137, 138, 139, 140, 141, 142, 143, 144, 145, 146, 147, 148, 149, 150, 151, 152, 153, 154, 155, 156, 157, 158, 159, 160, 161, 162, 163, 164, 165, 166, 167, 168, 169, 170, 171, 172, 173, 174, 175, 176, 177, 178, 179, 180, 181, 182, 183, 184, 185, 186, 187, 188, 189, 190, 191, 192, 193, 194, 195, 196, 197, 198, 199, 200, 201, 202, 203, 204, 205, 206, 207, 208, 209, 210, 211, 212, 213, 214, 215, 216, 217, 218, 219, 220, 221, 222, 223, 224, 225, 226, 227, 228, 229, 230, 231, 232, 233, 234, 235, 236, 237, 238, 239, 240, 241, 242, 243, 244, 245, 246, 247, 248, 249, 250, 251, 252, 253, 254, 255, 256, 257, 258, 259, 260, 261, 262, 263, 264, 265, 266, 267, 268, 269, 270, 271, 272, 273, 274, 275, 276, 277, 278, 279, 280, 281, 282, 283, 284, 285, 286, 287, 288, 289, 290, 291, 292, 293, 294, 295, 296, 297, 298, 299, 300, 301, 302, 303, 304, 305, 306, 307, 308, 309, 310, 311, 312, 313, 314, 315, 316, 317, 318, 319, 320, 321, 322, 323, 324, 325, 326, 327, 328, 329, 330, 331, 332, 333, 334, 335, 336, 337, 338, 339, 340, 341, 342, 343, 344, 345, 346, 347, 348, 349, 350, 351, 352, 353, 354, 355, 356, 357, 358, 359, 360, 361, 362, 363, 364, 365, 366, 367, 368, 369, 370, 371, 372, 373, 374, 375, 376, 377, 378, 379, 380, 381, 382, 383, 384, 385, 386, 387, 388, 389, 390, 391, 392],
      "AcquisitionTime": ["152752.110000", "152753.310000", "152754.510000", "152755.710000", "152756.910000", "152758.110000", "152759.310000", "152800.510000", "152801.710000", "152802.910000", "152804.110000", "152805.310000", "152806.510000", "152807.710000", "152808.910000", "152810.110000", "152811.310000", "152812.510000", "152813.710000", "152814.910000", "152816.110000", "152817.310000", "152818.510000", "152819.710000", "152820.910000", "152822.110000", "152823.310000", "152824.510000", "152825.710000", "152826.910000", "152828.110000", "152829.310000", "152830.510000", "152831.710000", "152832.910000", "152834.110000", "152835.310000", "152836.510000", "152837.710000", "152838.910000", "152840.110000", "152841.310000", "152842.510000", "152843.710000", "152844.910000", "152846.110000", "152847.310000", "152848.510000", "152849.710000", "152850.910000", "152852.110000", "152853.310000", "152854.510000", "152855.710000", "152856.910000", "152858.110000", "152859.310000", "152900.510000", "152901.710000", "152902.910000", "152904.110000", "152905.310000", "152906.510000", "152907.710000", "152908.910000", "152910.110000", "152911.310000", "152912.510000", "152913.710000", "152914.910000", "152916.110000", "152917.310000", "152918.510000", "152919.710000", "152920.910000", "152922.110000", "152923.310000", "152924.510000", "152925.710000", "152926.910000", "152928.110000", "152929.310000", "152930.510000", "152931.710000", "152932.910000", "152934.110000", "152935.310000", "152936.510000", "152937.710000", "152938.910000", "152940.110000", "152941.310000", "152942.510000", "152943.710000", "152944.910000", "152946.110000", "152947.310000", "152948.510000", "152949.710000", "152950.910000", "152952.110000", "152953.310000", "152954.510000", "152955.710000", "152956.910000", "152958.110000", "152959.310000", "153000.510000", "153001.710000", "153002.910000", "153004.110000", "153005.310000", "153006.510000", "153007.710000", "153008.910000", "153010.110000", "153011.310000", "153012.510000", "153013.710000", "153014.910000", "153016.110000", "153017.310000", "153018.510000", "153019.710000", "153020.910000", "153022.110000", "153023.310000", "153024.510000", "153025.710000", "153026.910000", "153028.110000", "153029.310000", "153030.510000", "153031.710000", "153032.910000", "153034.110000", "153035.310000", "153036.510000", "153037.710000", "153038.910000", "153040.110000", "153041.310000", "153042.510000", "153043.710000", "153044.910000", "153046.110000", "153047.310000", "153048.510000", "153049.710000", "153050.910000", "153052.110000", "153053.310000", "153054.510000", "153055.710000", "153056.910000", "153058.110000", "153059.310000", "153100.510000", "153101.710000", "153102.910000", "153104.110000", "153105.310000", "153106.510000", "153107.710000", "153108.910000", "153110.110000", "153111.310000", "153112.510000", "153113.710000", "153114.910000", "153116.110000", "153117.310000", "153118.510000", "153119.710000", "153120.910000", "153122.110000", "153123.310000", "153124.510000", "153125.710000", "153126.910000", "153128.110000", "153129.310000", "153130.510000", "153131.710000", "153132.910000", "153134.110000", "153135.310000", "153136.510000", "153137.710000", "153138.910000", "153140.110000", "153141.310000", "153142.510000", "153143.710000", "153144.910000", "153146.110000", "153147.310000", "153148.510000", "153149.710000", "153150.910000", "153152.110000", "153153.310000", "153154.510000", "153155.710000", "153156.910000", "153158.110000", "153159.310000", "153200.510000", "153201.710000", "153202.910000", "153204.110000", "153205.310000", "153206.510000", "153207.710000", "153208.910000", "153210.110000", "153211.310000", "153212.510000", "153213.710000", "153214.910000", "153216.110000", "153217.310000", "153218.510000", "153219.710000", "153220.910000", "153222.110000", "153223.310000", "153224.510000", "153225.710000", "153226.910000", "153228.110000", "153229.310000", "153230.510000", "153231.710000", "153232.910000", "153234.110000", "153235.310000", "153236.510000", "153237.710000", "153238.910000", "153240.110000", "153241.310000", "153242.510000", "153243.710000", "153244.910000", "153246.110000", "153247.310000", "153248.510000", "153249.710000", "153250.910000", "153252.110000", "153253.310000", "153254.510000", "153255.710000", "153256.910000", "153258.110000", "153259.310000", "153300.510000", "153301.710000", "153302.910000", "153304.110000", "153305.310000", "153306.510000", "153307.710000", "153308.910000", "153310.110000", "153311.310000", "153312.510000", "153313.710000", "153314.910000", "153316.110000", "153317.310000", "153318.510000", "153319.710000", "153320.910000", "153322.110000", "153323.310000", "153324.510000", "153325.710000", "153326.910000", "153328.110000", "153329.310000", "153330.510000", "153331.710000", "153332.910000", "153334.110000", "153335.310000", "153336.510000", "153337.710000", "153338.910000", "153340.110000", "153341.310000", "153342.510000", "153343.710000", "153344.910000", "153346.110000", "153347.310000", "153348.510000", "153349.710000", "153350.910000", "153352.110000", "153353.310000", "153354.510000", "153355.710000", "153356.910000", "153358.110000", "153359.310000", "153400.510000", "153401.710000", "153402.910000", "153404.110000", "153405.310000", "153406.510000", "153407.710000", "153408.910000", "153410.110000", "153411.310000", "153412.510000", "153413.710000", "153414.910000", "153416.110000", "153417.310000", "153418.510000", "153419.710000", "153420.910000", "153422.110000", "153423.310000", "153424.510000", "153425.710000", "153426.910000", "153428.110000", "153429.310000", "153430.510000", "153431.710000", "153432.910000", "153434.110000", "153435.310000", "153436.510000", "153437.710000", "153438.910000", "153440.110000", "153441.310000", "153442.510000", "153443.710000", "153444.910000", "153446.110000", "153447.310000", "153448.510000", "153449.710000", "153450.910000", "153452.110000", "153453.310000", "153454.510000", "153455.710000", "153456.910000", "153458.110000", "153459.310000", "153500.510000", "153501.710000", "153502.910000", "153504.110000", "153505.310000", "153506.510000", "153507.710000", "153508.910000", "153510.110000", "153511.310000", "153512.510000", "153513.710000", "153514.910000", "153516.110000", "153517.310000", "153518.510000", "153519.710000", "153520.910000", "153522.110000", "153523.310000", "153524.510000", "153525.710000", "153526.910000", "153528.110000", "153529.310000", "153530.510000", "153531.710000", "153532.910000", "153534.110000", "153535.310000", "153536.510000", "153537.710000", "153538.910000", "153540.110000", "153541.310000"],
      "ContentTime": ["152834.991000", "152834.994000", "152834.997000", "152835.000000", "152835.003000", "152835.005000", "152835.008000", "152835.010000", "152835.013000", "152835.016000", "152835.018000", "152835.021000", "152835.023000", "152835.026000", "152835.028000", "152835.031000", "152835.033000", "152835.036000", "152835.039000", "152835.041000", "152835.044000", "152835.046000", "152835.049000", "152835.056000", "152835.059000", "152835.061000", "152835.064000", "152835.067000", "152835.069000", "152835.072000", "152835.075000", "152835.077000", "152835.080000", "152835.082000", "152835.085000", "152914.986000", "152914.989000", "152914.992000", "152914.994000", "152914.997000", "152915.001000", "152915.003000", "152915.006000", "152915.008000", "152915.011000", "152915.013000", "152915.016000", "152915.019000", "152915.022000", "152915.024000", "152915.027000", "152915.029000", "152915.032000", "152915.043000", "152915.045000", "152915.048000", "152915.050000", "152915.053000", "152915.055000", "152915.058000", "152915.061000", "152915.063000", "152915.066000", "152915.068000", "152915.071000", "152915.074000", "152915.076000", "152915.079000", "152954.986000", "152954.989000", "152954.992000", "152954.995000", "152954.997000", "152955.001000", "152955.003000", "152955.006000", "152955.008000", "152955.011000", "152955.013000", "152955.016000", "152955.019000", "152955.021000", "152955.024000", "152955.026000", "152955.029000", "152955.032000", "152955.034000", "152955.037000", "152955.039000", "152955.042000", "152955.053000", "152955.056000", "152955.059000", "152955.061000", "152955.064000", "152955.066000", "152955.069000", "152955.071000", "152955.074000", "152955.077000", "152955.079000", "153034.986000", "153034.989000", "153034.992000", "153034.994000", "153034.997000", "153035.001000", "153035.003000", "153035.006000", "153035.008000", "153035.011000", "153035.014000", "153035.016000", "153035.019000", "153035.021000", "153035.024000", "153035.026000", "153035.029000", "153035.032000", "153035.034000", "153035.037000", "153035.039000", "153035.042000", "153035.044000", "153035.047000", "153035.050000", "153035.052000", "153035.055000", "153035.057000", "153035.060000", "153035.062000", "153035.065000", "153035.068000", "153035.070000", "153035.073000", "153114.987000", "153114.989000", "153114.992000", "153114.994000", "153114.997000", "153115.001000", "153115.003000", "153115.006000", "153115.008000", "153115.011000", "153115.013000", "153115.016000", "153115.019000", "153115.022000", "153115.024000", "153115.027000", "153115.029000", "153115.032000", "153115.034000", "153115.037000", "153115.040000", "153115.042000", "153115.045000", "153115.047000", "153115.050000", "153115.052000", "153115.055000", "153115.057000", "153115.060000", "153115.063000", "153115.065000", "153115.068000", "153115.070000", "153134.987000", "153134.990000", "153134.992000", "153134.995000", "153134.997000", "153135.001000", "153135.004000", "153135.006000", "153135.009000", "153135.011000", "153135.014000", "153135.017000", "153135.019000", "153135.022000", "153135.024000", "153135.038000", "153135.040000", "153214.987000", "153214.989000", "153214.992000", "153214.995000", "153214.997000", "153215.001000", "153215.003000", "153215.006000", "153215.009000", "153215.011000", "153215.014000", "153215.017000", "153215.020000", "153215.022000", "153215.025000", "153215.028000", "153215.030000", "153215.033000", "153215.036000", "153215.038000", "153215.041000", "153215.043000", "153215.046000", "153215.048000", "153215.051000", "153215.054000", "153215.057000", "153215.059000", "153215.062000", "153215.064000", "153215.067000", "153215.069000", "153215.072000", "153254.987000", "153254.989000", "153254.992000", "153254.994000", "153254.997000", "153255.000000", "153255.003000", "153255.006000", "153255.008000", "153255.011000", "153255.013000", "153255.016000", "153255.018000", "153255.021000", "153255.023000", "153255.026000", "153255.028000", "153255.031000", "153255.034000", "153255.036000", "153255.039000", "153255.041000", "153255.044000", "153255.046000", "153255.049000", "153255.051000", "153255.054000", "153255.056000", "153255.059000", "153255.061000", "153255.064000", "153255.066000", "153255.069000", "153334.987000", "153334.989000", "153334.992000", "153334.995000", "153334.997000", "153335.001000", "153335.003000", "153335.006000", "153335.008000", "153335.011000", "153335.013000", "153335.016000", "153335.019000", "153335.021000", "153335.024000", "153335.026000", "153335.029000", "153335.031000", "153335.034000", "153335.037000", "153335.039000", "153335.042000", "153335.044000", "153335.047000", "153335.049000", "153335.052000", "153335.054000", "153335.057000", "153335.059000", "153335.062000", "153335.065000", "153335.067000", "153335.070000", "153335.072000", "153414.987000", "153414.989000", "153414.992000", "153414.995000", "153414.997000", "153415.001000", "153415.003000", "153415.006000", "153415.008000", "153415.011000", "153415.014000", "153415.016000", "153415.019000", "153415.021000", "153415.024000", "153415.026000", "153415.029000", "153415.032000", "153415.034000", "153415.037000", "153415.039000", "153415.042000", "153415.045000", "153415.047000", "153415.050000", "153415.052000", "153415.055000", "153415.058000", "153415.060000", "153415.063000", "153415.065000", "153415.068000", "153415.071000", "153454.986000", "153454.989000", "153454.992000", "153454.994000", "153454.997000", "153455.000000", "153455.003000", "153455.006000", "153455.008000", "153455.011000", "153455.013000", "153455.016000", "153455.018000", "153455.021000", "153455.023000", "153455.026000", "153455.028000", "153455.031000", "153455.033000", "153455.036000", "153455.038000", "153455.041000", "153455.044000", "153455.046000", "153455.049000", "153455.051000", "153455.054000", "153455.056000", "153455.059000", "153455.062000", "153455.064000", "153455.067000", "153455.069000", "153534.987000", "153534.989000", "153534.992000", "153534.995000", "153534.997000", "153535.001000", "153535.003000", "153535.006000", "153535.008000", "153535.011000", "153535.017000", "153535.019000", "153535.022000", "153535.025000", "153535.027000", "153535.030000", "153535.044000", "153535.047000", "153535.050000", "153535.052000", "153535.055000", "153535.057000", "153535.060000", "153535.063000", "153535.065000", "153535.068000", "153535.071000", "153535.073000", "153535.076000", "153535.078000", "153535.081000", "153535.083000", "153535.086000", "153535.088000", "153543.170000", "153543.173000", "153543.176000", "153543.179000", "153543.182000", "153543.184000", "153543.187000"],
      "InstanceCreationTime": ["152834.991000", "152834.994000", "152834.997000", "152835.000000", "152835.003000", "152835.005000", "152835.008000", "152835.010000", "152835.013000", "152835.016000", "152835.018000", "152835.021000", "152835.023000", "152835.026000", "152835.028000", "152835.031000", "152835.033000", "152835.036000", "152835.039000", "152835.041000", "152835.044000", "152835.046000", "152835.049000", "152835.056000", "152835.059000", "152835.061000", "152835.064000", "152835.067000", "152835.069000", "152835.072000", "152835.075000", "152835.077000", "152835.080000", "152835.082000", "152835.085000", "152914.986000", "152914.989000", "152914.992000", "152914.994000", "152914.997000", "152915.001000", "152915.003000", "152915.006000", "152915.008000", "152915.011000", "152915.013000", "152915.016000", "152915.019000", "152915.022000", "152915.024000", "152915.027000", "152915.029000", "152915.032000", "152915.043000", "152915.045000", "152915.048000", "152915.050000", "152915.053000", "152915.055000", "152915.058000", "152915.061000", "152915.063000", "152915.066000", "152915.068000", "152915.071000", "152915.074000", "152915.076000", "152915.079000", "152954.986000", "152954.989000", "152954.992000", "152954.995000", "152954.997000", "152955.001000", "152955.003000", "152955.006000", "152955.008000", "152955.011000", "152955.013000", "152955.016000", "152955.019000", "152955.021000", "152955.024000", "152955.026000", "152955.029000", "152955.032000", "152955.034000", "152955.037000", "152955.039000", "152955.042000", "152955.053000", "152955.056000", "152955.059000", "152955.061000", "152955.064000", "152955.066000", "152955.069000", "152955.071000", "152955.074000", "152955.077000", "152955.079000", "153034.986000", "153034.989000", "153034.992000", "153034.994000", "153034.997000", "153035.001000", "153035.003000", "153035.006000", "153035.008000", "153035.011000", "153035.014000", "153035.016000", "153035.019000", "153035.021000", "153035.024000", "153035.026000", "153035.029000", "153035.032000", "153035.034000", "153035.037000", "153035.039000", "153035.042000", "153035.044000", "153035.047000", "153035.050000", "153035.052000", "153035.055000", "153035.057000", "153035.060000", "153035.062000", "153035.065000", "153035.068000", "153035.070000", "153035.073000", "153114.987000", "153114.989000", "153114.992000", "153114.994000", "153114.997000", "153115.001000", "153115.003000", "153115.006000", "153115.008000", "153115.011000", "153115.013000", "153115.016000", "153115.019000", "153115.022000", "153115.024000", "153115.027000", "153115.029000", "153115.032000", "153115.034000", "153115.037000", "153115.040000", "153115.042000", "153115.045000", "153115.047000", "153115.050000", "153115.052000", "153115.055000", "153115.057000", "153115.060000", "153115.063000", "153115.065000", "153115.068000", "153115.070000", "153134.987000", "153134.990000", "153134.992000", "153134.995000", "153134.997000", "153135.001000", "153135.004000", "153135.006000", "153135.009000", "153135.011000", "153135.014000", "153135.017000", "153135.019000", "153135.022000", "153135.024000", "153135.038000", "153135.040000", "153214.987000", "153214.989000", "153214.992000", "153214.995000", "153214.997000", "153215.001000", "153215.003000", "153215.006000", "153215.009000", "153215.011000", "153215.014000", "153215.017000", "153215.020000", "153215.022000", "153215.025000", "153215.028000", "153215.030000", "153215.033000", "153215.036000", "153215.038000", "153215.041000", "153215.043000", "153215.046000", "153215.048000", "153215.051000", "153215.054000", "153215.057000", "153215.059000", "153215.062000", "153215.064000", "153215.067000", "153215.069000", "153215.072000", "153254.987000", "153254.989000", "153254.992000", "153254.994000", "153254.997000", "153255.000000", "153255.003000", "153255.006000", "153255.008000", "153255.011000", "153255.013000", "153255.016000", "153255.018000", "153255.021000", "153255.023000", "153255.026000", "153255.028000", "153255.031000", "153255.034000", "153255.036000", "153255.039000", "153255.041000", "153255.044000", "153255.046000", "153255.049000", "153255.051000", "153255.054000", "153255.056000", "153255.059000", "153255.061000", "153255.064000", "153255.066000", "153255.069000", "153334.987000", "153334.989000", "153334.992000", "153334.995000", "153334.997000", "153335.001000", "153335.003000", "153335.006000", "153335.008000", "153335.011000", "153335.013000", "153335.016000", "153335.019000", "153335.021000", "153335.024000", "153335.026000", "153335.029000", "153335.031000", "153335.034000", "153335.037000", "153335.039000", "153335.042000", "153335.044000", "153335.047000", "153335.049000", "153335.052000", "153335.054000", "153335.057000", "153335.059000", "153335.062000", "153335.065000", "153335.067000", "153335.070000", "153335.072000", "153414.987000", "153414.989000", "153414.992000", "153414.995000", "153414.997000", "153415.001000", "153415.003000", "153415.006000", "153415.008000", "153415.011000", "153415.014000", "153415.016000", "153415.019000", "153415.021000", "153415.024000", "153415.026000", "153415.029000", "153415.032000", "153415.034000", "153415.037000", "153415.039000", "153415.042000", "153415.045000", "153415.047000", "153415.050000", "153415.052000", "153415.055000", "153415.058000", "153415.060000", "153415.063000", "153415.065000", "153415.068000", "153415.071000", "153454.986000", "153454.989000", "153454.992000", "153454.994000", "153454.997000", "153455.000000", "153455.003000", "153455.006000", "153455.008000", "153455.011000", "153455.013000", "153455.016000", "153455.018000", "153455.021000", "153455.023000", "153455.026000", "153455.028000", "153455.031000", "153455.033000", "153455.036000", "153455.038000", "153455.041000", "153455.044000", "153455.046000", "153455.049000", "153455.051000", "153455.054000", "153455.056000", "153455.059000", "153455.062000", "153455.064000", "153455.067000", "153455.069000", "153534.987000", "153534.989000", "153534.992000", "153534.995000", "153534.997000", "153535.001000", "153535.003000", "153535.006000", "153535.008000", "153535.011000", "153535.017000", "153535.019000", "153535.022000", "153535.025000", "153535.027000", "153535.030000", "153535.044000", "153535.047000", "153535.050000", "153535.052000", "153535.055000", "153535.057000", "153535.060000", "153535.063000", "153535.065000", "153535.068000", "153535.071000", "153535.073000", "153535.076000", "153535.078000", "153535.081000", "153535.083000", "153535.086000", "153535.088000", "153543.170000", "153543.173000", "153543.176000", "153543.179000", "153543.182000", "153543.184000", "153543.187000"],
      "InstanceNumber": [1, 2, 3, 4, 5, 6, 7, 8, 9, 10, 11, 12, 13, 14, 15, 16, 17, 18, 19, 20, 21, 22, 23, 24, 25, 26, 27, 28, 29, 30, 31, 32, 33, 34, 35, 36, 37, 38, 39, 40, 41, 42, 43, 44, 45, 46, 47, 48, 49, 50, 51, 52, 53, 54, 55, 56, 57, 58, 59, 60, 61, 62, 63, 64, 65, 66, 67, 68, 69, 70, 71, 72, 73, 74, 75, 76, 77, 78, 79, 80, 81, 82, 83, 84, 85, 86, 87, 88, 89, 90, 91, 92, 93, 94, 95, 96, 97, 98, 99, 100, 101, 102, 103, 104, 105, 106, 107, 108, 109, 110, 111, 112, 113, 114, 115, 116, 117, 118, 119, 120, 121, 122, 123, 124, 125, 126, 127, 128, 129, 130, 131, 132, 133, 134, 135, 136, 137, 138, 139, 140, 141, 142, 143, 144, 145, 146, 147, 148, 149, 150, 151, 152, 153, 154, 155, 156, 157, 158, 159, 160, 161, 162, 163, 164, 165, 166, 167, 168, 169, 170, 171, 172, 173, 174, 175, 176, 177, 178, 179, 180, 181, 182, 183, 184, 185, 186, 187, 188, 189, 190, 191, 192, 193, 194, 195, 196, 197, 198, 199, 200, 201, 202, 203, 204, 205, 206, 207, 208, 209, 210, 211, 212, 213, 214, 215, 216, 217, 218, 219, 220, 221, 222, 223, 224, 225, 226, 227, 228, 229, 230, 231, 232, 233, 234, 235, 236, 237, 238, 239, 240, 241, 242, 243, 244, 245, 246, 247, 248, 249, 250, 251, 252, 253, 254, 255, 256, 257, 258, 259, 260, 261, 262, 263, 264, 265, 266, 267, 268, 269, 270, 271, 272, 273, 274, 275, 276, 277, 278, 279, 280, 281, 282, 283, 284, 285, 286, 287, 288, 289, 290, 291, 292, 293, 294, 295, 296, 297, 298, 299, 300, 301, 302, 303, 304, 305, 306, 307, 308, 309, 310, 311, 312, 313, 314, 315, 316, 317, 318, 319, 320, 321, 322, 323, 324, 325, 326, 327, 328, 329, 330, 331, 332, 333, 334, 335, 336, 337, 338, 339, 340, 341, 342, 343, 344, 345, 346, 347, 348, 349, 350, 351, 352, 353, 354, 355, 356, 357, 358, 359, 360, 361, 362, 363, 364, 365, 366, 367, 368, 369, 370, 371, 372, 373, 374, 375, 376, 377, 378, 379, 380, 381, 382, 383, 384, 385, 386, 387, 388, 389, 390, 391, 392],
