{
  "AcquisitionMatrixPE": 88,
  "AcquisitionNumber": 1,
  "AcquisitionTime": "14:52:35.437500",
  "BandwidthPerPixelPhaseEncode": 19.592,
  "BaseResolution": 88,
  "BodyPartExamined": "BRAIN",
  "ConsistencyInfo": "N4_VE11C_LATEST_20160120",
  "ConversionSoftware": "dcm2niix",
  "ConversionSoftwareVersion": "v1.0.20190902",
  "DerivedVendorReportedEchoSpacing": 0.000580014,
  "DeviceSerialNumber": "67050",
  "DwellTime": 2.6e-06,
  "EchoTime": 0.033,
  "EchoTrainLength": 88,
  "EffectiveEchoSpacing": 0.000580014,
  "FlipAngle": 62,
  "ImageOrientationPatientDICOM": [0.99862, 0.00904778, 0.0517284, -0.0101093, 0.999743, 0.0202959],
  "ImageType": [
    "ORIGINAL",
    "PRIMARY",
    "M",
    "ND",
    "MOSAIC"
],
  "ImagingFrequency": 123.251,
  "InPlanePhaseEncodingDirectionDICOM": "COL",
  "InstitutionAddress": "Olive_Street_60_Providence_RI_US_02912",
  "InstitutionName": "BROWN_UNIVERSITY_MRF",
  "InstitutionalDepartmentName": "Department",
  "MRAcquisitionType": "2D",
  "MagneticFieldStrength": 3,
  "Manufacturer": "Siemens",
  "ManufacturersModelName": "Prisma_fit",
  "Modality": "MR",
  "MultibandAccelerationFactor": 4,
  "PartialFourier": 1,
  "PatientPosition": "HFS",
  "PercentPhaseFOV": 100,
  "PhaseEncodingDirection": "j-",
  "PhaseEncodingSteps": 88,
  "PhaseResolution": 1,
  "PixelBandwidth": 2185,
  "ProcedureStepDescription": "ASHENHAV_1222",
  "ProtocolName": "func-bold_task-RDMcolor_run-01",
  "PulseSequenceDetails": "%SiemensSeq%_ep2d_bold",
  "ReceiveCoilActiveElements": "HC1-7",
  "ReceiveCoilName": "HeadNeck_64",
  "ReconMatrixPE": 88,
  "RefLinesPE": 8,
  "RepetitionTime": 1.2,
  "SAR": 0.0609255,
  "ScanOptions": "FS",
  "ScanningSequence": "EP",
  "SequenceName": "_epfid2d1_88",
  "SequenceVariant": "SK",
  "SeriesDescription": "func-bold_task-RDMcolor_run-01",
  "SeriesNumber": 8,
  "ShimSetting": [1749, -9088, 4398, 530, -107, -81, 4, 1],
  "SliceThickness": 2.4,
  "SliceTiming": [0.55, 0, 0.6275, 0.0775, 0.7075, 0.1575, 0.785, 0.235, 0.865, 0.3125, 0.9425, 0.3925, 1.0225, 0.47, 1.1, 0.55, 0, 0.6275, 0.0775, 0.7075, 0.1575, 0.785, 0.235, 0.865, 0.3125, 0.9425, 0.3925, 1.0225, 0.47, 1.1, 0.55, 0, 0.6275, 0.0775, 0.7075, 0.1575, 0.785, 0.235, 0.865, 0.3125, 0.9425, 0.3925, 1.0225, 0.47, 1.1, 0.55, 0, 0.6275, 0.0775, 0.7075, 0.1575, 0.785, 0.235, 0.865, 0.3125, 0.9425, 0.3925, 1.0225, 0.47, 1.1],
  "SoftwareVersions": "syngo_MR_E11",
  "SpacingBetweenSlices": 2.4,
  "StationName": "AWP67050",
  "TaskName": "RDMcolor",
  "TotalReadoutTime": 0.0504612,
  "TxRefAmp": 219.808,
  "dcmmeta_affine": [
    [-2.394418954849243, -0.024239283055067062, 0.12367545068264008, 103.76765441894531],
    [-0.021694105118513107, 2.3971107006073, 0.04989797994494438, -98.03829193115234],
    [0.12403051555156708, -0.04866401478648186, 2.396291732788086, -71.09801483154297],
    [0.0, 0.0, 0.0, 1.0]
],
  "dcmmeta_reorient_transform": [
    [0.0, -1.0, 0.0, 87.0],
    [1.0, 0.0, 0.0, 0.0],
    [0.0, 0.0, 1.0, 0.0],
    [0.0, 0.0, 0.0, 1.0]
],
  "dcmmeta_shape": [88, 88, 60, 392],
  "dcmmeta_slice_dim": 2,
  "dcmmeta_version": 0.6,
  "global": {
    "const": {
      "AcquisitionMatrix": [88, 0, 0, 88],
      "AngioFlag": "N",
      "BitsAllocated": 16,
      "BitsStored": 12,
      "BodyPartExamined": "BRAIN",
      "Columns": 704,
      "DeidentificationMethodCodeSequence": [
        {
          "CodeMeaning": "XNAT DicomEdit 6 Script",
          "CodeValue": "3",
          "CodingSchemeDesignator": "XNAT",
          "CodingSchemeVersion": "1.0"}
],
      "EchoNumbers": 1,
      "EchoTime": 33.0,
      "EchoTrainLength": 88,
      "FlipAngle": 62.0,
      "HighBit": 11,
      "ImageOrientationPatient": [0.99862020487187, 0.00904777854967, 0.05172836866729, -0.0101092745987, 0.99974290659484, 0.02029589319042],
      "ImagePositionPatient": [-831.6741494726, -855.50226399141, -128.52169941983],
      "ImageType": [
        "ORIGINAL",
        "PRIMARY",
        "M",
        "ND",
        "MOSAIC"
],
      "ImagedNucleus": "1H",
      "ImagingFrequency": 123.250767,
      "InPlanePhaseEncodingDirection": "COL",
      "MRAcquisitionType": "2D",
      "MagneticFieldStrength": 3.0,
      "Manufacturer": "SIEMENS",
      "ManufacturerModelName": "Prisma_fit",
      "Modality": "MR",
      "NumberOfAverages": 1.0,
      "NumberOfPhaseEncodingSteps": 88,
      "PercentPhaseFieldOfView": 100.0,
      "PercentSampling": 100.0,
      "PerformedProcedureStepStartTime": "143433.499000",
      "PhotometricInterpretation": "MONOCHROME2",
      "PixelBandwidth": 2185.0,
      "PixelRepresentation": 0,
      "PixelSpacing": [2.3977272510529, 2.3977272510529],
      "ProtocolName": "func-bold_task-RDMcolor_run-01",
      "RepetitionTime": 1200.0,
      "Rows": 704,
      "SAR": 0.06092552331689,
      "SamplesPerPixel": 1,
      "ScanOptions": "FS",
      "ScanningSequence": "EP",
      "SequenceName": "*epfid2d1_88",
      "SequenceVariant": "SK",
      "SeriesDescription": "func-bold_task-RDMcolor_run-01",
      "SeriesNumber": 8,
      "SeriesTime": "145314.988000",
      "SliceLocation": -67.679162675399,
      "SliceThickness": 2.4000000953674,
      "SmallestImagePixelValue": 0,
      "SoftwareVersions": "syngo MR E11",
      "SpacingBetweenSlices": 2.3999999914005,
      "SpecificCharacterSet": "ISO_IR 100",
      "StudyID": "1",
      "StudyTime": "143433.413000",
      "TransmitCoilName": "Body",
      "VariableFlipAngleFlag": "N",
      "WindowCenterWidthExplanation": "Algo1",
      "dBdt": 0.0},
    "slices": {}
  },
  "time": {
    "samples": {
      "AcquisitionNumber": [1, 2, 3, 4, 5, 6, 7, 8, 9, 10, 11, 12, 13, 14, 15, 16, 17, 18, 19, 20, 21, 22, 23, 24, 25, 26, 27, 28, 29, 30, 31, 32, 33, 34, 35, 36, 37, 38, 39, 40, 41, 42, 43, 44, 45, 46, 47, 48, 49, 50, 51, 52, 53, 54, 55, 56, 57, 58, 59, 60, 61, 62, 63, 64, 65, 66, 67, 68, 69, 70, 71, 72, 73, 74, 75, 76, 77, 78, 79, 80, 81, 82, 83, 84, 85, 86, 87, 88, 89, 90, 91, 92, 93, 94, 95, 96, 97, 98, 99, 100, 101, 102, 103, 104, 105, 106, 107, 108, 109, 110, 111, 112, 113, 114, 115, 116, 117, 118, 119, 120, 121, 122, 123, 124, 125, 126, 127, 128, 129, 130, 131, 132, 133, 134, 135, 136, 137, 138, 139, 140, 141, 142, 143, 144, 145, 146, 147, 148, 149, 150, 151, 152, 153, 154, 155, 156, 157, 158, 159, 160, 161, 162, 163, 164, 165, 166, 167, 168, 169, 170, 171, 172, 173, 174, 175, 176, 177, 178, 179, 180, 181, 182, 183, 184, 185, 186, 187, 188, 189, 190, 191, 192, 193, 194, 195, 196, 197, 198, 199, 200, 201, 202, 203, 204, 205, 206, 207, 208, 209, 210, 211, 212, 213, 214, 215, 216, 217, 218, 219, 220, 221, 222, 223, 224, 225, 226, 227, 228, 229, 230, 231, 232, 233, 234, 235, 236, 237, 238, 239, 240, 241, 242, 243, 244, 245, 246, 247, 248, 249, 250, 251, 252, 253, 254, 255, 256, 257, 258, 259, 260, 261, 262, 263, 264, 265, 266, 267, 268, 269, 270, 271, 272, 273, 274, 275, 276, 277, 278, 279, 280, 281, 282, 283, 284, 285, 286, 287, 288, 289, 290, 291, 292, 293, 294, 295, 296, 297, 298, 299, 300, 301, 302, 303, 304, 305, 306, 307, 308, 309, 310, 311, 312, 313, 314, 315, 316, 317, 318, 319, 320, 321, 322, 323, 324, 325, 326, 327, 328, 329, 330, 331, 332, 333, 334, 335, 336, 337, 338, 339, 340, 341, 342, 343, 344, 345, 346, 347, 348, 349, 350, 351, 352, 353, 354, 355, 356, 357, 358, 359, 360, 361, 362, 363, 364, 365, 366, 367, 368, 369, 370, 371, 372, 373, 374, 375, 376, 377, 378, 379, 380, 381, 382, 383, 384, 385, 386, 387, 388, 389, 390, 391, 392],
      "AcquisitionTime": ["145235.437500", "145236.637500", "145237.837500", "145239.037500", "145240.237500", "145241.437500", "145242.637500", "145243.837500", "145245.037500", "145246.237500", "145247.437500", "145248.637500", "145249.837500", "145251.037500", "145252.237500", "145253.437500", "145254.637500", "145255.837500", "145257.037500", "145258.237500", "145259.437500", "145300.637500", "145301.837500", "145303.037500", "145304.237500", "145305.437500", "145306.637500", "145307.837500", "145309.037500", "145310.237500", "145311.437500", "145312.637500", "145313.837500", "145315.037500", "145316.237500", "145317.437500", "145318.637500", "145319.837500", "145321.037500", "145322.237500", "145323.437500", "145324.637500", "145325.837500", "145327.037500", "145328.237500", "145329.437500", "145330.637500", "145331.837500", "145333.037500", "145334.237500", "145335.437500", "145336.637500", "145337.837500", "145339.037500", "145340.237500", "145341.437500", "145342.637500", "145343.837500", "145345.037500", "145346.237500", "145347.437500", "145348.637500", "145349.837500", "145351.037500", "145352.237500", "145353.437500", "145354.637500", "145355.837500", "145357.037500", "145358.237500", "145359.437500", "145400.637500", "145401.837500", "145403.037500", "145404.237500", "145405.437500", "145406.637500", "145407.837500", "145409.037500", "145410.237500", "145411.437500", "145412.637500", "145413.837500", "145415.037500", "145416.237500", "145417.437500", "145418.637500", "145419.837500", "145421.037500", "145422.237500", "145423.437500", "145424.637500", "145425.837500", "145427.037500", "145428.237500", "145429.437500", "145430.637500", "145431.837500", "145433.037500", "145434.237500", "145435.437500", "145436.637500", "145437.837500", "145439.037500", "145440.237500", "145441.437500", "145442.637500", "145443.837500", "145445.037500", "145446.237500", "145447.437500", "145448.637500", "145449.837500", "145451.037500", "145452.237500", "145453.437500", "145454.637500", "145455.837500", "145457.037500", "145458.237500", "145459.437500", "145500.637500", "145501.837500", "145503.037500", "145504.237500", "145505.437500", "145506.637500", "145507.837500", "145509.037500", "145510.237500", "145511.437500", "145512.637500", "145513.837500", "145515.037500", "145516.237500", "145517.437500", "145518.637500", "145519.837500", "145521.037500", "145522.237500", "145523.437500", "145524.637500", "145525.837500", "145527.037500", "145528.237500", "145529.437500", "145530.637500", "145531.837500", "145533.037500", "145534.237500", "145535.437500", "145536.637500", "145537.837500", "145539.037500", "145540.237500", "145541.437500", "145542.637500", "145543.837500", "145545.037500", "145546.237500", "145547.437500", "145548.637500", "145549.837500", "145551.037500", "145552.237500", "145553.437500", "145554.637500", "145555.837500", "145557.037500", "145558.237500", "145559.437500", "145600.637500", "145601.837500", "145603.037500", "145604.237500", "145605.437500", "145606.637500", "145607.837500", "145609.037500", "145610.237500", "145611.437500", "145612.637500", "145613.837500", "145615.037500", "145616.237500", "145617.437500", "145618.637500", "145619.837500", "145621.037500", "145622.237500", "145623.437500", "145624.637500", "145625.837500", "145627.037500", "145628.237500", "145629.437500", "145630.637500", "145631.837500", "145633.037500", "145634.237500", "145635.437500", "145636.637500", "145637.837500", "145639.037500", "145640.237500", "145641.437500", "145642.637500", "145643.837500", "145645.037500", "145646.237500", "145647.437500", "145648.637500", "145649.837500", "145651.037500", "145652.237500", "145653.437500", "145654.637500", "145655.837500", "145657.037500", "145658.237500", "145659.437500", "145700.637500", "145701.837500", "145703.037500", "145704.237500", "145705.437500", "145706.637500", "145707.837500", "145709.037500", "145710.237500", "145711.437500", "145712.637500", "145713.837500", "145715.037500", "145716.237500", "145717.437500", "145718.637500", "145719.837500", "145721.037500", "145722.237500", "145723.437500", "145724.637500", "145725.837500", "145727.037500", "145728.237500", "145729.437500", "145730.637500", "145731.837500", "145733.037500", "145734.237500", "145735.437500", "145736.637500", "145737.837500", "145739.037500", "145740.237500", "145741.437500", "145742.637500", "145743.837500", "145745.037500", "145746.237500", "145747.437500", "145748.637500", "145749.837500", "145751.037500", "145752.237500", "145753.437500", "145754.637500", "145755.837500", "145757.037500", "145758.237500", "145759.437500", "145800.637500", "145801.837500", "145803.037500", "145804.237500", "145805.437500", "145806.637500", "145807.837500", "145809.037500", "145810.237500", "145811.437500", "145812.637500", "145813.837500", "145815.037500", "145816.237500", "145817.437500", "145818.637500", "145819.837500", "145821.037500", "145822.237500", "145823.437500", "145824.637500", "145825.837500", "145827.037500", "145828.237500", "145829.437500", "145830.637500", "145831.837500", "145833.037500", "145834.237500", "145835.437500", "145836.637500", "145837.837500", "145839.037500", "145840.237500", "145841.437500", "145842.637500", "145843.837500", "145845.037500", "145846.237500", "145847.437500", "145848.637500", "145849.837500", "145851.037500", "145852.237500", "145853.437500", "145854.637500", "145855.837500", "145857.037500", "145858.237500", "145859.437500", "145900.637500", "145901.837500", "145903.037500", "145904.237500", "145905.437500", "145906.637500", "145907.837500", "145909.037500", "145910.237500", "145911.437500", "145912.637500", "145913.837500", "145915.037500", "145916.237500", "145917.437500", "145918.637500", "145919.837500", "145921.037500", "145922.237500", "145923.437500", "145924.637500", "145925.837500", "145927.037500", "145928.237500", "145929.437500", "145930.637500", "145931.837500", "145933.037500", "145934.237500", "145935.437500", "145936.637500", "145937.837500", "145939.037500", "145940.237500", "145941.437500", "145942.637500", "145943.837500", "145945.037500", "145946.237500", "145947.437500", "145948.637500", "145949.837500", "145951.037500", "145952.237500", "145953.437500", "145954.637500", "145955.837500", "145957.037500", "145958.237500", "145959.437500", "150000.637500", "150001.837500", "150003.037500", "150004.237500", "150005.437500", "150006.637500", "150007.837500", "150009.037500", "150010.237500", "150011.437500", "150012.637500", "150013.837500", "150015.037500", "150016.237500", "150017.437500", "150018.637500", "150019.837500", "150021.037500", "150022.237500", "150023.437500", "150024.637500"],
      "ContentTime": ["145314.991000", "145314.995000", "145314.997000", "145315.001000", "145315.004000", "145315.012000", "145315.015000", "145315.017000", "145315.020000", "145315.022000", "145315.025000", "145315.027000", "145315.030000", "145315.033000", "145315.035000", "145315.038000", "145315.040000", "145315.043000", "145315.045000", "145315.048000", "145315.050000", "145315.053000", "145315.060000", "145315.063000", "145315.066000", "145315.068000", "145315.071000", "145315.073000", "145315.076000", "145315.078000", "145315.083000", "145315.085000", "145354.987000", "145354.989000", "145354.992000", "145354.994000", "145354.997000", "145355.001000", "145355.004000", "145355.006000", "145355.009000", "145355.013000", "145355.015000", "145355.018000", "145355.021000", "145355.024000", "145355.026000", "145355.029000", "145355.032000", "145355.034000", "145355.037000", "145355.039000", "145355.042000", "145355.045000", "145355.047000", "145355.050000", "145355.052000", "145355.055000", "145355.057000", "145355.066000", "145355.069000", "145355.071000", "145355.074000", "145355.077000", "145355.079000", "145434.986000", "145434.989000", "145434.992000", "145434.994000", "145434.997000", "145434.999000", "145435.002000", "145435.005000", "145435.007000", "145435.010000", "145435.012000", "145435.015000", "145435.018000", "145435.026000", "145435.029000", "145435.031000", "145435.034000", "145435.037000", "145435.039000", "145435.042000", "145435.044000", "145435.047000", "145435.049000", "145435.052000", "145435.054000", "145435.057000", "145435.080000", "145435.082000", "145435.085000", "145435.087000", "145435.090000", "145435.092000", "145435.095000", "145435.098000", "145514.986000", "145514.989000", "145514.992000", "145514.994000", "145514.997000", "145515.001000", "145515.003000", "145515.006000", "145515.008000", "145515.011000", "145515.014000", "145515.016000", "145515.019000", "145515.021000", "145515.024000", "145515.027000", "145515.029000", "145515.032000", "145515.034000", "145515.037000", "145515.039000", "145515.042000", "145515.044000", "145515.047000", "145515.050000", "145515.052000", "145515.055000", "145515.057000", "145515.060000", "145515.062000", "145515.065000", "145515.068000", "145515.070000", "145554.986000", "145554.989000", "145554.992000", "145554.994000", "145554.997000", "145555.001000", "145555.003000", "145555.006000", "145555.008000", "145555.011000", "145555.013000", "145555.016000", "145555.019000", "145555.022000", "145555.025000", "145555.028000", "145555.031000", "145555.033000", "145555.037000", "145555.039000", "145555.042000", "145555.045000", "145555.047000", "145555.050000", "145555.053000", "145555.055000", "145555.058000", "145555.060000", "145555.063000", "145555.066000", "145555.068000", "145555.071000", "145555.073000", "145634.987000", "145634.989000", "145634.992000", "145634.995000", "145634.997000", "145635.001000", "145635.003000", "145635.006000", "145635.009000", "145635.011000", "145635.014000", "145635.016000", "145635.019000", "145635.021000", "145635.024000", "145635.026000", "145635.030000", "145635.032000", "145635.044000", "145635.046000", "145635.049000", "145635.051000", "145635.054000", "145635.057000", "145635.059000", "145635.062000", "145635.064000", "145635.067000", "145635.069000", "145635.072000", "145635.074000", "145635.077000", "145635.080000", "145635.082000", "145714.987000", "145714.989000", "145714.992000", "145714.995000", "145714.997000", "145715.001000", "145715.003000", "145715.006000", "145715.008000", "145715.011000", "145715.013000", "145715.021000", "145715.023000", "145715.026000", "145715.029000", "145715.032000", "145715.034000", "145715.037000", "145715.039000", "145715.042000", "145715.044000", "145715.047000", "145715.050000", "145715.052000", "145715.055000", "145715.057000", "145715.060000", "145715.063000", "145715.065000", "145715.068000", "145715.070000", "145715.073000", "145715.075000", "145754.986000", "145754.989000", "145754.992000", "145754.994000", "145754.997000", "145755.001000", "145755.011000", "145755.013000", "145755.016000", "145755.019000", "145755.021000", "145755.024000", "145755.027000", "145755.030000", "145755.033000", "145755.036000", "145755.039000", "145755.041000", "145755.044000", "145755.047000", "145755.050000", "145755.052000", "145755.055000", "145755.057000", "145755.060000", "145755.062000", "145755.065000", "145755.068000", "145755.070000", "145755.073000", "145755.075000", "145755.078000", "145755.081000", "145834.986000", "145834.989000", "145834.992000", "145834.994000", "145834.997000", "145835.000000", "145835.003000", "145835.005000", "145835.008000", "145835.010000", "145835.013000", "145835.016000", "145835.018000", "145835.021000", "145835.024000", "145835.026000", "145835.029000", "145835.031000", "145835.034000", "145835.036000", "145835.039000", "145835.042000", "145835.044000", "145835.063000", "145835.065000", "145835.068000", "145835.071000", "145835.073000", "145835.076000", "145835.078000", "145835.081000", "145835.083000", "145835.086000", "145835.088000", "145914.987000", "145914.990000", "145914.992000", "145914.995000", "145914.998000", "145915.001000", "145915.004000", "145915.006000", "145915.009000", "145915.011000", "145915.014000", "145915.016000", "145915.019000", "145915.022000", "145915.024000", "145915.027000", "145915.029000", "145915.032000", "145915.035000", "145915.037000", "145915.040000", "145915.042000", "145915.045000", "145915.047000", "145915.050000", "145915.052000", "145915.055000", "145915.058000", "145915.060000", "145915.063000", "145915.065000", "145915.068000", "145915.070000", "145954.987000", "145954.990000", "145954.992000", "145954.995000", "145954.997000", "145955.001000", "145955.004000", "145955.006000", "145955.009000", "145955.011000", "145955.014000", "145955.017000", "145955.019000", "145955.022000", "145955.024000", "145955.027000", "145955.030000", "145955.032000", "145955.035000", "145955.038000", "145955.040000", "145955.043000", "145955.046000", "145955.048000", "145955.051000", "145955.053000", "145955.056000", "145955.058000", "145955.061000", "145955.064000", "145955.067000", "145955.070000", "145955.073000", "150026.312000", "150026.320000", "150026.322000", "150026.325000", "150026.328000", "150026.330000", "150026.333000", "150026.335000", "150026.338000", "150026.340000", "150026.343000", "150026.346000", "150026.348000", "150026.351000", "150026.353000", "150026.356000", "150026.367000", "150026.369000", "150026.372000", "150026.375000", "150026.380000", "150026.382000", "150026.392000", "150026.394000", "150026.397000", "150026.400000", "150026.403000"],
      "InstanceCreationTime": ["145314.991000", "145314.995000", "145314.997000", "145315.001000", "145315.004000", "145315.012000", "145315.015000", "145315.017000", "145315.020000", "145315.022000", "145315.025000", "145315.027000", "145315.030000", "145315.033000", "145315.035000", "145315.038000", "145315.040000", "145315.043000", "145315.045000", "145315.048000", "145315.050000", "145315.053000", "145315.060000", "145315.063000", "145315.066000", "145315.068000", "145315.071000", "145315.073000", "145315.076000", "145315.078000", "145315.083000", "145315.085000", "145354.987000", "145354.989000", "145354.992000", "145354.994000", "145354.997000", "145355.001000", "145355.004000", "145355.006000", "145355.009000", "145355.013000", "145355.015000", "145355.018000", "145355.021000", "145355.024000", "145355.026000", "145355.029000", "145355.032000", "145355.034000", "145355.037000", "145355.039000", "145355.042000", "145355.045000", "145355.047000", "145355.050000", "145355.052000", "145355.055000", "145355.057000", "145355.066000", "145355.069000", "145355.071000", "145355.074000", "145355.077000", "145355.079000", "145434.986000", "145434.989000", "145434.992000", "145434.994000", "145434.997000", "145434.999000", "145435.002000", "145435.005000", "145435.007000", "145435.010000", "145435.012000", "145435.015000", "145435.018000", "145435.026000", "145435.029000", "145435.031000", "145435.034000", "145435.037000", "145435.039000", "145435.042000", "145435.044000", "145435.047000", "145435.049000", "145435.052000", "145435.054000", "145435.057000", "145435.080000", "145435.082000", "145435.085000", "145435.087000", "145435.090000", "145435.092000", "145435.095000", "145435.098000", "145514.986000", "145514.989000", "145514.992000", "145514.994000", "145514.997000", "145515.001000", "145515.003000", "145515.006000", "145515.008000", "145515.011000", "145515.014000", "145515.016000", "145515.019000", "145515.021000", "145515.024000", "145515.027000", "145515.029000", "145515.032000", "145515.034000", "145515.037000", "145515.039000", "145515.042000", "145515.044000", "145515.047000", "145515.050000", "145515.052000", "145515.055000", "145515.057000", "145515.060000", "145515.062000", "145515.065000", "145515.068000", "145515.070000", "145554.986000", "145554.989000", "145554.992000", "145554.994000", "145554.997000", "145555.001000", "145555.003000", "145555.006000", "145555.008000", "145555.011000", "145555.013000", "145555.016000", "145555.019000", "145555.022000", "145555.025000", "145555.028000", "145555.031000", "145555.033000", "145555.037000", "145555.039000", "145555.042000", "145555.045000", "145555.047000", "145555.050000", "145555.053000", "145555.055000", "145555.058000", "145555.060000", "145555.063000", "145555.066000", "145555.068000", "145555.071000", "145555.073000", "145634.987000", "145634.989000", "145634.992000", "145634.995000", "145634.997000", "145635.001000", "145635.003000", "145635.006000", "145635.009000", "145635.011000", "145635.014000", "145635.016000", "145635.019000", "145635.021000", "145635.024000", "145635.026000", "145635.030000", "145635.032000", "145635.044000", "145635.046000", "145635.049000", "145635.051000", "145635.054000", "145635.057000", "145635.059000", "145635.062000", "145635.064000", "145635.067000", "145635.069000", "145635.072000", "145635.074000", "145635.077000", "145635.080000", "145635.082000", "145714.987000", "145714.989000", "145714.992000", "145714.995000", "145714.997000", "145715.001000", "145715.003000", "145715.006000", "145715.008000", "145715.011000", "145715.013000", "145715.021000", "145715.023000", "145715.026000", "145715.029000", "145715.032000", "145715.034000", "145715.037000", "145715.039000", "145715.042000", "145715.044000", "145715.047000", "145715.050000", "145715.052000", "145715.055000", "145715.057000", "145715.060000", "145715.063000", "145715.065000", "145715.068000", "145715.070000", "145715.073000", "145715.075000", "145754.986000", "145754.989000", "145754.992000", "145754.994000", "145754.997000", "145755.001000", "145755.011000", "145755.013000", "145755.016000", "145755.019000", "145755.021000", "145755.024000", "145755.027000", "145755.030000", "145755.033000", "145755.036000", "145755.039000", "145755.041000", "145755.044000", "145755.047000", "145755.050000", "145755.052000", "145755.055000", "145755.057000", "145755.060000", "145755.062000", "145755.065000", "145755.068000", "145755.070000", "145755.073000", "145755.075000", "145755.078000", "145755.081000", "145834.986000", "145834.989000", "145834.992000", "145834.994000", "145834.997000", "145835.000000", "145835.003000", "145835.005000", "145835.008000", "145835.010000", "145835.013000", "145835.016000", "145835.018000", "145835.021000", "145835.024000", "145835.026000", "145835.029000", "145835.031000", "145835.034000", "145835.036000", "145835.039000", "145835.042000", "145835.044000", "145835.063000", "145835.065000", "145835.068000", "145835.071000", "145835.073000", "145835.076000", "145835.078000", "145835.081000", "145835.083000", "145835.086000", "145835.088000", "145914.987000", "145914.990000", "145914.992000", "145914.995000", "145914.998000", "145915.001000", "145915.004000", "145915.006000", "145915.009000", "145915.011000", "145915.014000", "145915.016000", "145915.019000", "145915.022000", "145915.024000", "145915.027000", "145915.029000", "145915.032000", "145915.035000", "145915.037000", "145915.040000", "145915.042000", "145915.045000", "145915.047000", "145915.050000", "145915.052000", "145915.055000", "145915.058000", "145915.060000", "145915.063000", "145915.065000", "145915.068000", "145915.070000", "145954.987000", "145954.990000", "145954.992000", "145954.995000", "145954.997000", "145955.001000", "145955.004000", "145955.006000", "145955.009000", "145955.011000", "145955.014000", "145955.017000", "145955.019000", "145955.022000", "145955.024000", "145955.027000", "145955.030000", "145955.032000", "145955.035000", "145955.038000", "145955.040000", "145955.043000", "145955.046000", "145955.048000", "145955.051000", "145955.053000", "145955.056000", "145955.058000", "145955.061000", "145955.064000", "145955.067000", "145955.070000", "145955.073000", "150026.312000", "150026.320000", "150026.322000", "150026.325000", "150026.328000", "150026.330000", "150026.333000", "150026.335000", "150026.338000", "150026.340000", "150026.343000", "150026.346000", "150026.348000", "150026.351000", "150026.353000", "150026.356000", "150026.367000", "150026.369000", "150026.372000", "150026.375000", "150026.380000", "150026.382000", "150026.392000", "150026.394000", "150026.397000", "150026.400000", "150026.403000"],
      "InstanceNumber": [1, 2, 3, 4, 5, 6, 7, 8, 9, 10, 11, 12, 13, 14, 15, 16, 17, 18, 19, 20, 21, 22, 23, 24, 25, 26, 27, 28, 29, 30, 31, 32, 33, 34, 35, 36, 37, 38, 39, 40, 41, 42, 43, 44, 45, 46, 47, 48, 49, 50, 51, 52, 53, 54, 55, 56, 57, 58, 59, 60, 61, 62, 63, 64, 65, 66, 67, 68, 69, 70, 71, 72, 73, 74, 75, 76, 77, 78, 79, 80, 81, 82, 83, 84, 85, 86, 87, 88, 89, 90, 91, 92, 93, 94, 95, 96, 97, 98, 99, 100, 101, 102, 103, 104, 105, 106, 107, 108, 109, 110, 111, 112, 113, 114, 115, 116, 117, 118, 119, 120, 121, 122, 123, 124, 125, 126, 127, 128, 129, 130, 131, 132, 133, 134, 135, 136, 137, 138, 139, 140, 141, 142, 143, 144, 145, 146, 147, 148, 149, 150, 151, 152, 153, 154, 155, 156, 157, 158, 159, 160, 161, 162, 163, 164, 165, 166, 167, 168, 169, 170, 171, 172, 173, 174, 175, 176, 177, 178, 179, 180, 181, 182, 183, 184, 185, 186, 187, 188, 189, 190, 191, 192, 193, 194, 195, 196, 197, 198, 199, 200, 201, 202, 203, 204, 205, 206, 207, 208, 209, 210, 211, 212, 213, 214, 215, 216, 217, 218, 219, 220, 221, 222, 223, 224, 225, 226, 227, 228, 229, 230, 231, 232, 233, 234, 235, 236, 237, 238, 239, 240, 241, 242, 243, 244, 245, 246, 247, 248, 249, 250, 251, 252, 253, 254, 255, 256, 257, 258, 259, 260, 261, 262, 263, 264, 265, 266, 267, 268, 269, 270, 271, 272, 273, 274, 275, 276, 277, 278, 279, 280, 281, 282, 283, 284, 285, 286, 287, 288, 289, 290, 291, 292, 293, 294, 295, 296, 297, 298, 299, 300, 301, 302, 303, 304, 305, 306, 307, 308, 309, 310, 311, 312, 313, 314, 315, 316, 317, 318, 319, 320, 321, 322, 323, 324, 325, 326, 327, 328, 329, 330, 331, 332, 333, 334, 335, 336, 337, 338, 339, 340, 341, 342, 343, 344, 345, 346, 347, 348, 349, 350, 351, 352, 353, 354, 355, 356, 357, 358, 359, 360, 361, 362, 363, 364, 365, 366, 367, 368, 369, 370, 371, 372, 373, 374, 375, 376, 377, 378, 379, 380, 381, 382, 383, 384, 385, 386, 387, 388, 389, 390, 391, 392],
