{
  "AcquisitionMatrixPE": 88,
  "AcquisitionNumber": 1,
  "AcquisitionTime": "15:48:24.850000",
  "BandwidthPerPixelPhaseEncode": 19.592,
  "BaseResolution": 88,
  "BodyPartExamined": "BRAIN",
  "ConsistencyInfo": "N4_VE11C_LATEST_20160120",
  "ConversionSoftware": "dcm2niix",
  "ConversionSoftwareVersion": "v1.0.20190902",
  "DerivedVendorReportedEchoSpacing": 0.000580014,
  "DeviceSerialNumber": "67050",
  "DwellTime": 2.6e-06,
  "EchoTime": 0.033,
  "EchoTrainLength": 88,
  "EffectiveEchoSpacing": 0.000580014,
  "FlipAngle": 62,
  "ImageOrientationPatientDICOM": [0.99862, 0.00904778, 0.0517284, -0.0101093, 0.999743, 0.0202959],
  "ImageType": [
    "ORIGINAL",
    "PRIMARY",
    "M",
    "ND",
    "MOSAIC"
],
  "ImagingFrequency": 123.251,
  "InPlanePhaseEncodingDirectionDICOM": "COL",
  "InstitutionAddress": "Olive_Street_60_Providence_RI_US_02912",
  "InstitutionName": "BROWN_UNIVERSITY_MRF",
  "InstitutionalDepartmentName": "Department",
  "MRAcquisitionType": "2D",
  "MagneticFieldStrength": 3,
  "Manufacturer": "Siemens",
  "ManufacturersModelName": "Prisma_fit",
  "Modality": "MR",
  "MultibandAccelerationFactor": 4,
  "PartialFourier": 1,
  "PatientPosition": "HFS",
  "PercentPhaseFOV": 100,
  "PhaseEncodingDirection": "j-",
  "PhaseEncodingSteps": 88,
  "PhaseResolution": 1,
  "PixelBandwidth": 2185,
  "ProcedureStepDescription": "ASHENHAV_1222",
  "ProtocolName": "func-bold_task-RDMmotion_run-06",
  "PulseSequenceDetails": "%SiemensSeq%_ep2d_bold",
  "ReceiveCoilActiveElements": "HC1-7",
  "ReceiveCoilName": "HeadNeck_64",
  "ReconMatrixPE": 88,
  "RefLinesPE": 8,
  "RepetitionTime": 1.2,
  "SAR": 0.0603071,
  "ScanOptions": "FS",
  "ScanningSequence": "EP",
  "SequenceName": "_epfid2d1_88",
  "SequenceVariant": "SK",
  "SeriesDescription": "func-bold_task-RDMmotion_run-06",
  "SeriesNumber": 17,
  "ShimSetting": [1749, -9088, 4398, 530, -107, -81, 4, 1],
  "SliceThickness": 2.4,
  "SliceTiming": [0.5525, 0, 0.63, 0.08, 0.71, 0.1575, 0.7875, 0.2375, 0.865, 0.315, 0.945, 0.395, 1.0225, 0.4725, 1.1025, 0.5525, 0, 0.63, 0.08, 0.71, 0.1575, 0.7875, 0.2375, 0.865, 0.315, 0.945, 0.395, 1.0225, 0.4725, 1.1025, 0.5525, 0, 0.63, 0.08, 0.71, 0.1575, 0.7875, 0.2375, 0.865, 0.315, 0.945, 0.395, 1.0225, 0.4725, 1.1025, 0.5525, 0, 0.63, 0.08, 0.71, 0.1575, 0.7875, 0.2375, 0.865, 0.315, 0.945, 0.395, 1.0225, 0.4725, 1.1025],
  "SoftwareVersions": "syngo_MR_E11",
  "SpacingBetweenSlices": 2.4,
  "StationName": "AWP67050",
  "TaskName": "RDMmotion",
  "TotalReadoutTime": 0.0504612,
  "TxRefAmp": 219.808,
  "dcmmeta_affine": [
    [-2.394418954849243, -0.024239283055067062, 0.12367545068264008, 103.76765441894531],
    [-0.021694105118513107, 2.3971107006073, 0.04989797994494438, -98.03829193115234],
    [0.12403051555156708, -0.04866401478648186, 2.396291732788086, -71.09801483154297],
    [0.0, 0.0, 0.0, 1.0]
],
  "dcmmeta_reorient_transform": [
    [0.0, -1.0, 0.0, 87.0],
    [1.0, 0.0, 0.0, 0.0],
    [0.0, 0.0, 1.0, 0.0],
    [0.0, 0.0, 0.0, 1.0]
],
  "dcmmeta_shape": [88, 88, 60, 125],
  "dcmmeta_slice_dim": 2,
  "dcmmeta_version": 0.6,
  "global": {
    "const": {
      "AcquisitionMatrix": [88, 0, 0, 88],
      "AngioFlag": "N",
      "BitsAllocated": 16,
      "BitsStored": 12,
      "BodyPartExamined": "BRAIN",
      "Columns": 704,
      "DeidentificationMethodCodeSequence": [
        {
          "CodeMeaning": "XNAT DicomEdit 6 Script",
          "CodeValue": "3",
          "CodingSchemeDesignator": "XNAT",
          "CodingSchemeVersion": "1.0"}
],
      "EchoNumbers": 1,
      "EchoTime": 33.0,
      "EchoTrainLength": 88,
      "FlipAngle": 62.0,
      "HighBit": 11,
      "ImageOrientationPatient": [0.99862020487187, 0.00904777854967, 0.05172836866729, -0.0101092745987, 0.99974290659484, 0.02029589319042],
      "ImagePositionPatient": [-831.6741494726, -855.50226399141, -128.52169941983],
      "ImageType": [
        "ORIGINAL",
        "PRIMARY",
        "M",
        "ND",
        "MOSAIC"
],
      "ImagedNucleus": "1H",
      "ImagingFrequency": 123.250778,
      "InPlanePhaseEncodingDirection": "COL",
      "MRAcquisitionType": "2D",
      "MagneticFieldStrength": 3.0,
      "Manufacturer": "SIEMENS",
      "ManufacturerModelName": "Prisma_fit",
      "Modality": "MR",
      "NumberOfAverages": 1.0,
      "NumberOfPhaseEncodingSteps": 88,
      "PercentPhaseFieldOfView": 100.0,
      "PercentSampling": 100.0,
      "PerformedProcedureStepStartTime": "143433.499000",
      "PhotometricInterpretation": "MONOCHROME2",
      "PixelBandwidth": 2185.0,
      "PixelRepresentation": 0,
      "PixelSpacing": [2.3977272510529, 2.3977272510529],
      "ProtocolName": "func-bold_task-RDMmotion_run-06",
      "RepetitionTime": 1200.0,
      "Rows": 704,
      "SAR": 0.06030710524511,
      "SamplesPerPixel": 1,
      "ScanOptions": "FS",
      "ScanningSequence": "EP",
      "SequenceName": "*epfid2d1_88",
      "SequenceVariant": "SK",
      "SeriesDescription": "func-bold_task-RDMmotion_run-06",
      "SeriesNumber": 17,
      "SeriesTime": "154854.987000",
      "SliceLocation": -67.679162675399,
      "SliceThickness": 2.4000000953674,
      "SmallestImagePixelValue": 0,
      "SoftwareVersions": "syngo MR E11",
      "SpacingBetweenSlices": 2.3999999914005,
      "SpecificCharacterSet": "ISO_IR 100",
      "StudyID": "1",
      "StudyTime": "143433.413000",
      "TransmitCoilName": "Body",
      "VariableFlipAngleFlag": "N",
      "WindowCenterWidthExplanation": "Algo1",
      "dBdt": 0.0},
    "slices": {}
  },
  "time": {
    "samples": {
      "AcquisitionNumber": [1, 2, 3, 4, 5, 6, 7, 8, 9, 10, 11, 12, 13, 14, 15, 16, 17, 18, 19, 20, 21, 22, 23, 24, 25, 26, 27, 28, 29, 30, 31, 32, 33, 34, 35, 36, 37, 38, 39, 40, 41, 42, 43, 44, 45, 46, 47, 48, 49, 50, 51, 52, 53, 54, 55, 56, 57, 58, 59, 60, 61, 62, 63, 64, 65, 66, 67, 68, 69, 70, 71, 72, 73, 74, 75, 76, 77, 78, 79, 80, 81, 82, 83, 84, 85, 86, 87, 88, 89, 90, 91, 92, 93, 94, 95, 96, 97, 98, 99, 100, 101, 102, 103, 104, 105, 106, 107, 108, 109, 110, 111, 112, 113, 114, 115, 116, 117, 118, 119, 120, 121, 122, 123, 124, 125],
      "AcquisitionTime": ["154824.850000", "154826.050000", "154827.250000", "154828.450000", "154829.650000", "154830.850000", "154832.050000", "154833.250000", "154834.450000", "154835.650000", "154836.850000", "154838.050000", "154839.250000", "154840.450000", "154841.650000", "154842.850000", "154844.050000", "154845.250000", "154846.450000", "154847.650000", "154848.850000", "154850.050000", "154851.250000", "154852.450000", "154853.650000", "154854.850000", "154856.050000", "154857.250000", "154858.450000", "154859.650000", "154900.850000", "154902.050000", "154903.250000", "154904.450000", "154905.650000", "154906.850000", "154908.050000", "154909.250000", "154910.450000", "154911.650000", "154912.850000", "154914.050000", "154915.250000", "154916.450000", "154917.650000", "154918.850000", "154920.050000", "154921.250000", "154922.450000", "154923.650000", "154924.850000", "154926.050000", "154927.250000", "154928.450000", "154929.650000", "154930.850000", "154932.050000", "154933.250000", "154934.450000", "154935.650000", "154936.850000", "154938.050000", "154939.250000", "154940.450000", "154941.650000", "154942.850000", "154944.050000", "154945.250000", "154946.450000", "154947.650000", "154948.850000", "154950.050000", "154951.250000", "154952.450000", "154953.650000", "154954.850000", "154956.050000", "154957.250000", "154958.450000", "154959.650000", "155000.850000", "155002.050000", "155003.250000", "155004.450000", "155005.650000", "155006.850000", "155008.050000", "155009.250000", "155010.450000", "155011.650000", "155012.850000", "155014.050000", "155015.250000", "155016.450000", "155017.650000", "155018.850000", "155020.050000", "155021.250000", "155022.450000", "155023.650000", "155024.850000", "155026.050000", "155027.250000", "155028.450000", "155029.650000", "155030.850000", "155032.050000", "155033.250000", "155034.450000", "155035.650000", "155036.850000", "155038.050000", "155039.250000", "155040.450000", "155041.650000", "155042.850000", "155044.050000", "155045.250000", "155046.450000", "155047.650000", "155048.850000", "155050.050000", "155051.250000", "155052.450000", "155053.650000"],
      "ContentTime": ["154854.991000", "154854.994000", "154854.996000", "154855.000000", "154855.003000", "154855.005000", "154855.008000", "154855.010000", "154855.013000", "154855.016000", "154855.018000", "154855.031000", "154855.034000", "154855.037000", "154855.039000", "154855.042000", "154855.044000", "154855.047000", "154855.049000", "154855.052000", "154855.055000", "154855.057000", "154855.068000", "154855.071000", "154934.987000", "154934.989000", "154934.992000", "154934.995000", "154934.997000", "154935.001000", "154935.003000", "154935.006000", "154935.008000", "154935.011000", "154935.013000", "154935.016000", "154935.019000", "154935.021000", "154935.024000", "154935.026000", "154935.029000", "154935.031000", "154935.034000", "154935.037000", "154935.039000", "154935.042000", "154935.044000", "154935.047000", "154935.049000", "154935.052000", "154935.054000", "154935.057000", "154935.060000", "154935.062000", "154935.065000", "154935.067000", "154935.070000", "154935.072000", "155014.986000", "155014.989000", "155014.992000", "155014.994000", "155014.997000", "155015.001000", "155015.003000", "155015.006000", "155015.008000", "155015.011000", "155015.014000", "155015.016000", "155015.019000", "155015.021000", "155015.024000", "155015.026000", "155015.029000", "155015.032000", "155015.034000", "155015.037000", "155015.040000", "155015.042000", "155015.045000", "155015.048000", "155015.050000", "155015.053000", "155015.055000", "155015.058000", "155015.060000", "155015.063000", "155015.065000", "155015.068000", "155015.071000", "155054.986000", "155054.997000", "155055.000000", "155055.003000", "155055.005000", "155055.008000", "155055.010000", "155055.013000", "155055.015000", "155055.018000", "155055.021000", "155055.023000", "155055.026000", "155055.028000", "155055.031000", "155055.034000", "155055.036000", "155055.039000", "155055.041000", "155055.044000", "155055.046000", "155055.049000", "155055.052000", "155055.055000", "155055.058000", "155055.061000", "155055.064000", "155055.067000", "155055.069000", "155055.072000", "155055.074000", "155055.077000", "155055.079000", "155055.196000"],
      "InstanceCreationTime": ["154854.991000", "154854.994000", "154854.996000", "154855.000000", "154855.003000", "154855.005000", "154855.008000", "154855.010000", "154855.013000", "154855.016000", "154855.018000", "154855.031000", "154855.034000", "154855.037000", "154855.039000", "154855.042000", "154855.044000", "154855.047000", "154855.049000", "154855.052000", "154855.055000", "154855.057000", "154855.068000", "154855.071000", "154934.987000", "154934.989000", "154934.992000", "154934.995000", "154934.997000", "154935.001000", "154935.003000", "154935.006000", "154935.008000", "154935.011000", "154935.013000", "154935.016000", "154935.019000", "154935.021000", "154935.024000", "154935.026000", "154935.029000", "154935.031000", "154935.034000", "154935.037000", "154935.039000", "154935.042000", "154935.044000", "154935.047000", "154935.049000", "154935.052000", "154935.054000", "154935.057000", "154935.060000", "154935.062000", "154935.065000", "154935.067000", "154935.070000", "154935.072000", "155014.986000", "155014.989000", "155014.992000", "155014.994000", "155014.997000", "155015.001000", "155015.003000", "155015.006000", "155015.008000", "155015.011000", "155015.014000", "155015.016000", "155015.019000", "155015.021000", "155015.024000", "155015.026000", "155015.029000", "155015.032000", "155015.034000", "155015.037000", "155015.040000", "155015.042000", "155015.045000", "155015.048000", "155015.050000", "155015.053000", "155015.055000", "155015.058000", "155015.060000", "155015.063000", "155015.065000", "155015.068000", "155015.071000", "155054.986000", "155054.997000", "155055.000000", "155055.003000", "155055.005000", "155055.008000", "155055.010000", "155055.013000", "155055.015000", "155055.018000", "155055.021000", "155055.023000", "155055.026000", "155055.028000", "155055.031000", "155055.034000", "155055.036000", "155055.039000", "155055.041000", "155055.044000", "155055.046000", "155055.049000", "155055.052000", "155055.055000", "155055.058000", "155055.061000", "155055.064000", "155055.067000", "155055.069000", "155055.072000", "155055.074000", "155055.077000", "155055.079000", "155055.196000"],
      "InstanceNumber": [1, 2, 3, 4, 5, 6, 7, 8, 9, 10, 11, 12, 13, 14, 15, 16, 17, 18, 19, 20, 21, 22, 23, 24, 25, 26, 27, 28, 29, 30, 31, 32, 33, 34, 35, 36, 37, 38, 39, 40, 41, 42, 43, 44, 45, 46, 47, 48, 49, 50, 51, 52, 53, 54, 55, 56, 57, 58, 59, 60, 61, 62, 63, 64, 65, 66, 67, 68, 69, 70, 71, 72, 73, 74, 75, 76, 77, 78, 79, 80, 81, 82, 83, 84, 85, 86, 87, 88, 89, 90, 91, 92, 93, 94, 95, 96, 97, 98, 99, 100, 101, 102, 103, 104, 105, 106, 107, 108, 109, 110, 111, 112, 113, 114, 115, 116, 117, 118, 119, 120, 121, 122, 123, 124, 125],
      "LargestImagePixelValue": [2004, 1948, 1906, 1869, 1853, 1857, 1853, 1853, 1847, 1842, 1847, 1846, 1842, 1845, 1849, 1847, 1847, 1851, 1848, 1839, 1849, 1852, 1828, 1837, 1838, 1846, 1864, 1853, 1837, 1856, 1838, 1854, 1854, 1839, 1835, 1833, 1835, 1845, 1840, 1844, 1863, 1847, 1866, 1844, 1866, 1839, 1846, 1839, 1857, 1824, 1845, 1846, 1825, 1807, 1825, 1820, 1804, 1821, 1821, 1813, 1832, 1827, 1831, 1828, 1846, 1820, 1833, 1833, 1841, 1817, 1825, 1814, 1820, 1838, 1824, 1823, 1818, 1813, 1825, 1826, 1809, 1824, 1832, 1812, 1820, 1815, 1827, 1806, 1823, 1812, 1831, 1828, 1827, 1820, 1813, 1824, 1808, 1819, 1813, 1802, 1808, 1815, 1815, 1802, 1801, 1816, 1796, 1799, 1804, 1781, 1782, 1839, 1800, 1782, 1805, 1792, 1775, 1788, 1772, 1779, 1792, 1778, 1791, 1795, 1781],
      "WindowCenter": [595.0, 591.0, 589.0, 588.0, 588.0, 589.0, 590.0, 589.0, 588.0, 587.0, 587.0, 587.0, 587.0, 588.0, 588.0, 587.0, 587.0, 587.0, 587.0, 587.0, 586.0, 587.0, 586.0, 586.0, 586.0, 586.0, 587.0, 587.0, 587.0, 588.0, 587.0, 588.0, 588.0, 587.0, 587.0, 587.0, 587.0, 587.0, 587.0, 588.0, 588.0, 588.0, 588.0, 588.0, 588.0, 588.0, 588.0, 588.0, 588.0, 586.0, 587.0, 587.0, 587.0, 587.0, 587.0, 587.0, 587.0, 587.0, 586.0, 586.0, 587.0, 586.0, 586.0, 586.0, 587.0, 587.0, 587.0, 587.0, 586.0, 586.0, 587.0, 587.0, 587.0, 586.0, 586.0, 587.0, 586.0, 586.0, 587.0, 586.0, 586.0, 586.0, 587.0, 587.0, 588.0, 588.0, 588.0, 588.0, 588.0, 588.0, 588.0, 588.0, 588.0, 588.0, 588.0, 588.0, 588.0, 589.0, 588.0, 587.0, 586.0, 586.0, 586.0, 586.0, 586.0, 586.0, 586.0, 585.0, 586.0, 586.0, 586.0, 586.0, 585.0, 586.0, 586.0, 587.0, 587.0, 588.0, 587.0, 587.0, 587.0, 586.0, 586.0, 586.0, 586.0],
      "WindowWidth": [1267.0, 1258.0, 1255.0, 1252.0, 1250.0, 1254.0, 1255.0, 1254.0, 1251.0, 1249.0, 1249.0, 1249.0, 1249.0, 1251.0, 1251.0, 1250.0, 1249.0, 1249.0, 1249.0, 1249.0, 1248.0, 1249.0, 1247.0, 1247.0, 1247.0, 1247.0, 1248.0, 1249.0, 1249.0, 1250.0, 1249.0, 1250.0, 1250.0, 1249.0, 1250.0, 1248.0, 1249.0, 1249.0, 1248.0, 1250.0, 1251.0, 1251.0, 1252.0, 1251.0, 1251.0, 1251.0, 1251.0, 1251.0, 1250.0, 1248.0, 1248.0, 1248.0, 1249.0, 1250.0, 1250.0, 1249.0, 1249.0, 1249.0, 1247.0, 1247.0, 1248.0, 1246.0, 1247.0, 1247.0, 1248.0, 1248.0, 1249.0, 1248.0, 1247.0, 1248.0, 1249.0, 1248.0, 1248.0, 1247.0, 1246.0, 1248.0, 1247.0, 1247.0, 1248.0, 1248.0, 1247.0, 1247.0, 1248.0, 1249.0, 1251.0, 1251.0, 1252.0, 1252.0, 1252.0, 1252.0, 1252.0, 1252.0, 1251.0, 1251.0, 1251.0, 1252.0, 1252.0, 1253.0, 1251.0, 1249.0, 1248.0, 1247.0, 1247.0, 1245.0, 1246.0, 1247.0, 1246.0, 1245.0, 1247.0, 1248.0, 1247.0, 1246.0, 1245.0, 1246.0, 1247.0, 1247.0, 1250.0, 1251.0, 1250.0, 1249.0, 1248.0, 1247.0, 1248.0, 1247.0, 1246.0]
    },
    "slices": {}
  }
}