{
  "AcquisitionMatrixPE": 88,
  "AcquisitionNumber": 1,
  "AcquisitionTime": "14:49:4.992500",
  "BandwidthPerPixelPhaseEncode": 19.592,
  "BaseResolution": 88,
  "BodyPartExamined": "BRAIN",
  "ConsistencyInfo": "N4_VE11C_LATEST_20160120",
  "ConversionSoftware": "dcm2niix",
  "ConversionSoftwareVersion": "v1.0.20190902",
  "DerivedVendorReportedEchoSpacing": 0.000580014,
  "DeviceSerialNumber": "67050",
  "DwellTime": 2.6e-06,
  "EchoTime": 0.033,
  "EchoTrainLength": 88,
  "EffectiveEchoSpacing": 0.000580014,
  "FlipAngle": 62,
  "ImageOrientationPatientDICOM": [0.99862, 0.00904778, 0.0517284, -0.0101093, 0.999743, 0.0202959],
  "ImageType": [
    "ORIGINAL",
    "PRIMARY",
    "M",
    "ND",
    "MOSAIC"
],
  "ImagingFrequency": 123.251,
  "InPlanePhaseEncodingDirectionDICOM": "COL",
  "InstitutionAddress": "Olive_Street_60_Providence_RI_US_02912",
  "InstitutionName": "BROWN_UNIVERSITY_MRF",
  "InstitutionalDepartmentName": "Department",
  "MRAcquisitionType": "2D",
  "MagneticFieldStrength": 3,
  "Manufacturer": "Siemens",
  "ManufacturersModelName": "Prisma_fit",
  "Modality": "MR",
  "MultibandAccelerationFactor": 4,
  "PartialFourier": 1,
  "PatientPosition": "HFS",
  "PercentPhaseFOV": 100,
  "PhaseEncodingDirection": "j-",
  "PhaseEncodingSteps": 88,
  "PhaseResolution": 1,
  "PixelBandwidth": 2185,
  "ProcedureStepDescription": "ASHENHAV_1222",
  "ProtocolName": "func-bold_task-RDMmotion_run-01",
  "PulseSequenceDetails": "%SiemensSeq%_ep2d_bold",
  "ReceiveCoilActiveElements": "HC1-7",
  "ReceiveCoilName": "HeadNeck_64",
  "ReconMatrixPE": 88,
  "RefLinesPE": 8,
  "RepetitionTime": 1.2,
  "SAR": 0.0603071,
  "ScanOptions": "FS",
  "ScanningSequence": "EP",
  "SequenceName": "_epfid2d1_88",
  "SequenceVariant": "SK",
  "SeriesDescription": "func-bold_task-RDMmotion_run-01",
  "SeriesNumber": 7,
  "ShimSetting": [1749, -9088, 4398, 530, -107, -81, 4, 1],
  "SliceThickness": 2.4,
  "SliceTiming": [0.55, 0, 0.63, 0.08, 0.7075, 0.1575, 0.7875, 0.235, 0.865, 0.315, 0.945, 0.3925, 1.0225, 0.4725, 1.1025, 0.55, 0, 0.63, 0.08, 0.7075, 0.1575, 0.7875, 0.235, 0.865, 0.315, 0.945, 0.3925, 1.0225, 0.4725, 1.1025, 0.55, 0, 0.63, 0.08, 0.7075, 0.1575, 0.7875, 0.235, 0.865, 0.315, 0.945, 0.3925, 1.0225, 0.4725, 1.1025, 0.55, 0, 0.63, 0.08, 0.7075, 0.1575, 0.7875, 0.235, 0.865, 0.315, 0.945, 0.3925, 1.0225, 0.4725, 1.1025],
  "SoftwareVersions": "syngo_MR_E11",
  "SpacingBetweenSlices": 2.4,
  "StationName": "AWP67050",
  "TaskName": "RDMmotion",
  "TotalReadoutTime": 0.0504612,
  "TxRefAmp": 219.808,
  "dcmmeta_affine": [
    [-2.394418954849243, -0.024239283055067062, 0.12367545068264008, 103.76765441894531],
    [-0.021694105118513107, 2.3971107006073, 0.04989797994494438, -98.03829193115234],
    [0.12403051555156708, -0.04866401478648186, 2.396291732788086, -71.09801483154297],
    [0.0, 0.0, 0.0, 1.0]
],
  "dcmmeta_reorient_transform": [
    [0.0, -1.0, 0.0, 87.0],
    [1.0, 0.0, 0.0, 0.0],
    [0.0, 0.0, 1.0, 0.0],
    [0.0, 0.0, 0.0, 1.0]
],
  "dcmmeta_shape": [88, 88, 60, 125],
  "dcmmeta_slice_dim": 2,
  "dcmmeta_version": 0.6,
  "global": {
    "const": {
      "AcquisitionMatrix": [88, 0, 0, 88],
      "AngioFlag": "N",
      "BitsAllocated": 16,
      "BitsStored": 12,
      "BodyPartExamined": "BRAIN",
      "Columns": 704,
      "DeidentificationMethodCodeSequence": [
        {
          "CodeMeaning": "XNAT DicomEdit 6 Script",
          "CodeValue": "3",
          "CodingSchemeDesignator": "XNAT",
          "CodingSchemeVersion": "1.0"}
],
      "EchoNumbers": 1,
      "EchoTime": 33.0,
      "EchoTrainLength": 88,
      "FlipAngle": 62.0,
      "HighBit": 11,
      "ImageOrientationPatient": [0.99862020487187, 0.00904777854967, 0.05172836866729, -0.0101092745987, 0.99974290659484, 0.02029589319042],
      "ImagePositionPatient": [-831.6741494726, -855.50226399141, -128.52169941983],
      "ImageType": [
        "ORIGINAL",
        "PRIMARY",
        "M",
        "ND",
        "MOSAIC"
],
      "ImagedNucleus": "1H",
      "ImagingFrequency": 123.250768,
      "InPlanePhaseEncodingDirection": "COL",
      "MRAcquisitionType": "2D",
      "MagneticFieldStrength": 3.0,
      "Manufacturer": "SIEMENS",
      "ManufacturerModelName": "Prisma_fit",
      "Modality": "MR",
      "NumberOfAverages": 1.0,
      "NumberOfPhaseEncodingSteps": 88,
      "PercentPhaseFieldOfView": 100.0,
      "PercentSampling": 100.0,
      "PerformedProcedureStepStartTime": "143433.499000",
      "PhotometricInterpretation": "MONOCHROME2",
      "PixelBandwidth": 2185.0,
      "PixelRepresentation": 0,
      "PixelSpacing": [2.3977272510529, 2.3977272510529],
      "ProtocolName": "func-bold_task-RDMmotion_run-01",
      "RepetitionTime": 1200.0,
      "Rows": 704,
      "SAR": 0.06030710524511,
      "SamplesPerPixel": 1,
      "ScanOptions": "FS",
      "ScanningSequence": "EP",
      "SequenceName": "*epfid2d1_88",
      "SequenceVariant": "SK",
      "SeriesDescription": "func-bold_task-RDMmotion_run-01",
      "SeriesNumber": 7,
      "SeriesTime": "144937.973000",
      "SliceLocation": -67.679162675399,
      "SliceThickness": 2.4000000953674,
      "SmallestImagePixelValue": 0,
      "SoftwareVersions": "syngo MR E11",
      "SpacingBetweenSlices": 2.3999999914005,
      "SpecificCharacterSet": "ISO_IR 100",
      "StudyID": "1",
      "StudyTime": "143433.413000",
      "TransmitCoilName": "Body",
      "VariableFlipAngleFlag": "N",
      "WindowCenterWidthExplanation": "Algo1",
      "dBdt": 0.0},
    "slices": {}
  },
  "time": {
    "samples": {
      "AcquisitionNumber": [1, 2, 3, 4, 5, 6, 7, 8, 9, 10, 11, 12, 13, 14, 15, 16, 17, 18, 19, 20, 21, 22, 23, 24, 25, 26, 27, 28, 29, 30, 31, 32, 33, 34, 35, 36, 37, 38, 39, 40, 41, 42, 43, 44, 45, 46, 47, 48, 49, 50, 51, 52, 53, 54, 55, 56, 57, 58, 59, 60, 61, 62, 63, 64, 65, 66, 67, 68, 69, 70, 71, 72, 73, 74, 75, 76, 77, 78, 79, 80, 81, 82, 83, 84, 85, 86, 87, 88, 89, 90, 91, 92, 93, 94, 95, 96, 97, 98, 99, 100, 101, 102, 103, 104, 105, 106, 107, 108, 109, 110, 111, 112, 113, 114, 115, 116, 117, 118, 119, 120, 121, 122, 123, 124, 125],
      "AcquisitionTime": ["144904.992500", "144906.192500", "144907.392500", "144908.592500", "144909.792500", "144910.992500", "144912.192500", "144913.392500", "144914.592500", "144915.792500", "144916.992500", "144918.192500", "144919.392500", "144920.592500", "144921.792500", "144922.992500", "144924.192500", "144925.392500", "144926.592500", "144927.792500", "144928.992500", "144930.192500", "144931.392500", "144932.592500", "144933.792500", "144934.992500", "144936.192500", "144937.392500", "144938.592500", "144939.792500", "144940.992500", "144942.192500", "144943.392500", "144944.592500", "144945.792500", "144946.992500", "144948.192500", "144949.392500", "144950.592500", "144951.792500", "144952.992500", "144954.192500", "144955.392500", "144956.592500", "144957.792500", "144958.992500", "145000.192500", "145001.392500", "145002.592500", "145003.792500", "145004.992500", "145006.192500", "145007.392500", "145008.592500", "145009.792500", "145010.992500", "145012.192500", "145013.392500", "145014.592500", "145015.792500", "145016.992500", "145018.192500", "145019.392500", "145020.592500", "145021.792500", "145022.992500", "145024.192500", "145025.392500", "145026.592500", "145027.792500", "145028.992500", "145030.192500", "145031.392500", "145032.592500", "145033.792500", "145034.992500", "145036.192500", "145037.392500", "145038.592500", "145039.792500", "145040.992500", "145042.192500", "145043.392500", "145044.592500", "145045.792500", "145046.992500", "145048.192500", "145049.392500", "145050.592500", "145051.792500", "145052.992500", "145054.192500", "145055.392500", "145056.592500", "145057.792500", "145058.992500", "145100.192500", "145101.392500", "145102.592500", "145103.792500", "145104.992500", "145106.192500", "145107.392500", "145108.592500", "145109.792500", "145110.992500", "145112.192500", "145113.392500", "145114.592500", "145115.792500", "145116.992500", "145118.192500", "145119.392500", "145120.592500", "145121.792500", "145122.992500", "145124.192500", "145125.392500", "145126.592500", "145127.792500", "145128.992500", "145130.192500", "145131.392500", "145132.592500", "145133.792500"],
      "ContentTime": ["144937.977000", "144937.980000", "144937.986000", "144937.989000", "144937.992000", "144937.994000", "144937.997000", "144938.001000", "144938.003000", "144938.006000", "144938.008000", "144938.011000", "144938.017000", "144938.020000", "144938.023000", "144938.025000", "144938.028000", "144938.031000", "144938.033000", "144938.036000", "144938.038000", "144938.041000", "144938.043000", "144938.046000", "144938.049000", "144938.051000", "144938.064000", "145017.973000", "145017.975000", "145017.978000", "145017.981000", "145017.984000", "145017.986000", "145017.989000", "145017.991000", "145017.994000", "145017.997000", "145017.999000", "145018.002000", "145018.005000", "145018.007000", "145018.010000", "145018.012000", "145018.015000", "145018.018000", "145018.021000", "145018.023000", "145018.026000", "145018.028000", "145018.031000", "145018.033000", "145018.036000", "145018.039000", "145018.041000", "145018.044000", "145018.047000", "145018.049000", "145018.052000", "145018.054000", "145018.057000", "145057.974000", "145057.977000", "145057.979000", "145057.982000", "145057.984000", "145057.987000", "145057.990000", "145057.992000", "145057.995000", "145057.997000", "145058.000000", "145058.003000", "145058.005000", "145058.008000", "145058.010000", "145058.013000", "145058.025000", "145058.027000", "145058.030000", "145058.032000", "145058.035000", "145058.038000", "145058.040000", "145058.043000", "145058.045000", "145058.048000", "145058.051000", "145058.053000", "145058.056000", "145058.058000", "145058.061000", "145058.064000", "145058.066000", "145058.069000", "145135.108000", "145135.111000", "145135.115000", "145135.118000", "145135.121000", "145135.124000", "145135.126000", "145135.129000", "145135.132000", "145135.134000", "145135.137000", "145135.140000", "145135.142000", "145135.145000", "145135.148000", "145135.150000", "145135.153000", "145135.156000", "145135.158000", "145135.161000", "145135.163000", "145135.166000", "145135.168000", "145135.171000", "145135.174000", "145135.177000", "145135.179000", "145135.182000", "145135.184000", "145135.187000", "145135.190000"],
      "InstanceCreationTime": ["144937.977000", "144937.980000", "144937.986000", "144937.989000", "144937.992000", "144937.994000", "144937.997000", "144938.001000", "144938.003000", "144938.006000", "144938.008000", "144938.011000", "144938.017000", "144938.020000", "144938.023000", "144938.025000", "144938.028000", "144938.031000", "144938.033000", "144938.036000", "144938.038000", "144938.041000", "144938.043000", "144938.046000", "144938.049000", "144938.051000", "144938.064000", "145017.973000", "145017.975000", "145017.978000", "145017.981000", "145017.984000", "145017.986000", "145017.989000", "145017.991000", "145017.994000", "145017.997000", "145017.999000", "145018.002000", "145018.005000", "145018.007000", "145018.010000", "145018.012000", "145018.015000", "145018.018000", "145018.021000", "145018.023000", "145018.026000", "145018.028000", "145018.031000", "145018.033000", "145018.036000", "145018.039000", "145018.041000", "145018.044000", "145018.047000", "145018.049000", "145018.052000", "145018.054000", "145018.057000", "145057.974000", "145057.977000", "145057.979000", "145057.982000", "145057.984000", "145057.987000", "145057.990000", "145057.992000", "145057.995000", "145057.997000", "145058.000000", "145058.003000", "145058.005000", "145058.008000", "145058.010000", "145058.013000", "145058.025000", "145058.027000", "145058.030000", "145058.032000", "145058.035000", "145058.038000", "145058.040000", "145058.043000", "145058.045000", "145058.048000", "145058.051000", "145058.053000", "145058.056000", "145058.058000", "145058.061000", "145058.064000", "145058.066000", "145058.069000", "145135.108000", "145135.111000", "145135.115000", "145135.118000", "145135.121000", "145135.124000", "145135.126000", "145135.129000", "145135.132000", "145135.134000", "145135.137000", "145135.140000", "145135.142000", "145135.145000", "145135.148000", "145135.150000", "145135.153000", "145135.156000", "145135.158000", "145135.161000", "145135.163000", "145135.166000", "145135.168000", "145135.171000", "145135.174000", "145135.177000", "145135.179000", "145135.182000", "145135.184000", "145135.187000", "145135.190000"],
      "InstanceNumber": [1, 2, 3, 4, 5, 6, 7, 8, 9, 10, 11, 12, 13, 14, 15, 16, 17, 18, 19, 20, 21, 22, 23, 24, 25, 26, 27, 28, 29, 30, 31, 32, 33, 34, 35, 36, 37, 38, 39, 40, 41, 42, 43, 44, 45, 46, 47, 48, 49, 50, 51, 52, 53, 54, 55, 56, 57, 58, 59, 60, 61, 62, 63, 64, 65, 66, 67, 68, 69, 70, 71, 72, 73, 74, 75, 76, 77, 78, 79, 80, 81, 82, 83, 84, 85, 86, 87, 88, 89, 90, 91, 92, 93, 94, 95, 96, 97, 98, 99, 100, 101, 102, 103, 104, 105, 106, 107, 108, 109, 110, 111, 112, 113, 114, 115, 116, 117, 118, 119, 120, 121, 122, 123, 124, 125],
      "LargestImagePixelValue": [1947, 1896, 1890, 1897, 1905, 1948, 1983, 1995, 1996, 2006, 1985, 2008, 2004, 2014, 2053, 2026, 2085, 2017, 2014, 2020, 1989, 1987, 1947, 1957, 1961, 1924, 1957, 1989, 1931, 2032, 2011, 1952, 1959, 1976, 1962, 1974, 1959, 1950, 1956, 1918, 1931, 1991, 1945, 1953, 1956, 2022, 1958, 1942, 1940, 1952, 1932, 1966, 1949, 1934, 1940, 1958, 1935, 1948, 1915, 1931, 1915, 1923, 1914, 1939, 1920, 1924, 1915, 1921, 1970, 1926, 1953, 1956, 1919, 1927, 1908, 1906, 1945, 1915, 1916, 1979, 1979, 1910, 1932, 1928, 1996, 1921, 1990, 1938, 1914, 1968, 1911, 1945, 1987, 1886, 1904, 1903, 1909, 1888, 1891, 1915, 1929, 1963, 1956, 1971, 1897, 1897, 1906, 1909, 1899, 1940, 1911, 1886, 1939, 1879, 1892, 1886, 1877, 1919, 1960, 1904, 1903, 1886, 1923, 1941, 1901],
      "WindowCenter": [589.0, 587.0, 587.0, 588.0, 589.0, 591.0, 593.0, 594.0, 594.0, 595.0, 595.0, 595.0, 596.0, 596.0, 597.0, 596.0, 596.0, 596.0, 595.0, 595.0, 596.0, 595.0, 595.0, 595.0, 594.0, 593.0, 594.0, 594.0, 594.0, 595.0, 594.0, 592.0, 593.0, 593.0, 593.0, 593.0, 594.0, 594.0, 594.0, 594.0, 593.0, 594.0, 593.0, 593.0, 593.0, 594.0, 593.0, 593.0, 593.0, 593.0, 593.0, 593.0, 593.0, 592.0, 592.0, 594.0, 594.0, 594.0, 593.0, 592.0, 592.0, 592.0, 591.0, 591.0, 591.0, 591.0, 591.0, 591.0, 593.0, 592.0, 593.0, 593.0, 593.0, 592.0, 592.0, 593.0, 593.0, 593.0, 593.0, 593.0, 593.0, 593.0, 593.0, 593.0, 594.0, 593.0, 594.0, 593.0, 593.0, 593.0, 593.0, 593.0, 594.0, 592.0, 592.0, 592.0, 592.0, 592.0, 592.0, 592.0, 593.0, 593.0, 593.0, 593.0, 592.0, 591.0, 592.0, 592.0, 592.0, 593.0, 592.0, 591.0, 591.0, 590.0, 590.0, 590.0, 590.0, 590.0, 590.0, 590.0, 591.0, 591.0, 593.0, 594.0, 594.0],
      "WindowWidth": [1253.0, 1248.0, 1249.0, 1250.0, 1253.0, 1258.0, 1261.0, 1264.0, 1265.0, 1266.0, 1266.0, 1266.0, 1268.0, 1268.0, 1270.0, 1268.0, 1268.0, 1267.0, 1265.0, 1266.0, 1267.0, 1266.0, 1265.0, 1264.0, 1263.0, 1262.0, 1263.0, 1264.0, 1263.0, 1264.0, 1262.0, 1260.0, 1260.0, 1260.0, 1260.0, 1262.0, 1263.0, 1263.0, 1263.0, 1263.0, 1261.0, 1262.0, 1261.0, 1261.0, 1261.0, 1262.0, 1261.0, 1261.0, 1262.0, 1262.0, 1262.0, 1262.0, 1261.0, 1259.0, 1259.0, 1263.0, 1263.0, 1263.0, 1260.0, 1258.0, 1258.0, 1258.0, 1257.0, 1257.0, 1256.0, 1256.0, 1258.0, 1258.0, 1260.0, 1260.0, 1260.0, 1261.0, 1260.0, 1260.0, 1259.0, 1260.0, 1261.0, 1261.0, 1262.0, 1262.0, 1262.0, 1261.0, 1261.0, 1261.0, 1263.0, 1262.0, 1263.0, 1261.0, 1260.0, 1262.0, 1261.0, 1262.0, 1262.0, 1260.0, 1259.0, 1260.0, 1259.0, 1259.0, 1258.0, 1259.0, 1261.0, 1261.0, 1261.0, 1262.0, 1258.0, 1257.0, 1258.0, 1259.0, 1259.0, 1260.0, 1259.0, 1256.0, 1257.0, 1255.0, 1254.0, 1254.0, 1254.0, 1255.0, 1254.0, 1254.0, 1256.0, 1257.0, 1261.0, 1263.0, 1264.0]
    },
    "slices": {}
  }
}