{
  "AcquisitionMatrixPE": 88,
  "AcquisitionNumber": 1,
  "AcquisitionTime": "15:39:35.215000",
  "BandwidthPerPixelPhaseEncode": 19.592,
  "BaseResolution": 88,
  "BodyPartExamined": "BRAIN",
  "ConsistencyInfo": "N4_VE11C_LATEST_20160120",
  "ConversionSoftware": "dcm2niix",
  "ConversionSoftwareVersion": "v1.0.20190902",
  "DerivedVendorReportedEchoSpacing": 0.000580014,
  "DeviceSerialNumber": "67050",
  "DwellTime": 2.6e-06,
  "EchoTime": 0.033,
  "EchoTrainLength": 88,
  "EffectiveEchoSpacing": 0.000580014,
  "FlipAngle": 62,
  "ImageOrientationPatientDICOM": [0.99862, 0.00904778, 0.0517284, -0.0101093, 0.999743, 0.0202959],
  "ImageType": [
    "ORIGINAL",
    "PRIMARY",
    "M",
    "ND",
    "MOSAIC"
],
  "ImagingFrequency": 123.251,
  "InPlanePhaseEncodingDirectionDICOM": "COL",
  "InstitutionAddress": "Olive_Street_60_Providence_RI_US_02912",
  "InstitutionName": "BROWN_UNIVERSITY_MRF",
  "InstitutionalDepartmentName": "Department",
  "MRAcquisitionType": "2D",
  "MagneticFieldStrength": 3,
  "Manufacturer": "Siemens",
  "ManufacturersModelName": "Prisma_fit",
  "Modality": "MR",
  "MultibandAccelerationFactor": 4,
  "PartialFourier": 1,
  "PatientPosition": "HFS",
  "PercentPhaseFOV": 100,
  "PhaseEncodingDirection": "j-",
  "PhaseEncodingSteps": 88,
  "PhaseResolution": 1,
  "PixelBandwidth": 2185,
  "ProcedureStepDescription": "ASHENHAV_1222",
  "ProtocolName": "func-bold_task-RDMcolor_run-05",
  "PulseSequenceDetails": "%SiemensSeq%_ep2d_bold",
  "ReceiveCoilActiveElements": "HC1-7",
  "ReceiveCoilName": "HeadNeck_64",
  "ReconMatrixPE": 88,
  "RefLinesPE": 8,
  "RepetitionTime": 1.2,
  "SAR": 0.0609255,
  "ScanOptions": "FS",
  "ScanningSequence": "EP",
  "SequenceName": "_epfid2d1_88",
  "SequenceVariant": "SK",
  "SeriesDescription": "func-bold_task-RDMcolor_run-05",
  "SeriesNumber": 16,
  "ShimSetting": [1749, -9088, 4398, 530, -107, -81, 4, 1],
  "SliceThickness": 2.4,
  "SliceTiming": [0.55, 0, 0.63, 0.08, 0.7075, 0.1575, 0.7875, 0.2375, 0.865, 0.315, 0.945, 0.395, 1.0225, 0.4725, 1.1025, 0.55, 0, 0.63, 0.08, 0.7075, 0.1575, 0.7875, 0.2375, 0.865, 0.315, 0.945, 0.395, 1.0225, 0.4725, 1.1025, 0.55, 0, 0.63, 0.08, 0.7075, 0.1575, 0.7875, 0.2375, 0.865, 0.315, 0.945, 0.395, 1.0225, 0.4725, 1.1025, 0.55, 0, 0.63, 0.08, 0.7075, 0.1575, 0.7875, 0.2375, 0.865, 0.315, 0.945, 0.395, 1.0225, 0.4725, 1.1025],
  "SoftwareVersions": "syngo_MR_E11",
  "SpacingBetweenSlices": 2.4,
  "StationName": "AWP67050",
  "TaskName": "RDMcolor",
  "TotalReadoutTime": 0.0504612,
  "TxRefAmp": 219.808,
  "dcmmeta_affine": [
    [-2.394418954849243, -0.024239283055067062, 0.12367545068264008, 103.76765441894531],
    [-0.021694105118513107, 2.3971107006073, 0.04989797994494438, -98.03829193115234],
    [0.12403051555156708, -0.04866401478648186, 2.396291732788086, -71.09801483154297],
    [0.0, 0.0, 0.0, 1.0]
],
  "dcmmeta_reorient_transform": [
    [0.0, -1.0, 0.0, 87.0],
    [1.0, 0.0, 0.0, 0.0],
    [0.0, 0.0, 1.0, 0.0],
    [0.0, 0.0, 0.0, 1.0]
],
  "dcmmeta_shape": [88, 88, 60, 392],
  "dcmmeta_slice_dim": 2,
  "dcmmeta_version": 0.6,
  "global": {
    "const": {
      "AcquisitionMatrix": [88, 0, 0, 88],
      "AngioFlag": "N",
      "BitsAllocated": 16,
      "BitsStored": 12,
      "BodyPartExamined": "BRAIN",
      "Columns": 704,
      "DeidentificationMethodCodeSequence": [
        {
          "CodeMeaning": "XNAT DicomEdit 6 Script",
          "CodeValue": "3",
          "CodingSchemeDesignator": "XNAT",
          "CodingSchemeVersion": "1.0"}
],
      "EchoNumbers": 1,
      "EchoTime": 33.0,
      "EchoTrainLength": 88,
      "FlipAngle": 62.0,
      "HighBit": 11,
      "ImageOrientationPatient": [0.99862020487187, 0.00904777854967, 0.05172836866729, -0.0101092745987, 0.99974290659484, 0.02029589319042],
      "ImagePositionPatient": [-831.6741494726, -855.50226399141, -128.52169941983],
      "ImageType": [
        "ORIGINAL",
        "PRIMARY",
        "M",
        "ND",
        "MOSAIC"
],
      "ImagedNucleus": "1H",
      "ImagingFrequency": 123.250777,
      "InPlanePhaseEncodingDirection": "COL",
      "MRAcquisitionType": "2D",
      "MagneticFieldStrength": 3.0,
      "Manufacturer": "SIEMENS",
      "ManufacturerModelName": "Prisma_fit",
      "Modality": "MR",
      "NumberOfAverages": 1.0,
      "NumberOfPhaseEncodingSteps": 88,
      "PercentPhaseFieldOfView": 100.0,
      "PercentSampling": 100.0,
      "PerformedProcedureStepStartTime": "143433.499000",
      "PhotometricInterpretation": "MONOCHROME2",
      "PixelBandwidth": 2185.0,
      "PixelRepresentation": 0,
      "PixelSpacing": [2.3977272510529, 2.3977272510529],
      "ProtocolName": "func-bold_task-RDMcolor_run-05",
      "RepetitionTime": 1200.0,
      "Rows": 704,
      "SAR": 0.06092552331689,
      "SamplesPerPixel": 1,
      "ScanOptions": "FS",
      "ScanningSequence": "EP",
      "SequenceName": "*epfid2d1_88",
      "SequenceVariant": "SK",
      "SeriesDescription": "func-bold_task-RDMcolor_run-05",
      "SeriesNumber": 16,
      "SeriesTime": "154017.973000",
      "SliceLocation": -67.679162675399,
      "SliceThickness": 2.4000000953674,
      "SmallestImagePixelValue": 0,
      "SoftwareVersions": "syngo MR E11",
      "SpacingBetweenSlices": 2.3999999914005,
      "SpecificCharacterSet": "ISO_IR 100",
      "StudyID": "1",
      "StudyTime": "143433.413000",
      "TransmitCoilName": "Body",
      "VariableFlipAngleFlag": "N",
      "WindowCenterWidthExplanation": "Algo1",
      "dBdt": 0.0},
    "slices": {}
  },
  "time": {
    "samples": {
      "AcquisitionNumber": [1, 2, 3, 4, 5, 6, 7, 8, 9, 10, 11, 12, 13, 14, 15, 16, 17, 18, 19, 20, 21, 22, 23, 24, 25, 26, 27, 28, 29, 30, 31, 32, 33, 34, 35, 36, 37, 38, 39, 40, 41, 42, 43, 44, 45, 46, 47, 48, 49, 50, 51, 52, 53, 54, 55, 56, 57, 58, 59, 60, 61, 62, 63, 64, 65, 66, 67, 68, 69, 70, 71, 72, 73, 74, 75, 76, 77, 78, 79, 80, 81, 82, 83, 84, 85, 86, 87, 88, 89, 90, 91, 92, 93, 94, 95, 96, 97, 98, 99, 100, 101, 102, 103, 104, 105, 106, 107, 108, 109, 110, 111, 112, 113, 114, 115, 116, 117, 118, 119, 120, 121, 122, 123, 124, 125, 126, 127, 128, 129, 130, 131, 132, 133, 134, 135, 136, 137, 138, 139, 140, 141, 142, 143, 144, 145, 146, 147, 148, 149, 150, 151, 152, 153, 154, 155, 156, 157, 158, 159, 160, 161, 162, 163, 164, 165, 166, 167, 168, 169, 170, 171, 172, 173, 174, 175, 176, 177, 178, 179, 180, 181, 182, 183, 184, 185, 186, 187, 188, 189, 190, 191, 192, 193, 194, 195, 196, 197, 198, 199, 200, 201, 202, 203, 204, 205, 206, 207, 208, 209, 210, 211, 212, 213, 214, 215, 216, 217, 218, 219, 220, 221, 222, 223, 224, 225, 226, 227, 228, 229, 230, 231, 232, 233, 234, 235, 236, 237, 238, 239, 240, 241, 242, 243, 244, 245, 246, 247, 248, 249, 250, 251, 252, 253, 254, 255, 256, 257, 258, 259, 260, 261, 262, 263, 264, 265, 266, 267, 268, 269, 270, 271, 272, 273, 274, 275, 276, 277, 278, 279, 280, 281, 282, 283, 284, 285, 286, 287, 288, 289, 290, 291, 292, 293, 294, 295, 296, 297, 298, 299, 300, 301, 302, 303, 304, 305, 306, 307, 308, 309, 310, 311, 312, 313, 314, 315, 316, 317, 318, 319, 320, 321, 322, 323, 324, 325, 326, 327, 328, 329, 330, 331, 332, 333, 334, 335, 336, 337, 338, 339, 340, 341, 342, 343, 344, 345, 346, 347, 348, 349, 350, 351, 352, 353, 354, 355, 356, 357, 358, 359, 360, 361, 362, 363, 364, 365, 366, 367, 368, 369, 370, 371, 372, 373, 374, 375, 376, 377, 378, 379, 380, 381, 382, 383, 384, 385, 386, 387, 388, 389, 390, 391, 392],
      "AcquisitionTime": ["153935.215000", "153936.415000", "153937.615000", "153938.815000", "153940.015000", "153941.215000", "153942.415000", "153943.615000", "153944.815000", "153946.015000", "153947.215000", "153948.415000", "153949.615000", "153950.815000", "153952.015000", "153953.215000", "153954.415000", "153955.615000", "153956.815000", "153958.015000", "153959.215000", "154000.415000", "154001.615000", "154002.815000", "154004.015000", "154005.215000", "154006.415000", "154007.615000", "154008.815000", "154010.015000", "154011.215000", "154012.415000", "154013.615000", "154014.815000", "154016.015000", "154017.215000", "154018.415000", "154019.615000", "154020.815000", "154022.015000", "154023.215000", "154024.415000", "154025.615000", "154026.815000", "154028.015000", "154029.215000", "154030.415000", "154031.615000", "154032.815000", "154034.015000", "154035.215000", "154036.415000", "154037.615000", "154038.815000", "154040.015000", "154041.215000", "154042.415000", "154043.615000", "154044.815000", "154046.015000", "154047.215000", "154048.415000", "154049.615000", "154050.815000", "154052.015000", "154053.215000", "154054.415000", "154055.615000", "154056.815000", "154058.015000", "154059.215000", "154100.415000", "154101.615000", "154102.815000", "154104.015000", "154105.215000", "154106.415000", "154107.615000", "154108.815000", "154110.015000", "154111.215000", "154112.415000", "154113.615000", "154114.815000", "154116.015000", "154117.215000", "154118.415000", "154119.615000", "154120.815000", "154122.015000", "154123.215000", "154124.415000", "154125.615000", "154126.815000", "154128.015000", "154129.215000", "154130.415000", "154131.615000", "154132.815000", "154134.015000", "154135.215000", "154136.415000", "154137.615000", "154138.815000", "154140.015000", "154141.215000", "154142.415000", "154143.615000", "154144.815000", "154146.015000", "154147.215000", "154148.415000", "154149.615000", "154150.815000", "154152.015000", "154153.215000", "154154.415000", "154155.615000", "154156.815000", "154158.015000", "154159.215000", "154200.415000", "154201.615000", "154202.815000", "154204.015000", "154205.215000", "154206.415000", "154207.615000", "154208.815000", "154210.015000", "154211.215000", "154212.415000", "154213.615000", "154214.815000", "154216.015000", "154217.215000", "154218.415000", "154219.615000", "154220.815000", "154222.015000", "154223.215000", "154224.415000", "154225.615000", "154226.815000", "154228.015000", "154229.215000", "154230.415000", "154231.615000", "154232.815000", "154234.015000", "154235.215000", "154236.415000", "154237.615000", "154238.815000", "154240.015000", "154241.215000", "154242.415000", "154243.615000", "154244.815000", "154246.015000", "154247.215000", "154248.415000", "154249.615000", "154250.815000", "154252.015000", "154253.215000", "154254.415000", "154255.615000", "154256.815000", "154258.015000", "154259.215000", "154300.415000", "154301.615000", "154302.815000", "154304.015000", "154305.215000", "154306.415000", "154307.615000", "154308.815000", "154310.015000", "154311.215000", "154312.415000", "154313.615000", "154314.815000", "154316.015000", "154317.215000", "154318.415000", "154319.615000", "154320.815000", "154322.015000", "154323.215000", "154324.415000", "154325.615000", "154326.815000", "154328.015000", "154329.215000", "154330.415000", "154331.615000", "154332.815000", "154334.015000", "154335.215000", "154336.415000", "154337.615000", "154338.815000", "154340.015000", "154341.215000", "154342.415000", "154343.615000", "154344.815000", "154346.015000", "154347.215000", "154348.415000", "154349.615000", "154350.815000", "154352.015000", "154353.215000", "154354.415000", "154355.615000", "154356.815000", "154358.015000", "154359.215000", "154400.415000", "154401.615000", "154402.815000", "154404.015000", "154405.215000", "154406.415000", "154407.615000", "154408.815000", "154410.015000", "154411.215000", "154412.415000", "154413.615000", "154414.815000", "154416.015000", "154417.215000", "154418.415000", "154419.615000", "154420.815000", "154422.015000", "154423.215000", "154424.415000", "154425.615000", "154426.815000", "154428.015000", "154429.215000", "154430.415000", "154431.615000", "154432.815000", "154434.015000", "154435.215000", "154436.415000", "154437.615000", "154438.815000", "154440.015000", "154441.215000", "154442.415000", "154443.615000", "154444.815000", "154446.015000", "154447.215000", "154448.415000", "154449.615000", "154450.815000", "154452.015000", "154453.215000", "154454.415000", "154455.615000", "154456.815000", "154458.015000", "154459.215000", "154500.415000", "154501.615000", "154502.815000", "154504.015000", "154505.215000", "154506.415000", "154507.615000", "154508.815000", "154510.015000", "154511.215000", "154512.415000", "154513.615000", "154514.815000", "154516.015000", "154517.215000", "154518.415000", "154519.615000", "154520.815000", "154522.015000", "154523.215000", "154524.415000", "154525.615000", "154526.815000", "154528.015000", "154529.215000", "154530.415000", "154531.615000", "154532.815000", "154534.015000", "154535.215000", "154536.415000", "154537.615000", "154538.815000", "154540.015000", "154541.215000", "154542.415000", "154543.615000", "154544.815000", "154546.015000", "154547.215000", "154548.415000", "154549.615000", "154550.815000", "154552.015000", "154553.215000", "154554.415000", "154555.615000", "154556.815000", "154558.015000", "154559.215000", "154600.415000", "154601.615000", "154602.815000", "154604.015000", "154605.215000", "154606.415000", "154607.615000", "154608.815000", "154610.015000", "154611.215000", "154612.415000", "154613.615000", "154614.815000", "154616.015000", "154617.215000", "154618.415000", "154619.615000", "154620.815000", "154622.015000", "154623.215000", "154624.415000", "154625.615000", "154626.815000", "154628.015000", "154629.215000", "154630.415000", "154631.615000", "154632.815000", "154634.015000", "154635.215000", "154636.415000", "154637.615000", "154638.815000", "154640.015000", "154641.215000", "154642.415000", "154643.615000", "154644.815000", "154646.015000", "154647.215000", "154648.415000", "154649.615000", "154650.815000", "154652.015000", "154653.215000", "154654.415000", "154655.615000", "154656.815000", "154658.015000", "154659.215000", "154700.415000", "154701.615000", "154702.815000", "154704.015000", "154705.215000", "154706.415000", "154707.615000", "154708.815000", "154710.015000", "154711.215000", "154712.415000", "154713.615000", "154714.815000", "154716.015000", "154717.215000", "154718.415000", "154719.615000", "154720.815000", "154722.015000", "154723.215000", "154724.415000"],
      "ContentTime": ["154017.977000", "154017.980000", "154017.983000", "154017.986000", "154017.988000", "154017.991000", "154017.993000", "154017.996000", "154017.998000", "154018.002000", "154018.005000", "154018.007000", "154018.010000", "154018.026000", "154018.028000", "154018.031000", "154018.034000", "154018.036000", "154018.039000", "154018.041000", "154018.044000", "154018.046000", "154018.049000", "154018.057000", "154018.059000", "154018.062000", "154018.064000", "154018.067000", "154018.069000", "154018.079000", "154018.081000", "154018.084000", "154018.087000", "154018.089000", "154018.092000", "154057.972000", "154057.976000", "154057.978000", "154057.981000", "154057.983000", "154057.986000", "154057.989000", "154057.991000", "154057.994000", "154057.996000", "154058.022000", "154058.024000", "154058.027000", "154058.029000", "154058.032000", "154058.035000", "154058.037000", "154058.040000", "154058.042000", "154058.045000", "154058.047000", "154058.050000", "154058.053000", "154058.055000", "154058.058000", "154058.060000", "154058.063000", "154058.066000", "154058.068000", "154058.071000", "154058.073000", "154058.076000", "154058.079000", "154137.974000", "154137.976000", "154137.979000", "154137.982000", "154137.984000", "154137.993000", "154137.996000", "154138.000000", "154138.003000", "154138.005000", "154138.008000", "154138.011000", "154138.021000", "154138.024000", "154138.026000", "154138.029000", "154138.032000", "154138.034000", "154138.037000", "154138.039000", "154138.042000", "154138.045000", "154138.047000", "154138.050000", "154138.053000", "154138.055000", "154138.058000", "154138.061000", "154138.063000", "154138.066000", "154138.068000", "154138.071000", "154138.074000", "154138.076000", "154217.972000", "154217.975000", "154217.978000", "154217.980000", "154217.983000", "154217.986000", "154217.988000", "154217.991000", "154217.994000", "154217.997000", "154217.999000", "154218.002000", "154218.005000", "154218.007000", "154218.010000", "154218.012000", "154218.015000", "154218.018000", "154218.020000", "154218.023000", "154218.025000", "154218.028000", "154218.031000", "154218.033000", "154218.036000", "154218.038000", "154218.041000", "154218.043000", "154218.046000", "154218.049000", "154218.051000", "154218.054000", "154218.057000", "154257.973000", "154257.976000", "154257.978000", "154257.981000", "154257.984000", "154257.986000", "154257.989000", "154257.991000", "154257.994000", "154257.997000", "154258.000000", "154258.003000", "154258.006000", "154258.008000", "154258.011000", "154258.014000", "154258.016000", "154258.019000", "154258.021000", "154258.024000", "154258.027000", "154258.029000", "154258.032000", "154258.034000", "154258.037000", "154258.040000", "154258.042000", "154258.045000", "154258.047000", "154258.050000", "154258.053000", "154258.055000", "154258.058000", "154337.974000", "154337.976000", "154337.979000", "154337.982000", "154337.984000", "154337.987000", "154337.989000", "154337.992000", "154337.995000", "154337.997000", "154338.000000", "154338.002000", "154338.005000", "154338.008000", "154338.010000", "154338.013000", "154338.016000", "154338.018000", "154338.021000", "154338.023000", "154338.026000", "154338.028000", "154338.034000", "154338.037000", "154338.039000", "154338.042000", "154338.044000", "154338.047000", "154338.050000", "154338.052000", "154338.055000", "154338.057000", "154338.060000", "154338.063000", "154417.972000", "154417.975000", "154417.978000", "154417.981000", "154417.983000", "154417.986000", "154417.988000", "154418.008000", "154418.016000", "154418.018000", "154418.021000", "154418.024000", "154418.026000", "154418.029000", "154418.031000", "154418.034000", "154418.037000", "154418.039000", "154418.042000", "154418.045000", "154418.047000", "154418.050000", "154418.053000", "154418.055000", "154418.058000", "154418.060000", "154418.063000", "154418.065000", "154418.068000", "154418.079000", "154418.082000", "154418.085000", "154418.087000", "154457.973000", "154457.976000", "154457.988000", "154457.991000", "154457.993000", "154457.996000", "154457.998000", "154458.002000", "154458.005000", "154458.007000", "154458.010000", "154458.012000", "154458.015000", "154458.018000", "154458.020000", "154458.023000", "154458.026000", "154458.028000", "154458.031000", "154458.034000", "154458.036000", "154458.039000", "154458.041000", "154458.044000", "154458.047000", "154458.049000", "154458.052000", "154458.055000", "154458.057000", "154458.060000", "154458.062000", "154458.065000", "154458.068000", "154537.972000", "154537.975000", "154537.978000", "154537.988000", "154537.990000", "154537.993000", "154537.996000", "154537.998000", "154538.002000", "154538.004000", "154538.007000", "154538.010000", "154538.012000", "154538.015000", "154538.018000", "154538.020000", "154538.023000", "154538.025000", "154538.028000", "154538.031000", "154538.033000", "154538.036000", "154538.039000", "154538.041000", "154538.044000", "154538.046000", "154538.049000", "154538.051000", "154538.054000", "154538.057000", "154538.059000", "154538.062000", "154538.064000", "154538.067000", "154617.974000", "154617.976000", "154617.979000", "154617.982000", "154617.985000", "154617.987000", "154617.990000", "154617.992000", "154617.995000", "154617.998000", "154618.001000", "154618.004000", "154618.007000", "154618.009000", "154618.012000", "154618.014000", "154618.017000", "154618.019000", "154618.022000", "154618.025000", "154618.028000", "154618.030000", "154618.033000", "154618.035000", "154618.038000", "154618.041000", "154618.043000", "154618.046000", "154618.048000", "154618.051000", "154618.053000", "154618.056000", "154618.059000", "154657.973000", "154657.975000", "154657.978000", "154657.981000", "154657.983000", "154657.986000", "154657.989000", "154657.991000", "154657.994000", "154657.997000", "154658.000000", "154658.003000", "154658.005000", "154658.008000", "154658.011000", "154658.013000", "154658.016000", "154658.019000", "154658.021000", "154658.024000", "154658.027000", "154658.029000", "154658.032000", "154658.034000", "154658.037000", "154658.040000", "154658.042000", "154658.045000", "154658.047000", "154658.050000", "154658.053000", "154658.055000", "154658.058000", "154725.951000", "154725.955000", "154725.957000", "154725.960000", "154725.962000", "154725.965000", "154725.968000", "154725.971000", "154725.973000", "154725.976000", "154725.979000", "154725.981000", "154725.984000", "154725.987000", "154725.990000", "154725.992000", "154725.995000", "154725.998000", "154726.001000", "154726.003000", "154726.006000", "154726.009000", "154726.011000", "154726.014000"],
      "InstanceCreationTime": ["154017.977000", "154017.980000", "154017.983000", "154017.986000", "154017.988000", "154017.991000", "154017.993000", "154017.996000", "154017.998000", "154018.002000", "154018.005000", "154018.007000", "154018.010000", "154018.026000", "154018.028000", "154018.031000", "154018.034000", "154018.036000", "154018.039000", "154018.041000", "154018.044000", "154018.046000", "154018.049000", "154018.057000", "154018.059000", "154018.062000", "154018.064000", "154018.067000", "154018.069000", "154018.079000", "154018.081000", "154018.084000", "154018.087000", "154018.089000", "154018.092000", "154057.972000", "154057.976000", "154057.978000", "154057.981000", "154057.983000", "154057.986000", "154057.989000", "154057.991000", "154057.994000", "154057.996000", "154058.022000", "154058.024000", "154058.027000", "154058.029000", "154058.032000", "154058.035000", "154058.037000", "154058.040000", "154058.042000", "154058.045000", "154058.047000", "154058.050000", "154058.053000", "154058.055000", "154058.058000", "154058.060000", "154058.063000", "154058.066000", "154058.068000", "154058.071000", "154058.073000", "154058.076000", "154058.079000", "154137.974000", "154137.976000", "154137.979000", "154137.982000", "154137.984000", "154137.993000", "154137.996000", "154138.000000", "154138.003000", "154138.005000", "154138.008000", "154138.011000", "154138.021000", "154138.024000", "154138.026000", "154138.029000", "154138.032000", "154138.034000", "154138.037000", "154138.039000", "154138.042000", "154138.045000", "154138.047000", "154138.050000", "154138.053000", "154138.055000", "154138.058000", "154138.061000", "154138.063000", "154138.066000", "154138.068000", "154138.071000", "154138.074000", "154138.076000", "154217.972000", "154217.975000", "154217.978000", "154217.980000", "154217.983000", "154217.986000", "154217.988000", "154217.991000", "154217.994000", "154217.997000", "154217.999000", "154218.002000", "154218.005000", "154218.007000", "154218.010000", "154218.012000", "154218.015000", "154218.018000", "154218.020000", "154218.023000", "154218.025000", "154218.028000", "154218.031000", "154218.033000", "154218.036000", "154218.038000", "154218.041000", "154218.043000", "154218.046000", "154218.049000", "154218.051000", "154218.054000", "154218.057000", "154257.973000", "154257.976000", "154257.978000", "154257.981000", "154257.984000", "154257.986000", "154257.989000", "154257.991000", "154257.994000", "154257.997000", "154258.000000", "154258.003000", "154258.006000", "154258.008000", "154258.011000", "154258.014000", "154258.016000", "154258.019000", "154258.021000", "154258.024000", "154258.027000", "154258.029000", "154258.032000", "154258.034000", "154258.037000", "154258.040000", "154258.042000", "154258.045000", "154258.047000", "154258.050000", "154258.053000", "154258.055000", "154258.058000", "154337.974000", "154337.976000", "154337.979000", "154337.982000", "154337.984000", "154337.987000", "154337.989000", "154337.992000", "154337.995000", "154337.997000", "154338.000000", "154338.002000", "154338.005000", "154338.008000", "154338.010000", "154338.013000", "154338.016000", "154338.018000", "154338.021000", "154338.023000", "154338.026000", "154338.028000", "154338.034000", "154338.037000", "154338.039000", "154338.042000", "154338.044000", "154338.047000", "154338.050000", "154338.052000", "154338.055000", "154338.057000", "154338.060000", "154338.063000", "154417.972000", "154417.975000", "154417.978000", "154417.981000", "154417.983000", "154417.986000", "154417.988000", "154418.008000", "154418.016000", "154418.018000", "154418.021000", "154418.024000", "154418.026000", "154418.029000", "154418.031000", "154418.034000", "154418.037000", "154418.039000", "154418.042000", "154418.045000", "154418.047000", "154418.050000", "154418.053000", "154418.055000", "154418.058000", "154418.060000", "154418.063000", "154418.065000", "154418.068000", "154418.079000", "154418.082000", "154418.085000", "154418.087000", "154457.973000", "154457.976000", "154457.988000", "154457.991000", "154457.993000", "154457.996000", "154457.998000", "154458.002000", "154458.005000", "154458.007000", "154458.010000", "154458.012000", "154458.015000", "154458.018000", "154458.020000", "154458.023000", "154458.026000", "154458.028000", "154458.031000", "154458.034000", "154458.036000", "154458.039000", "154458.041000", "154458.044000", "154458.047000", "154458.049000", "154458.052000", "154458.055000", "154458.057000", "154458.060000", "154458.062000", "154458.065000", "154458.068000", "154537.972000", "154537.975000", "154537.978000", "154537.988000", "154537.990000", "154537.993000", "154537.996000", "154537.998000", "154538.002000", "154538.004000", "154538.007000", "154538.010000", "154538.012000", "154538.015000", "154538.018000", "154538.020000", "154538.023000", "154538.025000", "154538.028000", "154538.031000", "154538.033000", "154538.036000", "154538.039000", "154538.041000", "154538.044000", "154538.046000", "154538.049000", "154538.051000", "154538.054000", "154538.057000", "154538.059000", "154538.062000", "154538.064000", "154538.067000", "154617.974000", "154617.976000", "154617.979000", "154617.982000", "154617.985000", "154617.987000", "154617.990000", "154617.992000", "154617.995000", "154617.998000", "154618.001000", "154618.004000", "154618.007000", "154618.009000", "154618.012000", "154618.014000", "154618.017000", "154618.019000", "154618.022000", "154618.025000", "154618.028000", "154618.030000", "154618.033000", "154618.035000", "154618.038000", "154618.041000", "154618.043000", "154618.046000", "154618.048000", "154618.051000", "154618.053000", "154618.056000", "154618.059000", "154657.973000", "154657.975000", "154657.978000", "154657.981000", "154657.983000", "154657.986000", "154657.989000", "154657.991000", "154657.994000", "154657.997000", "154658.000000", "154658.003000", "154658.005000", "154658.008000", "154658.011000", "154658.013000", "154658.016000", "154658.019000", "154658.021000", "154658.024000", "154658.027000", "154658.029000", "154658.032000", "154658.034000", "154658.037000", "154658.040000", "154658.042000", "154658.045000", "154658.047000", "154658.050000", "154658.053000", "154658.055000", "154658.058000", "154725.951000", "154725.955000", "154725.957000", "154725.960000", "154725.962000", "154725.965000", "154725.968000", "154725.971000", "154725.973000", "154725.976000", "154725.979000", "154725.981000", "154725.984000", "154725.987000", "154725.990000", "154725.992000", "154725.995000", "154725.998000", "154726.001000", "154726.003000", "154726.006000", "154726.009000", "154726.011000", "154726.014000"],
      "InstanceNumber": [1, 2, 3, 4, 5, 6, 7, 8, 9, 10, 11, 12, 13, 14, 15, 16, 17, 18, 19, 20, 21, 22, 23, 24, 25, 26, 27, 28, 29, 30, 31, 32, 33, 34, 35, 36, 37, 38, 39, 40, 41, 42, 43, 44, 45, 46, 47, 48, 49, 50, 51, 52, 53, 54, 55, 56, 57, 58, 59, 60, 61, 62, 63, 64, 65, 66, 67, 68, 69, 70, 71, 72, 73, 74, 75, 76, 77, 78, 79, 80, 81, 82, 83, 84, 85, 86, 87, 88, 89, 90, 91, 92, 93, 94, 95, 96, 97, 98, 99, 100, 101, 102, 103, 104, 105, 106, 107, 108, 109, 110, 111, 112, 113, 114, 115, 116, 117, 118, 119, 120, 121, 122, 123, 124, 125, 126, 127, 128, 129, 130, 131, 132, 133, 134, 135, 136, 137, 138, 139, 140, 141, 142, 143, 144, 145, 146, 147, 148, 149, 150, 151, 152, 153, 154, 155, 156, 157, 158, 159, 160, 161, 162, 163, 164, 165, 166, 167, 168, 169, 170, 171, 172, 173, 174, 175, 176, 177, 178, 179, 180, 181, 182, 183, 184, 185, 186, 187, 188, 189, 190, 191, 192, 193, 194, 195, 196, 197, 198, 199, 200, 201, 202, 203, 204, 205, 206, 207, 208, 209, 210, 211, 212, 213, 214, 215, 216, 217, 218, 219, 220, 221, 222, 223, 224, 225, 226, 227, 228, 229, 230, 231, 232, 233, 234, 235, 236, 237, 238, 239, 240, 241, 242, 243, 244, 245, 246, 247, 248, 249, 250, 251, 252, 253, 254, 255, 256, 257, 258, 259, 260, 261, 262, 263, 264, 265, 266, 267, 268, 269, 270, 271, 272, 273, 274, 275, 276, 277, 278, 279, 280, 281, 282, 283, 284, 285, 286, 287, 288, 289, 290, 291, 292, 293, 294, 295, 296, 297, 298, 299, 300, 301, 302, 303, 304, 305, 306, 307, 308, 309, 310, 311, 312, 313, 314, 315, 316, 317, 318, 319, 320, 321, 322, 323, 324, 325, 326, 327, 328, 329, 330, 331, 332, 333, 334, 335, 336, 337, 338, 339, 340, 341, 342, 343, 344, 345, 346, 347, 348, 349, 350, 351, 352, 353, 354, 355, 356, 357, 358, 359, 360, 361, 362, 363, 364, 365, 366, 367, 368, 369, 370, 371, 372, 373, 374, 375, 376, 377, 378, 379, 380, 381, 382, 383, 384, 385, 386, 387, 388, 389, 390, 391, 392],
