{
  "AcquisitionMatrixPE": 88,
  "AcquisitionNumber": 1,
  "AcquisitionTime": "16:00:30.200000",
  "BandwidthPerPixelPhaseEncode": 19.592,
  "BaseResolution": 88,
  "BodyPartExamined": "BRAIN",
  "ConsistencyInfo": "N4_VE11C_LATEST_20160120",
  "ConversionSoftware": "dcm2niix",
  "ConversionSoftwareVersion": "v1.0.20190902",
  "DerivedVendorReportedEchoSpacing": 0.000580014,
  "DeviceSerialNumber": "67050",
  "DwellTime": 2.6e-06,
  "EchoTime": 0.033,
  "EchoTrainLength": 88,
  "EffectiveEchoSpacing": 0.000580014,
  "FlipAngle": 62,
  "ImageOrientationPatientDICOM": [0.99862, 0.00904778, 0.0517284, -0.0101093, 0.999743, 0.0202959],
  "ImageType": [
    "ORIGINAL",
    "PRIMARY",
    "M",
    "ND",
    "MOSAIC"
],
  "ImagingFrequency": 123.251,
  "InPlanePhaseEncodingDirectionDICOM": "COL",
  "InstitutionAddress": "Olive_Street_60_Providence_RI_US_02912",
  "InstitutionName": "BROWN_UNIVERSITY_MRF",
  "InstitutionalDepartmentName": "Department",
  "MRAcquisitionType": "2D",
  "MagneticFieldStrength": 3,
  "Manufacturer": "Siemens",
  "ManufacturersModelName": "Prisma_fit",
  "Modality": "MR",
  "MultibandAccelerationFactor": 4,
  "PartialFourier": 1,
  "PatientPosition": "HFS",
  "PercentPhaseFOV": 100,
  "PhaseEncodingDirection": "j-",
  "PhaseEncodingSteps": 88,
  "PhaseResolution": 1,
  "PixelBandwidth": 2185,
  "ProcedureStepDescription": "ASHENHAV_1222",
  "ProtocolName": "func-bold_task-RDMlocalizer_run-01",
  "PulseSequenceDetails": "%SiemensSeq%_ep2d_bold",
  "ReceiveCoilActiveElements": "HC1-7",
  "ReceiveCoilName": "HeadNeck_64",
  "ReconMatrixPE": 88,
  "RefLinesPE": 8,
  "RepetitionTime": 1.2,
  "SAR": 0.0606275,
  "ScanOptions": "FS",
  "ScanningSequence": "EP",
  "SequenceName": "_epfid2d1_88",
  "SequenceVariant": "SK",
  "SeriesDescription": "func-bold_task-RDMlocalizer_run-01",
  "SeriesNumber": 19,
  "ShimSetting": [1749, -9088, 4398, 530, -107, -81, 4, 1],
  "SliceThickness": 2.4,
  "SliceTiming": [0.5525, 0, 0.63, 0.08, 0.71, 0.1575, 0.7875, 0.2375, 0.865, 0.315, 0.945, 0.395, 1.0225, 0.4725, 1.1025, 0.5525, 0, 0.63, 0.08, 0.71, 0.1575, 0.7875, 0.2375, 0.865, 0.315, 0.945, 0.395, 1.0225, 0.4725, 1.1025, 0.5525, 0, 0.63, 0.08, 0.71, 0.1575, 0.7875, 0.2375, 0.865, 0.315, 0.945, 0.395, 1.0225, 0.4725, 1.1025, 0.5525, 0, 0.63, 0.08, 0.71, 0.1575, 0.7875, 0.2375, 0.865, 0.315, 0.945, 0.395, 1.0225, 0.4725, 1.1025],
  "SoftwareVersions": "syngo_MR_E11",
  "SpacingBetweenSlices": 2.4,
  "StationName": "AWP67050",
  "TaskName": "RDMlocalizer",
  "TotalReadoutTime": 0.0504612,
  "TxRefAmp": 219.808,
  "dcmmeta_affine": [
    [-2.394418954849243, -0.024239283055067062, 0.12367545068264008, 103.76765441894531],
    [-0.021694105118513107, 2.3971107006073, 0.04989797994494438, -98.03829193115234],
    [0.12403051555156708, -0.04866401478648186, 2.396291732788086, -71.09801483154297],
    [0.0, 0.0, 0.0, 1.0]
],
  "dcmmeta_reorient_transform": [
    [0.0, -1.0, 0.0, 87.0],
    [1.0, 0.0, 0.0, 0.0],
    [0.0, 0.0, 1.0, 0.0],
    [0.0, 0.0, 0.0, 1.0]
],
  "dcmmeta_shape": [88, 88, 60, 195],
  "dcmmeta_slice_dim": 2,
  "dcmmeta_version": 0.6,
  "global": {
    "const": {
      "AcquisitionMatrix": [88, 0, 0, 88],
      "AngioFlag": "N",
      "BitsAllocated": 16,
      "BitsStored": 12,
      "BodyPartExamined": "BRAIN",
      "Columns": 704,
      "DeidentificationMethodCodeSequence": [
        {
          "CodeMeaning": "XNAT DicomEdit 6 Script",
          "CodeValue": "3",
          "CodingSchemeDesignator": "XNAT",
          "CodingSchemeVersion": "1.0"}
],
      "EchoNumbers": 1,
      "EchoTime": 33.0,
      "EchoTrainLength": 88,
      "FlipAngle": 62.0,
      "HighBit": 11,
      "ImageOrientationPatient": [0.99862020487187, 0.00904777854967, 0.05172836866729, -0.0101092745987, 0.99974290659484, 0.02029589319042],
      "ImagePositionPatient": [-831.6741494726, -855.50226399141, -128.52169941983],
      "ImageType": [
        "ORIGINAL",
        "PRIMARY",
        "M",
        "ND",
        "MOSAIC"
],
      "ImagedNucleus": "1H",
      "ImagingFrequency": 123.250778,
      "InPlanePhaseEncodingDirection": "COL",
      "MRAcquisitionType": "2D",
      "MagneticFieldStrength": 3.0,
      "Manufacturer": "SIEMENS",
      "ManufacturerModelName": "Prisma_fit",
      "Modality": "MR",
      "NumberOfAverages": 1.0,
      "NumberOfPhaseEncodingSteps": 88,
      "PercentPhaseFieldOfView": 100.0,
      "PercentSampling": 100.0,
      "PerformedProcedureStepStartTime": "143433.499000",
      "PhotometricInterpretation": "MONOCHROME2",
      "PixelBandwidth": 2185.0,
      "PixelRepresentation": 0,
      "PixelSpacing": [2.3977272510529, 2.3977272510529],
      "ProtocolName": "func-bold_task-RDMlocalizer_run-01",
      "RepetitionTime": 1200.0,
      "Rows": 704,
      "SAR": 0.06062753415257,
      "SamplesPerPixel": 1,
      "ScanOptions": "FS",
      "ScanningSequence": "EP",
      "SequenceName": "*epfid2d1_88",
      "SequenceVariant": "SK",
      "SeriesDescription": "func-bold_task-RDMlocalizer_run-01",
      "SeriesNumber": 19,
      "SeriesTime": "160057.974000",
      "SliceLocation": -67.679162675399,
      "SliceThickness": 2.4000000953674,
      "SmallestImagePixelValue": 0,
      "SoftwareVersions": "syngo MR E11",
      "SpacingBetweenSlices": 2.3999999914005,
      "SpecificCharacterSet": "ISO_IR 100",
      "StudyID": "1",
      "StudyTime": "143433.413000",
      "TransmitCoilName": "Body",
      "VariableFlipAngleFlag": "N",
      "WindowCenterWidthExplanation": "Algo1",
      "dBdt": 0.0},
    "slices": {}
  },
  "time": {
    "samples": {
      "AcquisitionNumber": [1, 2, 3, 4, 5, 6, 7, 8, 9, 10, 11, 12, 13, 14, 15, 16, 17, 18, 19, 20, 21, 22, 23, 24, 25, 26, 27, 28, 29, 30, 31, 32, 33, 34, 35, 36, 37, 38, 39, 40, 41, 42, 43, 44, 45, 46, 47, 48, 49, 50, 51, 52, 53, 54, 55, 56, 57, 58, 59, 60, 61, 62, 63, 64, 65, 66, 67, 68, 69, 70, 71, 72, 73, 74, 75, 76, 77, 78, 79, 80, 81, 82, 83, 84, 85, 86, 87, 88, 89, 90, 91, 92, 93, 94, 95, 96, 97, 98, 99, 100, 101, 102, 103, 104, 105, 106, 107, 108, 109, 110, 111, 112, 113, 114, 115, 116, 117, 118, 119, 120, 121, 122, 123, 124, 125, 126, 127, 128, 129, 130, 131, 132, 133, 134, 135, 136, 137, 138, 139, 140, 141, 142, 143, 144, 145, 146, 147, 148, 149, 150, 151, 152, 153, 154, 155, 156, 157, 158, 159, 160, 161, 162, 163, 164, 165, 166, 167, 168, 169, 170, 171, 172, 173, 174, 175, 176, 177, 178, 179, 180, 181, 182, 183, 184, 185, 186, 187, 188, 189, 190, 191, 192, 193, 194, 195],
      "AcquisitionTime": ["160030.200000", "160031.400000", "160032.600000", "160033.800000", "160035.000000", "160036.200000", "160037.400000", "160038.600000", "160039.800000", "160041.000000", "160042.200000", "160043.400000", "160044.600000", "160045.800000", "160047.000000", "160048.200000", "160049.400000", "160050.600000", "160051.800000", "160053.000000", "160054.200000", "160055.400000", "160056.600000", "160057.800000", "160059.000000", "160100.200000", "160101.400000", "160102.600000", "160103.800000", "160105.000000", "160106.200000", "160107.400000", "160108.600000", "160109.800000", "160111.000000", "160112.200000", "160113.400000", "160114.600000", "160115.800000", "160117.000000", "160118.200000", "160119.400000", "160120.600000", "160121.800000", "160123.000000", "160124.200000", "160125.400000", "160126.600000", "160127.800000", "160129.000000", "160130.200000", "160131.400000", "160132.600000", "160133.800000", "160135.000000", "160136.200000", "160137.400000", "160138.600000", "160139.800000", "160141.000000", "160142.200000", "160143.400000", "160144.600000", "160145.800000", "160147.000000", "160148.200000", "160149.400000", "160150.600000", "160151.800000", "160153.000000", "160154.200000", "160155.400000", "160156.600000", "160157.800000", "160159.000000", "160200.200000", "160201.400000", "160202.600000", "160203.800000", "160205.000000", "160206.200000", "160207.400000", "160208.600000", "160209.800000", "160211.000000", "160212.200000", "160213.400000", "160214.600000", "160215.800000", "160217.000000", "160218.200000", "160219.400000", "160220.600000", "160221.800000", "160223.000000", "160224.200000", "160225.400000", "160226.600000", "160227.800000", "160229.000000", "160230.200000", "160231.400000", "160232.600000", "160233.800000", "160235.000000", "160236.200000", "160237.400000", "160238.600000", "160239.800000", "160241.000000", "160242.200000", "160243.400000", "160244.600000", "160245.800000", "160247.000000", "160248.200000", "160249.400000", "160250.600000", "160251.800000", "160253.000000", "160254.200000", "160255.400000", "160256.600000", "160257.800000", "160259.000000", "160300.200000", "160301.400000", "160302.600000", "160303.800000", "160305.000000", "160306.200000", "160307.400000", "160308.600000", "160309.800000", "160311.000000", "160312.200000", "160313.400000", "160314.600000", "160315.800000", "160317.000000", "160318.200000", "160319.400000", "160320.600000", "160321.800000", "160323.000000", "160324.200000", "160325.400000", "160326.600000", "160327.800000", "160329.000000", "160330.200000", "160331.400000", "160332.600000", "160333.800000", "160335.000000", "160336.200000", "160337.400000", "160338.600000", "160339.800000", "160341.000000", "160342.200000", "160343.400000", "160344.600000", "160345.800000", "160347.000000", "160348.200000", "160349.400000", "160350.600000", "160351.800000", "160353.000000", "160354.200000", "160355.400000", "160356.600000", "160357.800000", "160359.000000", "160400.200000", "160401.400000", "160402.600000", "160403.800000", "160405.000000", "160406.200000", "160407.400000", "160408.600000", "160409.800000", "160411.000000", "160412.200000", "160413.400000", "160414.600000", "160415.800000", "160417.000000", "160418.200000", "160419.400000", "160420.600000", "160421.800000", "160423.000000"],
      "ContentTime": ["160057.977000", "160057.980000", "160057.991000", "160058.001000", "160058.003000", "160058.006000", "160058.009000", "160058.011000", "160058.014000", "160058.016000", "160058.019000", "160058.022000", "160058.024000", "160058.041000", "160058.044000", "160058.047000", "160058.049000", "160058.052000", "160058.054000", "160058.057000", "160058.059000", "160058.062000", "160058.065000", "160137.973000", "160137.975000", "160137.978000", "160137.981000", "160137.983000", "160137.986000", "160137.988000", "160137.991000", "160137.994000", "160137.996000", "160137.999000", "160138.001000", "160138.004000", "160138.007000", "160138.009000", "160138.012000", "160138.015000", "160138.017000", "160138.020000", "160138.022000", "160138.025000", "160138.028000", "160138.030000", "160138.033000", "160138.035000", "160138.038000", "160138.048000", "160138.051000", "160138.054000", "160138.056000", "160138.059000", "160138.062000", "160138.069000", "160217.973000", "160217.976000", "160217.979000", "160217.981000", "160217.984000", "160217.987000", "160217.989000", "160217.992000", "160217.994000", "160217.997000", "160217.999000", "160218.002000", "160218.005000", "160218.007000", "160218.010000", "160218.012000", "160218.015000", "160218.017000", "160218.020000", "160218.023000", "160218.026000", "160218.028000", "160218.031000", "160218.034000", "160218.037000", "160218.040000", "160218.042000", "160218.045000", "160218.048000", "160218.050000", "160218.053000", "160218.056000", "160218.058000", "160257.972000", "160257.975000", "160257.978000", "160257.981000", "160257.983000", "160257.986000", "160257.989000", "160257.991000", "160257.994000", "160257.996000", "160258.000000", "160258.003000", "160258.005000", "160258.008000", "160258.010000", "160258.013000", "160258.016000", "160258.018000", "160258.021000", "160258.023000", "160258.026000", "160258.028000", "160258.031000", "160258.034000", "160258.036000", "160258.039000", "160258.041000", "160258.044000", "160258.047000", "160258.049000", "160258.052000", "160258.054000", "160258.063000", "160258.065000", "160337.972000", "160337.975000", "160337.978000", "160337.981000", "160337.983000", "160337.986000", "160337.989000", "160337.991000", "160337.994000", "160337.997000", "160338.000000", "160338.003000", "160338.005000", "160338.008000", "160338.011000", "160338.013000", "160338.016000", "160338.018000", "160338.021000", "160338.024000", "160338.026000", "160338.029000", "160338.032000", "160338.034000", "160338.037000", "160338.040000", "160338.042000", "160338.045000", "160338.047000", "160338.050000", "160338.053000", "160338.055000", "160338.058000", "160417.973000", "160417.975000", "160417.978000", "160417.981000", "160417.983000", "160417.986000", "160417.989000", "160417.991000", "160417.994000", "160417.996000", "160418.000000", "160418.003000", "160418.005000", "160418.008000", "160418.011000", "160418.013000", "160418.016000", "160418.018000", "160418.021000", "160418.023000", "160418.026000", "160418.029000", "160418.031000", "160418.034000", "160418.036000", "160418.039000", "160418.042000", "160418.045000", "160418.048000", "160418.050000", "160418.053000", "160418.056000", "160418.058000", "160424.090000", "160424.093000", "160424.096000", "160424.098000", "160424.102000", "160424.104000"],
      "InstanceCreationTime": ["160057.977000", "160057.980000", "160057.991000", "160058.001000", "160058.003000", "160058.006000", "160058.009000", "160058.011000", "160058.014000", "160058.016000", "160058.019000", "160058.022000", "160058.024000", "160058.041000", "160058.044000", "160058.047000", "160058.049000", "160058.052000", "160058.054000", "160058.057000", "160058.059000", "160058.062000", "160058.065000", "160137.973000", "160137.975000", "160137.978000", "160137.981000", "160137.983000", "160137.986000", "160137.988000", "160137.991000", "160137.994000", "160137.996000", "160137.999000", "160138.001000", "160138.004000", "160138.007000", "160138.009000", "160138.012000", "160138.015000", "160138.017000", "160138.020000", "160138.022000", "160138.025000", "160138.028000", "160138.030000", "160138.033000", "160138.035000", "160138.038000", "160138.048000", "160138.051000", "160138.054000", "160138.056000", "160138.059000", "160138.062000", "160138.069000", "160217.973000", "160217.976000", "160217.979000", "160217.981000", "160217.984000", "160217.987000", "160217.989000", "160217.992000", "160217.994000", "160217.997000", "160217.999000", "160218.002000", "160218.005000", "160218.007000", "160218.010000", "160218.012000", "160218.015000", "160218.017000", "160218.020000", "160218.023000", "160218.026000", "160218.028000", "160218.031000", "160218.034000", "160218.037000", "160218.040000", "160218.042000", "160218.045000", "160218.048000", "160218.050000", "160218.053000", "160218.056000", "160218.058000", "160257.972000", "160257.975000", "160257.978000", "160257.981000", "160257.983000", "160257.986000", "160257.989000", "160257.991000", "160257.994000", "160257.996000", "160258.000000", "160258.003000", "160258.005000", "160258.008000", "160258.010000", "160258.013000", "160258.016000", "160258.018000", "160258.021000", "160258.023000", "160258.026000", "160258.028000", "160258.031000", "160258.034000", "160258.036000", "160258.039000", "160258.041000", "160258.044000", "160258.047000", "160258.049000", "160258.052000", "160258.054000", "160258.063000", "160258.065000", "160337.972000", "160337.975000", "160337.978000", "160337.981000", "160337.983000", "160337.986000", "160337.989000", "160337.991000", "160337.994000", "160337.997000", "160338.000000", "160338.003000", "160338.005000", "160338.008000", "160338.011000", "160338.013000", "160338.016000", "160338.018000", "160338.021000", "160338.024000", "160338.026000", "160338.029000", "160338.032000", "160338.034000", "160338.037000", "160338.040000", "160338.042000", "160338.045000", "160338.047000", "160338.050000", "160338.053000", "160338.055000", "160338.058000", "160417.973000", "160417.975000", "160417.978000", "160417.981000", "160417.983000", "160417.986000", "160417.989000", "160417.991000", "160417.994000", "160417.996000", "160418.000000", "160418.003000", "160418.005000", "160418.008000", "160418.011000", "160418.013000", "160418.016000", "160418.018000", "160418.021000", "160418.023000", "160418.026000", "160418.029000", "160418.031000", "160418.034000", "160418.036000", "160418.039000", "160418.042000", "160418.045000", "160418.048000", "160418.050000", "160418.053000", "160418.056000", "160418.058000", "160424.090000", "160424.093000", "160424.096000", "160424.098000", "160424.102000", "160424.104000"],
      "InstanceNumber": [1, 2, 3, 4, 5, 6, 7, 8, 9, 10, 11, 12, 13, 14, 15, 16, 17, 18, 19, 20, 21, 22, 23, 24, 25, 26, 27, 28, 29, 30, 31, 32, 33, 34, 35, 36, 37, 38, 39, 40, 41, 42, 43, 44, 45, 46, 47, 48, 49, 50, 51, 52, 53, 54, 55, 56, 57, 58, 59, 60, 61, 62, 63, 64, 65, 66, 67, 68, 69, 70, 71, 72, 73, 74, 75, 76, 77, 78, 79, 80, 81, 82, 83, 84, 85, 86, 87, 88, 89, 90, 91, 92, 93, 94, 95, 96, 97, 98, 99, 100, 101, 102, 103, 104, 105, 106, 107, 108, 109, 110, 111, 112, 113, 114, 115, 116, 117, 118, 119, 120, 121, 122, 123, 124, 125, 126, 127, 128, 129, 130, 131, 132, 133, 134, 135, 136, 137, 138, 139, 140, 141, 142, 143, 144, 145, 146, 147, 148, 149, 150, 151, 152, 153, 154, 155, 156, 157, 158, 159, 160, 161, 162, 163, 164, 165, 166, 167, 168, 169, 170, 171, 172, 173, 174, 175, 176, 177, 178, 179, 180, 181, 182, 183, 184, 185, 186, 187, 188, 189, 190, 191, 192, 193, 194, 195],
      "LargestImagePixelValue": [1948, 1883, 1842, 1833, 1810, 1806, 1819, 1811, 1802, 1805, 1797, 1800, 1808, 1817, 1803, 1801, 1814, 1807, 1817, 1865, 1810, 1815, 1840, 1803, 1808, 1805, 1827, 1803, 1804, 1812, 1806, 1805, 1795, 1812, 1810, 1800, 1797, 1806, 1802, 1813, 1807, 1802, 1797, 1800, 1800, 1793, 1793, 1816, 1796, 1797, 1808, 1805, 1797, 1803, 1796, 1798, 1798, 1803, 1798, 1806, 1794, 1805, 1801, 1784, 1799, 1793, 1797, 1796, 1791, 1804, 1804, 1801, 1792, 1787, 1780, 1788, 1789, 1783, 1782, 1786, 1795, 1786, 1782, 1789, 1777, 1787, 1773, 1783, 1794, 1787, 1799, 1772, 1790, 1789, 1788, 1779, 1811, 1794, 1798, 1785, 1787, 1781, 1770, 1783, 1798, 1789, 1802, 1800, 1797, 1797, 1778, 1778, 1773, 1770, 1762, 1766, 1764, 1777, 1769, 1774, 1757, 1790, 1784, 1773, 1781, 1765, 1769, 1778, 1780, 1783, 1782, 1783, 1799, 1785, 1797, 1812, 1792, 1797, 1776, 1769, 1779, 1780, 1784, 1774, 1762, 1770, 1786, 1760, 1755, 1773, 1766, 1774, 1784, 1788, 1776, 1802, 1779, 1782, 1782, 1792, 1811, 1787, 1782, 1794, 1763, 1794, 1788, 1802, 1780, 1789, 1780, 1767, 1796, 1767, 1764, 1769, 1782, 1763, 1767, 1771, 1786, 1771, 1770, 1771, 1785, 1775, 1761, 1772, 1767, 1774, 1757, 1757, 1793, 1787, 1771],
      "WindowCenter": [592.0, 589.0, 587.0, 588.0, 587.0, 588.0, 589.0, 589.0, 589.0, 589.0, 589.0, 589.0, 588.0, 588.0, 587.0, 587.0, 587.0, 587.0, 588.0, 589.0, 589.0, 589.0, 589.0, 589.0, 589.0, 589.0, 589.0, 589.0, 588.0, 588.0, 588.0, 588.0, 588.0, 588.0, 588.0, 588.0, 588.0, 588.0, 587.0, 587.0, 587.0, 587.0, 588.0, 588.0, 587.0, 586.0, 586.0, 586.0, 585.0, 586.0, 586.0, 586.0, 586.0, 585.0, 586.0, 586.0, 585.0, 585.0, 585.0, 585.0, 586.0, 586.0, 586.0, 586.0, 586.0, 586.0, 586.0, 585.0, 585.0, 586.0, 586.0, 586.0, 587.0, 586.0, 586.0, 586.0, 586.0, 586.0, 587.0, 587.0, 587.0, 586.0, 586.0, 586.0, 586.0, 587.0, 587.0, 587.0, 586.0, 586.0, 586.0, 586.0, 587.0, 586.0, 586.0, 585.0, 586.0, 586.0, 587.0, 587.0, 587.0, 587.0, 586.0, 586.0, 587.0, 587.0, 586.0, 585.0, 586.0, 586.0, 585.0, 586.0, 586.0, 586.0, 585.0, 585.0, 585.0, 586.0, 585.0, 586.0, 586.0, 586.0, 586.0, 587.0, 587.0, 587.0, 587.0, 586.0, 586.0, 586.0, 585.0, 585.0, 585.0, 584.0, 585.0, 585.0, 585.0, 586.0, 585.0, 585.0, 586.0, 586.0, 586.0, 586.0, 585.0, 585.0, 586.0, 585.0, 586.0, 586.0, 585.0, 587.0, 586.0, 587.0, 587.0, 587.0, 587.0, 588.0, 587.0, 588.0, 588.0, 587.0, 587.0, 587.0, 586.0, 587.0, 587.0, 586.0, 586.0, 586.0, 586.0, 586.0, 587.0, 586.0, 586.0, 586.0, 586.0, 586.0, 586.0, 585.0, 585.0, 585.0, 585.0, 585.0, 585.0, 585.0, 586.0, 586.0, 586.0, 586.0, 585.0, 585.0, 586.0, 587.0, 587.0],
      "WindowWidth": [1262.0, 1255.0, 1250.0, 1250.0, 1250.0, 1251.0, 1253.0, 1254.0, 1254.0, 1254.0, 1254.0, 1254.0, 1253.0, 1252.0, 1251.0, 1251.0, 1251.0, 1250.0, 1253.0, 1254.0, 1253.0, 1254.0, 1255.0, 1253.0, 1253.0, 1253.0, 1253.0, 1253.0, 1251.0, 1252.0, 1251.0, 1252.0, 1253.0, 1252.0, 1252.0, 1252.0, 1251.0, 1251.0, 1250.0, 1250.0, 1250.0, 1251.0, 1251.0, 1251.0, 1249.0, 1248.0, 1247.0, 1246.0, 1245.0, 1246.0, 1246.0, 1247.0, 1248.0, 1246.0, 1248.0, 1247.0, 1246.0, 1246.0, 1246.0, 1246.0, 1247.0, 1248.0, 1248.0, 1248.0, 1248.0, 1248.0, 1248.0, 1246.0, 1246.0, 1248.0, 1247.0, 1247.0, 1249.0, 1247.0, 1248.0, 1248.0, 1247.0, 1247.0, 1248.0, 1248.0, 1249.0, 1248.0, 1247.0, 1248.0, 1248.0, 1249.0, 1250.0, 1249.0, 1248.0, 1247.0, 1247.0, 1247.0, 1250.0, 1248.0, 1248.0, 1246.0, 1246.0, 1247.0, 1249.0, 1248.0, 1249.0, 1248.0, 1247.0, 1248.0, 1249.0, 1248.0, 1248.0, 1246.0, 1247.0, 1247.0, 1246.0, 1246.0, 1247.0, 1246.0, 1246.0, 1246.0, 1246.0, 1248.0, 1246.0, 1247.0, 1248.0, 1248.0, 1248.0, 1249.0, 1250.0, 1249.0, 1249.0, 1247.0, 1247.0, 1246.0, 1246.0, 1245.0, 1245.0, 1244.0, 1244.0, 1245.0, 1246.0, 1247.0, 1246.0, 1245.0, 1248.0, 1246.0, 1247.0, 1247.0, 1246.0, 1246.0, 1247.0, 1246.0, 1247.0, 1248.0, 1246.0, 1249.0, 1248.0, 1249.0, 1249.0, 1250.0, 1249.0, 1251.0, 1250.0, 1250.0, 1252.0, 1248.0, 1248.0, 1250.0, 1249.0, 1250.0, 1250.0, 1248.0, 1248.0, 1248.0, 1247.0, 1247.0, 1249.0, 1247.0, 1248.0, 1247.0, 1247.0, 1246.0, 1246.0, 1245.0, 1244.0, 1245.0, 1245.0, 1245.0, 1245.0, 1245.0, 1247.0, 1247.0, 1246.0, 1248.0, 1246.0, 1246.0, 1248.0, 1249.0, 1248.0]
    },
    "slices": {}
  }
}