{
  "AcquisitionMatrixPE": 88,
  "AcquisitionNumber": 1,
  "AcquisitionTime": "17:04:0.362500",
  "BandwidthPerPixelPhaseEncode": 19.592,
  "BaseResolution": 88,
  "BodyPartExamined": "BRAIN",
  "ConsistencyInfo": "N4_VE11C_LATEST_20160120",
  "ConversionSoftware": "dcm2niix",
  "ConversionSoftwareVersion": "v1.0.20190902",
  "DerivedVendorReportedEchoSpacing": 0.000580014,
  "DeviceSerialNumber": "67050",
  "DwellTime": 2.6e-06,
  "EchoTime": 0.033,
  "EchoTrainLength": 88,
  "EffectiveEchoSpacing": 0.000580014,
  "FlipAngle": 62,
  "ImageOrientationPatientDICOM": [0.991393, 0.130702, -0.00758271, -0.130695, 0.984605, -0.116068],
  "ImageType": [
    "ORIGINAL",
    "PRIMARY",
    "M",
    "ND",
    "MOSAIC"
],
  "ImagingFrequency": 123.251,
  "InPlanePhaseEncodingDirectionDICOM": "COL",
  "InstitutionAddress": "Olive_Street_60_Providence_RI_US_02912",
  "InstitutionName": "BROWN_UNIVERSITY_MRF",
  "InstitutionalDepartmentName": "Department",
  "MRAcquisitionType": "2D",
  "MagneticFieldStrength": 3,
  "Manufacturer": "Siemens",
  "ManufacturersModelName": "Prisma_fit",
  "Modality": "MR",
  "MultibandAccelerationFactor": 4,
  "PartialFourier": 1,
  "PatientPosition": "HFS",
  "PercentPhaseFOV": 100,
  "PhaseEncodingDirection": "j-",
  "PhaseEncodingSteps": 88,
  "PhaseResolution": 1,
  "PixelBandwidth": 2185,
  "ProcedureStepDescription": "ASHENHAV_1222",
  "ProtocolName": "func-bold_task-RDMcolor_run-03",
  "PulseSequenceDetails": "%SiemensSeq%_ep2d_bold",
  "ReceiveCoilActiveElements": "HC1-7;NC1",
  "ReceiveCoilName": "HeadNeck_64",
  "ReconMatrixPE": 88,
  "RefLinesPE": 8,
  "RepetitionTime": 1.2,
  "SAR": 0.0560606,
  "ScanOptions": "FS",
  "ScanningSequence": "EP",
  "SequenceName": "_epfid2d1_88",
  "SequenceVariant": "SK",
  "SeriesDescription": "func-bold_task-RDMcolor_run-03",
  "SeriesNumber": 12,
  "ShimSetting": [1733, -9087, 4434, 489, -163, -427, 55, -24],
  "SliceThickness": 2.4,
  "SliceTiming": [0.55, 0, 0.63, 0.08, 0.7075, 0.1575, 0.7875, 0.2375, 0.865, 0.315, 0.945, 0.3925, 1.0225, 0.4725, 1.1025, 0.55, 0, 0.63, 0.08, 0.7075, 0.1575, 0.7875, 0.2375, 0.865, 0.315, 0.945, 0.3925, 1.0225, 0.4725, 1.1025, 0.55, 0, 0.63, 0.08, 0.7075, 0.1575, 0.7875, 0.2375, 0.865, 0.315, 0.945, 0.3925, 1.0225, 0.4725, 1.1025, 0.55, 0, 0.63, 0.08, 0.7075, 0.1575, 0.7875, 0.2375, 0.865, 0.315, 0.945, 0.3925, 1.0225, 0.4725, 1.1025],
  "SoftwareVersions": "syngo_MR_E11",
  "SpacingBetweenSlices": 2.4,
  "StationName": "AWP67050",
  "TaskName": "RDMcolor",
  "TotalReadoutTime": 0.0504612,
  "TxRefAmp": 227.908,
  "dcmmeta_affine": [
    [-2.377089262008667, -0.3133717179298401, 0.018490636721253395, 117.16777801513672],
    [-0.31338879466056824, 2.360814094543457, -0.2785446047782898, -75.1617431640625],
    [-0.018181268125772476, 0.27830004692077637, 2.38370943069458, -78.72169494628906],
    [0.0, 0.0, 0.0, 1.0]
],
  "dcmmeta_reorient_transform": [
    [0.0, -1.0, 0.0, 87.0],
    [1.0, 0.0, 0.0, 0.0],
    [0.0, 0.0, 1.0, 0.0],
    [0.0, 0.0, 0.0, 1.0]
],
  "dcmmeta_shape": [88, 88, 60, 392],
  "dcmmeta_slice_dim": 2,
  "dcmmeta_version": 0.6,
  "global": {
    "const": {
      "AcquisitionMatrix": [88, 0, 0, 88],
      "AngioFlag": "N",
      "BitsAllocated": 16,
      "BitsStored": 12,
      "BodyPartExamined": "BRAIN",
      "Columns": 704,
      "DeidentificationMethodCodeSequence": [
        {
          "CodeMeaning": "XNAT DicomEdit 6 Script",
          "CodeValue": "3",
          "CodingSchemeDesignator": "XNAT",
          "CodingSchemeVersion": "1.0"}
],
      "EchoNumbers": 1,
      "EchoTime": 33.0,
      "EchoTrainLength": 88,
      "FlipAngle": 62.0,
      "HighBit": 11,
      "ImageOrientationPatient": [0.99139264502865, 0.13070243268288, -0.0075827088742, -0.1306953140395, 0.98460494251034, -0.1160682647079],
      "ImagePositionPatient": [-725.52941247038, -953.88357363992, 36.806649336632],
      "ImageType": [
        "ORIGINAL",
        "PRIMARY",
        "M",
        "ND",
        "MOSAIC"
],
      "ImagedNucleus": "1H",
      "ImagingFrequency": 123.250765,
      "InPlanePhaseEncodingDirection": "COL",
      "MRAcquisitionType": "2D",
      "MagneticFieldStrength": 3.0,
      "Manufacturer": "SIEMENS",
      "ManufacturerModelName": "Prisma_fit",
      "Modality": "MR",
      "NumberOfAverages": 1.0,
      "NumberOfPhaseEncodingSteps": 88,
      "PercentPhaseFieldOfView": 100.0,
      "PercentSampling": 100.0,
      "PerformedProcedureStepStartTime": "161951.804000",
      "PhotometricInterpretation": "MONOCHROME2",
      "PixelBandwidth": 2185.0,
      "PixelRepresentation": 0,
      "PixelSpacing": [2.3977272510529, 2.3977272510529],
      "ProtocolName": "func-bold_task-RDMcolor_run-03",
      "RepetitionTime": 1200.0,
      "Rows": 704,
      "SAR": 0.05606064267409,
      "SamplesPerPixel": 1,
      "ScanOptions": "FS",
      "ScanningSequence": "EP",
      "SequenceName": "*epfid2d1_88",
      "SequenceVariant": "SK",
      "SeriesDescription": "func-bold_task-RDMcolor_run-03",
      "SeriesNumber": 12,
      "SeriesTime": "170443.208000",
      "SliceLocation": -68.561355991605,
      "SliceThickness": 2.4000000953674,
      "SmallestImagePixelValue": 0,
      "SoftwareVersions": "syngo MR E11",
      "SpacingBetweenSlices": 2.4000000305043,
      "SpecificCharacterSet": "ISO_IR 100",
      "StudyID": "1",
      "StudyTime": "161951.734000",
      "TransmitCoilName": "Body",
      "VariableFlipAngleFlag": "N",
      "WindowCenterWidthExplanation": "Algo1",
      "dBdt": 0.0},
    "slices": {}
  },
  "time": {
    "samples": {
      "AcquisitionNumber": [1, 2, 3, 4, 5, 6, 7, 8, 9, 10, 11, 12, 13, 14, 15, 16, 17, 18, 19, 20, 21, 22, 23, 24, 25, 26, 27, 28, 29, 30, 31, 32, 33, 34, 35, 36, 37, 38, 39, 40, 41, 42, 43, 44, 45, 46, 47, 48, 49, 50, 51, 52, 53, 54, 55, 56, 57, 58, 59, 60, 61, 62, 63, 64, 65, 66, 67, 68, 69, 70, 71, 72, 73, 74, 75, 76, 77, 78, 79, 80, 81, 82, 83, 84, 85, 86, 87, 88, 89, 90, 91, 92, 93, 94, 95, 96, 97, 98, 99, 100, 101, 102, 103, 104, 105, 106, 107, 108, 109, 110, 111, 112, 113, 114, 115, 116, 117, 118, 119, 120, 121, 122, 123, 124, 125, 126, 127, 128, 129, 130, 131, 132, 133, 134, 135, 136, 137, 138, 139, 140, 141, 142, 143, 144, 145, 146, 147, 148, 149, 150, 151, 152, 153, 154, 155, 156, 157, 158, 159, 160, 161, 162, 163, 164, 165, 166, 167, 168, 169, 170, 171, 172, 173, 174, 175, 176, 177, 178, 179, 180, 181, 182, 183, 184, 185, 186, 187, 188, 189, 190, 191, 192, 193, 194, 195, 196, 197, 198, 199, 200, 201, 202, 203, 204, 205, 206, 207, 208, 209, 210, 211, 212, 213, 214, 215, 216, 217, 218, 219, 220, 221, 222, 223, 224, 225, 226, 227, 228, 229, 230, 231, 232, 233, 234, 235, 236, 237, 238, 239, 240, 241, 242, 243, 244, 245, 246, 247, 248, 249, 250, 251, 252, 253, 254, 255, 256, 257, 258, 259, 260, 261, 262, 263, 264, 265, 266, 267, 268, 269, 270, 271, 272, 273, 274, 275, 276, 277, 278, 279, 280, 281, 282, 283, 284, 285, 286, 287, 288, 289, 290, 291, 292, 293, 294, 295, 296, 297, 298, 299, 300, 301, 302, 303, 304, 305, 306, 307, 308, 309, 310, 311, 312, 313, 314, 315, 316, 317, 318, 319, 320, 321, 322, 323, 324, 325, 326, 327, 328, 329, 330, 331, 332, 333, 334, 335, 336, 337, 338, 339, 340, 341, 342, 343, 344, 345, 346, 347, 348, 349, 350, 351, 352, 353, 354, 355, 356, 357, 358, 359, 360, 361, 362, 363, 364, 365, 366, 367, 368, 369, 370, 371, 372, 373, 374, 375, 376, 377, 378, 379, 380, 381, 382, 383, 384, 385, 386, 387, 388, 389, 390, 391, 392],
      "AcquisitionTime": ["170400.362500", "170401.562500", "170402.762500", "170403.962500", "170405.162500", "170406.362500", "170407.562500", "170408.762500", "170409.962500", "170411.162500", "170412.362500", "170413.562500", "170414.762500", "170415.962500", "170417.162500", "170418.362500", "170419.562500", "170420.762500", "170421.962500", "170423.162500", "170424.362500", "170425.562500", "170426.762500", "170427.962500", "170429.162500", "170430.362500", "170431.562500", "170432.762500", "170433.962500", "170435.162500", "170436.362500", "170437.562500", "170438.762500", "170439.962500", "170441.162500", "170442.362500", "170443.562500", "170444.762500", "170445.962500", "170447.162500", "170448.362500", "170449.562500", "170450.762500", "170451.962500", "170453.162500", "170454.362500", "170455.562500", "170456.762500", "170457.962500", "170459.162500", "170500.362500", "170501.562500", "170502.762500", "170503.962500", "170505.162500", "170506.362500", "170507.562500", "170508.762500", "170509.962500", "170511.162500", "170512.362500", "170513.562500", "170514.762500", "170515.962500", "170517.162500", "170518.362500", "170519.562500", "170520.762500", "170521.962500", "170523.162500", "170524.362500", "170525.562500", "170526.762500", "170527.962500", "170529.162500", "170530.362500", "170531.562500", "170532.762500", "170533.962500", "170535.162500", "170536.362500", "170537.562500", "170538.762500", "170539.962500", "170541.162500", "170542.362500", "170543.562500", "170544.762500", "170545.962500", "170547.162500", "170548.362500", "170549.562500", "170550.762500", "170551.962500", "170553.162500", "170554.362500", "170555.562500", "170556.762500", "170557.962500", "170559.162500", "170600.362500", "170601.562500", "170602.762500", "170603.962500", "170605.162500", "170606.362500", "170607.562500", "170608.762500", "170609.962500", "170611.162500", "170612.362500", "170613.562500", "170614.762500", "170615.962500", "170617.162500", "170618.362500", "170619.562500", "170620.762500", "170621.962500", "170623.162500", "170624.362500", "170625.562500", "170626.762500", "170627.962500", "170629.162500", "170630.362500", "170631.562500", "170632.762500", "170633.962500", "170635.162500", "170636.362500", "170637.562500", "170638.762500", "170639.962500", "170641.162500", "170642.362500", "170643.562500", "170644.762500", "170645.962500", "170647.162500", "170648.362500", "170649.562500", "170650.762500", "170651.962500", "170653.162500", "170654.362500", "170655.562500", "170656.762500", "170657.962500", "170659.162500", "170700.362500", "170701.562500", "170702.762500", "170703.962500", "170705.162500", "170706.362500", "170707.562500", "170708.762500", "170709.962500", "170711.162500", "170712.362500", "170713.562500", "170714.762500", "170715.962500", "170717.162500", "170718.362500", "170719.562500", "170720.762500", "170721.962500", "170723.162500", "170724.362500", "170725.562500", "170726.762500", "170727.962500", "170729.162500", "170730.362500", "170731.562500", "170732.762500", "170733.962500", "170735.162500", "170736.362500", "170737.562500", "170738.762500", "170739.962500", "170741.162500", "170742.362500", "170743.562500", "170744.762500", "170745.962500", "170747.162500", "170748.362500", "170749.562500", "170750.762500", "170751.962500", "170753.162500", "170754.362500", "170755.562500", "170756.762500", "170757.962500", "170759.162500", "170800.362500", "170801.562500", "170802.762500", "170803.962500", "170805.162500", "170806.362500", "170807.562500", "170808.762500", "170809.962500", "170811.162500", "170812.362500", "170813.562500", "170814.762500", "170815.962500", "170817.162500", "170818.362500", "170819.562500", "170820.762500", "170821.962500", "170823.162500", "170824.362500", "170825.562500", "170826.762500", "170827.962500", "170829.162500", "170830.362500", "170831.562500", "170832.762500", "170833.962500", "170835.162500", "170836.362500", "170837.562500", "170838.762500", "170839.962500", "170841.162500", "170842.362500", "170843.562500", "170844.762500", "170845.962500", "170847.162500", "170848.362500", "170849.562500", "170850.762500", "170851.962500", "170853.162500", "170854.362500", "170855.562500", "170856.762500", "170857.962500", "170859.162500", "170900.362500", "170901.562500", "170902.762500", "170903.962500", "170905.162500", "170906.362500", "170907.562500", "170908.762500", "170909.962500", "170911.162500", "170912.362500", "170913.562500", "170914.762500", "170915.962500", "170917.162500", "170918.362500", "170919.562500", "170920.762500", "170921.962500", "170923.162500", "170924.362500", "170925.562500", "170926.762500", "170927.962500", "170929.162500", "170930.362500", "170931.562500", "170932.762500", "170933.962500", "170935.162500", "170936.362500", "170937.562500", "170938.762500", "170939.962500", "170941.162500", "170942.362500", "170943.562500", "170944.762500", "170945.962500", "170947.162500", "170948.362500", "170949.562500", "170950.762500", "170951.962500", "170953.162500", "170954.362500", "170955.562500", "170956.762500", "170957.962500", "170959.162500", "171000.362500", "171001.562500", "171002.762500", "171003.962500", "171005.162500", "171006.362500", "171007.562500", "171008.762500", "171009.962500", "171011.162500", "171012.362500", "171013.562500", "171014.762500", "171015.962500", "171017.162500", "171018.362500", "171019.562500", "171020.762500", "171021.962500", "171023.162500", "171024.362500", "171025.562500", "171026.762500", "171027.962500", "171029.162500", "171030.362500", "171031.562500", "171032.762500", "171033.962500", "171035.162500", "171036.362500", "171037.562500", "171038.762500", "171039.962500", "171041.162500", "171042.362500", "171043.562500", "171044.762500", "171045.962500", "171047.162500", "171048.362500", "171049.562500", "171050.762500", "171051.962500", "171053.162500", "171054.362500", "171055.562500", "171056.762500", "171057.962500", "171059.162500", "171100.362500", "171101.562500", "171102.762500", "171103.962500", "171105.162500", "171106.362500", "171107.562500", "171108.762500", "171109.962500", "171111.162500", "171112.362500", "171113.562500", "171114.762500", "171115.962500", "171117.162500", "171118.362500", "171119.562500", "171120.762500", "171121.962500", "171123.162500", "171124.362500", "171125.562500", "171126.762500", "171127.962500", "171129.162500", "171130.362500", "171131.562500", "171132.762500", "171133.962500", "171135.162500", "171136.362500", "171137.562500", "171138.762500", "171139.962500", "171141.162500", "171142.362500", "171143.562500", "171144.762500", "171145.962500", "171147.162500", "171148.362500", "171149.562500"],
      "ContentTime": ["170443.212000", "170443.215000", "170443.217000", "170443.220000", "170443.223000", "170443.225000", "170443.228000", "170443.230000", "170443.233000", "170443.241000", "170443.244000", "170443.247000", "170443.249000", "170443.252000", "170443.254000", "170443.257000", "170443.259000", "170443.262000", "170443.264000", "170443.267000", "170443.270000", "170443.272000", "170443.275000", "170443.277000", "170443.280000", "170443.282000", "170443.285000", "170443.288000", "170443.290000", "170443.293000", "170443.295000", "170443.298000", "170443.301000", "170443.303000", "170443.306000", "170523.206000", "170523.209000", "170523.217000", "170523.219000", "170523.222000", "170523.225000", "170523.227000", "170523.230000", "170523.232000", "170523.236000", "170523.239000", "170523.241000", "170523.244000", "170523.247000", "170523.249000", "170523.252000", "170523.254000", "170523.257000", "170523.260000", "170523.262000", "170523.265000", "170523.268000", "170523.270000", "170523.273000", "170523.275000", "170523.278000", "170523.280000", "170523.283000", "170523.285000", "170523.288000", "170523.290000", "170523.293000", "170523.295000", "170603.207000", "170603.209000", "170603.212000", "170603.215000", "170603.224000", "170603.227000", "170603.229000", "170603.232000", "170603.234000", "170603.237000", "170603.240000", "170603.242000", "170603.245000", "170603.247000", "170603.250000", "170603.252000", "170603.255000", "170603.258000", "170603.260000", "170603.263000", "170603.266000", "170603.268000", "170603.271000", "170603.273000", "170603.276000", "170603.278000", "170603.281000", "170603.283000", "170603.286000", "170603.288000", "170603.291000", "170603.294000", "170603.296000", "170643.206000", "170643.209000", "170643.212000", "170643.214000", "170643.217000", "170643.220000", "170643.222000", "170643.225000", "170643.227000", "170643.230000", "170643.232000", "170643.235000", "170643.238000", "170643.240000", "170643.243000", "170643.245000", "170643.248000", "170643.251000", "170643.253000", "170643.256000", "170643.258000", "170643.261000", "170643.264000", "170643.266000", "170643.275000", "170643.278000", "170643.280000", "170643.283000", "170643.286000", "170643.288000", "170643.291000", "170643.293000", "170643.296000", "170643.298000", "170723.208000", "170723.210000", "170723.213000", "170723.216000", "170723.218000", "170723.221000", "170723.223000", "170723.226000", "170723.229000", "170723.231000", "170723.234000", "170723.236000", "170723.239000", "170723.242000", "170723.244000", "170723.247000", "170723.249000", "170723.252000", "170723.254000", "170723.257000", "170723.260000", "170723.262000", "170723.277000", "170723.279000", "170723.282000", "170723.284000", "170723.287000", "170723.289000", "170723.292000", "170723.295000", "170723.297000", "170723.300000", "170723.302000", "170803.207000", "170803.210000", "170803.220000", "170803.222000", "170803.225000", "170803.228000", "170803.230000", "170803.233000", "170803.235000", "170803.238000", "170803.241000", "170803.243000", "170803.246000", "170803.248000", "170803.251000", "170803.254000", "170803.256000", "170803.259000", "170803.261000", "170803.264000", "170803.266000", "170803.269000", "170803.271000", "170803.274000", "170803.276000", "170803.279000", "170803.282000", "170803.284000", "170803.287000", "170803.289000", "170803.292000", "170803.295000", "170803.297000", "170843.207000", "170843.209000", "170843.212000", "170843.214000", "170843.221000", "170843.224000", "170843.226000", "170843.229000", "170843.231000", "170843.234000", "170843.236000", "170843.239000", "170843.241000", "170843.244000", "170843.246000", "170843.249000", "170843.252000", "170843.254000", "170843.257000", "170843.259000", "170843.262000", "170843.265000", "170843.267000", "170843.270000", "170843.272000", "170843.275000", "170843.277000", "170843.280000", "170843.282000", "170843.285000", "170843.287000", "170843.290000", "170843.292000", "170843.295000", "170923.207000", "170923.210000", "170923.213000", "170923.216000", "170923.218000", "170923.221000", "170923.223000", "170923.226000", "170923.229000", "170923.231000", "170923.234000", "170923.236000", "170923.239000", "170923.242000", "170923.244000", "170923.247000", "170923.249000", "170923.252000", "170923.255000", "170923.257000", "170923.260000", "170923.262000", "170923.265000", "170923.268000", "170923.270000", "170923.273000", "170923.276000", "170923.278000", "170923.281000", "170923.283000", "170923.286000", "170923.288000", "170923.291000", "171003.206000", "171003.209000", "171003.212000", "171003.216000", "171003.218000", "171003.221000", "171003.223000", "171003.226000", "171003.229000", "171003.231000", "171003.234000", "171003.237000", "171003.239000", "171003.242000", "171003.244000", "171003.247000", "171003.249000", "171003.252000", "171003.255000", "171003.257000", "171003.260000", "171003.262000", "171003.265000", "171003.268000", "171003.270000", "171003.273000", "171003.275000", "171003.278000", "171003.281000", "171003.283000", "171003.286000", "171003.288000", "171003.291000", "171043.207000", "171043.209000", "171043.217000", "171043.219000", "171043.222000", "171043.224000", "171043.227000", "171043.230000", "171043.232000", "171043.241000", "171043.244000", "171043.247000", "171043.249000", "171043.252000", "171043.254000", "171043.257000", "171043.259000", "171043.262000", "171043.265000", "171043.267000", "171043.270000", "171043.272000", "171043.275000", "171043.277000", "171043.280000", "171043.283000", "171043.285000", "171043.288000", "171043.290000", "171043.293000", "171043.295000", "171043.298000", "171043.300000", "171043.303000", "171123.206000", "171123.209000", "171123.212000", "171123.215000", "171123.217000", "171123.230000", "171123.232000", "171123.235000", "171123.237000", "171123.240000", "171123.243000", "171123.245000", "171123.248000", "171123.250000", "171123.253000", "171123.255000", "171123.258000", "171123.261000", "171123.263000", "171123.266000", "171123.268000", "171123.271000", "171123.274000", "171123.276000", "171123.279000", "171123.281000", "171123.284000", "171123.286000", "171123.289000", "171123.292000", "171123.294000", "171123.297000", "171123.299000", "171143.207000", "171143.210000", "171143.213000", "171143.215000", "171143.218000", "171143.221000", "171143.223000", "171143.226000", "171143.228000", "171143.231000", "171143.233000", "171143.236000", "171143.239000", "171143.241000", "171143.244000", "171143.246000", "171143.249000", "171151.587000", "171151.590000", "171151.593000", "171151.595000", "171151.604000", "171151.606000", "171151.609000"],
      "InstanceCreationTime": ["170443.212000", "170443.215000", "170443.217000", "170443.220000", "170443.223000", "170443.225000", "170443.228000", "170443.230000", "170443.233000", "170443.241000", "170443.244000", "170443.247000", "170443.249000", "170443.252000", "170443.254000", "170443.257000", "170443.259000", "170443.262000", "170443.264000", "170443.267000", "170443.270000", "170443.272000", "170443.275000", "170443.277000", "170443.280000", "170443.282000", "170443.285000", "170443.288000", "170443.290000", "170443.293000", "170443.295000", "170443.298000", "170443.301000", "170443.303000", "170443.306000", "170523.206000", "170523.209000", "170523.217000", "170523.219000", "170523.222000", "170523.225000", "170523.227000", "170523.230000", "170523.232000", "170523.236000", "170523.239000", "170523.241000", "170523.244000", "170523.247000", "170523.249000", "170523.252000", "170523.254000", "170523.257000", "170523.260000", "170523.262000", "170523.265000", "170523.268000", "170523.270000", "170523.273000", "170523.275000", "170523.278000", "170523.280000", "170523.283000", "170523.285000", "170523.288000", "170523.290000", "170523.293000", "170523.295000", "170603.207000", "170603.209000", "170603.212000", "170603.215000", "170603.224000", "170603.227000", "170603.229000", "170603.232000", "170603.234000", "170603.237000", "170603.240000", "170603.242000", "170603.245000", "170603.247000", "170603.250000", "170603.252000", "170603.255000", "170603.258000", "170603.260000", "170603.263000", "170603.266000", "170603.268000", "170603.271000", "170603.273000", "170603.276000", "170603.278000", "170603.281000", "170603.283000", "170603.286000", "170603.288000", "170603.291000", "170603.294000", "170603.296000", "170643.206000", "170643.209000", "170643.212000", "170643.214000", "170643.217000", "170643.220000", "170643.222000", "170643.225000", "170643.227000", "170643.230000", "170643.232000", "170643.235000", "170643.238000", "170643.240000", "170643.243000", "170643.245000", "170643.248000", "170643.251000", "170643.253000", "170643.256000", "170643.258000", "170643.261000", "170643.264000", "170643.266000", "170643.275000", "170643.278000", "170643.280000", "170643.283000", "170643.286000", "170643.288000", "170643.291000", "170643.293000", "170643.296000", "170643.298000", "170723.208000", "170723.210000", "170723.213000", "170723.216000", "170723.218000", "170723.221000", "170723.223000", "170723.226000", "170723.229000", "170723.231000", "170723.234000", "170723.236000", "170723.239000", "170723.242000", "170723.244000", "170723.247000", "170723.249000", "170723.252000", "170723.254000", "170723.257000", "170723.260000", "170723.262000", "170723.277000", "170723.279000", "170723.282000", "170723.284000", "170723.287000", "170723.289000", "170723.292000", "170723.295000", "170723.297000", "170723.300000", "170723.302000", "170803.207000", "170803.210000", "170803.220000", "170803.222000", "170803.225000", "170803.228000", "170803.230000", "170803.233000", "170803.235000", "170803.238000", "170803.241000", "170803.243000", "170803.246000", "170803.248000", "170803.251000", "170803.254000", "170803.256000", "170803.259000", "170803.261000", "170803.264000", "170803.266000", "170803.269000", "170803.271000", "170803.274000", "170803.276000", "170803.279000", "170803.282000", "170803.284000", "170803.287000", "170803.289000", "170803.292000", "170803.295000", "170803.297000", "170843.207000", "170843.209000", "170843.212000", "170843.214000", "170843.221000", "170843.224000", "170843.226000", "170843.229000", "170843.231000", "170843.234000", "170843.236000", "170843.239000", "170843.241000", "170843.244000", "170843.246000", "170843.249000", "170843.252000", "170843.254000", "170843.257000", "170843.259000", "170843.262000", "170843.265000", "170843.267000", "170843.270000", "170843.272000", "170843.275000", "170843.277000", "170843.280000", "170843.282000", "170843.285000", "170843.287000", "170843.290000", "170843.292000", "170843.295000", "170923.207000", "170923.210000", "170923.213000", "170923.216000", "170923.218000", "170923.221000", "170923.223000", "170923.226000", "170923.229000", "170923.231000", "170923.234000", "170923.236000", "170923.239000", "170923.242000", "170923.244000", "170923.247000", "170923.249000", "170923.252000", "170923.255000", "170923.257000", "170923.260000", "170923.262000", "170923.265000", "170923.268000", "170923.270000", "170923.273000", "170923.276000", "170923.278000", "170923.281000", "170923.283000", "170923.286000", "170923.288000", "170923.291000", "171003.206000", "171003.209000", "171003.212000", "171003.216000", "171003.218000", "171003.221000", "171003.223000", "171003.226000", "171003.229000", "171003.231000", "171003.234000", "171003.237000", "171003.239000", "171003.242000", "171003.244000", "171003.247000", "171003.249000", "171003.252000", "171003.255000", "171003.257000", "171003.260000", "171003.262000", "171003.265000", "171003.268000", "171003.270000", "171003.273000", "171003.275000", "171003.278000", "171003.281000", "171003.283000", "171003.286000", "171003.288000", "171003.291000", "171043.207000", "171043.209000", "171043.217000", "171043.219000", "171043.222000", "171043.224000", "171043.227000", "171043.230000", "171043.232000", "171043.241000", "171043.244000", "171043.247000", "171043.249000", "171043.252000", "171043.254000", "171043.257000", "171043.259000", "171043.262000", "171043.265000", "171043.267000", "171043.270000", "171043.272000", "171043.275000", "171043.277000", "171043.280000", "171043.283000", "171043.285000", "171043.288000", "171043.290000", "171043.293000", "171043.295000", "171043.298000", "171043.300000", "171043.303000", "171123.206000", "171123.209000", "171123.212000", "171123.215000", "171123.217000", "171123.230000", "171123.232000", "171123.235000", "171123.237000", "171123.240000", "171123.243000", "171123.245000", "171123.248000", "171123.250000", "171123.253000", "171123.255000", "171123.258000", "171123.261000", "171123.263000", "171123.266000", "171123.268000", "171123.271000", "171123.274000", "171123.276000", "171123.279000", "171123.281000", "171123.284000", "171123.286000", "171123.289000", "171123.292000", "171123.294000", "171123.297000", "171123.299000", "171143.207000", "171143.210000", "171143.213000", "171143.215000", "171143.218000", "171143.221000", "171143.223000", "171143.226000", "171143.228000", "171143.231000", "171143.233000", "171143.236000", "171143.239000", "171143.241000", "171143.244000", "171143.246000", "171143.249000", "171151.587000", "171151.590000", "171151.593000", "171151.595000", "171151.604000", "171151.606000", "171151.609000"],
      "InstanceNumber": [1, 2, 3, 4, 5, 6, 7, 8, 9, 10, 11, 12, 13, 14, 15, 16, 17, 18, 19, 20, 21, 22, 23, 24, 25, 26, 27, 28, 29, 30, 31, 32, 33, 34, 35, 36, 37, 38, 39, 40, 41, 42, 43, 44, 45, 46, 47, 48, 49, 50, 51, 52, 53, 54, 55, 56, 57, 58, 59, 60, 61, 62, 63, 64, 65, 66, 67, 68, 69, 70, 71, 72, 73, 74, 75, 76, 77, 78, 79, 80, 81, 82, 83, 84, 85, 86, 87, 88, 89, 90, 91, 92, 93, 94, 95, 96, 97, 98, 99, 100, 101, 102, 103, 104, 105, 106, 107, 108, 109, 110, 111, 112, 113, 114, 115, 116, 117, 118, 119, 120, 121, 122, 123, 124, 125, 126, 127, 128, 129, 130, 131, 132, 133, 134, 135, 136, 137, 138, 139, 140, 141, 142, 143, 144, 145, 146, 147, 148, 149, 150, 151, 152, 153, 154, 155, 156, 157, 158, 159, 160, 161, 162, 163, 164, 165, 166, 167, 168, 169, 170, 171, 172, 173, 174, 175, 176, 177, 178, 179, 180, 181, 182, 183, 184, 185, 186, 187, 188, 189, 190, 191, 192, 193, 194, 195, 196, 197, 198, 199, 200, 201, 202, 203, 204, 205, 206, 207, 208, 209, 210, 211, 212, 213, 214, 215, 216, 217, 218, 219, 220, 221, 222, 223, 224, 225, 226, 227, 228, 229, 230, 231, 232, 233, 234, 235, 236, 237, 238, 239, 240, 241, 242, 243, 244, 245, 246, 247, 248, 249, 250, 251, 252, 253, 254, 255, 256, 257, 258, 259, 260, 261, 262, 263, 264, 265, 266, 267, 268, 269, 270, 271, 272, 273, 274, 275, 276, 277, 278, 279, 280, 281, 282, 283, 284, 285, 286, 287, 288, 289, 290, 291, 292, 293, 294, 295, 296, 297, 298, 299, 300, 301, 302, 303, 304, 305, 306, 307, 308, 309, 310, 311, 312, 313, 314, 315, 316, 317, 318, 319, 320, 321, 322, 323, 324, 325, 326, 327, 328, 329, 330, 331, 332, 333, 334, 335, 336, 337, 338, 339, 340, 341, 342, 343, 344, 345, 346, 347, 348, 349, 350, 351, 352, 353, 354, 355, 356, 357, 358, 359, 360, 361, 362, 363, 364, 365, 366, 367, 368, 369, 370, 371, 372, 373, 374, 375, 376, 377, 378, 379, 380, 381, 382, 383, 384, 385, 386, 387, 388, 389, 390, 391, 392],
