{
  "AcquisitionMatrixPE": 88,
  "AcquisitionNumber": 1,
  "AcquisitionTime": "17:56:3.142500",
  "BandwidthPerPixelPhaseEncode": 19.592,
  "BaseResolution": 88,
  "BodyPartExamined": "BRAIN",
  "ConsistencyInfo": "N4_VE11C_LATEST_20160120",
  "ConversionSoftware": "dcm2niix",
  "ConversionSoftwareVersion": "v1.0.20190902",
  "DerivedVendorReportedEchoSpacing": 0.000580014,
  "DeviceSerialNumber": "67050",
  "DwellTime": 2.6e-06,
  "EchoTime": 0.033,
  "EchoTrainLength": 88,
  "EffectiveEchoSpacing": 0.000580014,
  "FlipAngle": 62,
  "ImageOrientationPatientDICOM": [0.991393, 0.130702, -0.00758271, -0.130695, 0.984605, -0.116068],
  "ImageType": [
    "ORIGINAL",
    "PRIMARY",
    "M",
    "ND",
    "MOSAIC"
],
  "ImagingFrequency": 123.251,
  "InPlanePhaseEncodingDirectionDICOM": "COL",
  "InstitutionAddress": "Olive_Street_60_Providence_RI_US_02912",
  "InstitutionName": "BROWN_UNIVERSITY_MRF",
  "InstitutionalDepartmentName": "Department",
  "MRAcquisitionType": "2D",
  "MagneticFieldStrength": 3,
  "Manufacturer": "Siemens",
  "ManufacturersModelName": "Prisma_fit",
  "Modality": "MR",
  "MultibandAccelerationFactor": 4,
  "PartialFourier": 1,
  "PatientPosition": "HFS",
  "PercentPhaseFOV": 100,
  "PhaseEncodingDirection": "j-",
  "PhaseEncodingSteps": 88,
  "PhaseResolution": 1,
  "PixelBandwidth": 2185,
  "ProcedureStepDescription": "ASHENHAV_1222",
  "ProtocolName": "func-bold_task-RDMlocalizer_run-02",
  "PulseSequenceDetails": "%SiemensSeq%_ep2d_bold",
  "ReceiveCoilActiveElements": "HC1-7;NC1",
  "ReceiveCoilName": "HeadNeck_64",
  "ReconMatrixPE": 88,
  "RefLinesPE": 8,
  "RepetitionTime": 1.2,
  "SAR": 0.0557864,
  "ScanOptions": "FS",
  "ScanningSequence": "EP",
  "SequenceName": "_epfid2d1_88",
  "SequenceVariant": "SK",
  "SeriesDescription": "func-bold_task-RDMlocalizer_run-02",
  "SeriesNumber": 20,
  "ShimSetting": [1733, -9087, 4434, 489, -163, -427, 55, -24],
  "SliceThickness": 2.4,
  "SliceTiming": [0.55, 0, 0.6275, 0.0775, 0.7075, 0.1575, 0.785, 0.235, 0.865, 0.3125, 0.9425, 0.3925, 1.0225, 0.47, 1.1, 0.55, 0, 0.6275, 0.0775, 0.7075, 0.1575, 0.785, 0.235, 0.865, 0.3125, 0.9425, 0.3925, 1.0225, 0.47, 1.1, 0.55, 0, 0.6275, 0.0775, 0.7075, 0.1575, 0.785, 0.235, 0.865, 0.3125, 0.9425, 0.3925, 1.0225, 0.47, 1.1, 0.55, 0, 0.6275, 0.0775, 0.7075, 0.1575, 0.785, 0.235, 0.865, 0.3125, 0.9425, 0.3925, 1.0225, 0.47, 1.1],
  "SoftwareVersions": "syngo_MR_E11",
  "SpacingBetweenSlices": 2.4,
  "StationName": "AWP67050",
  "TaskName": "RDMlocalizer",
  "TotalReadoutTime": 0.0504612,
  "TxRefAmp": 227.908,
  "dcmmeta_affine": [
    [-2.377089262008667, -0.3133717179298401, 0.018490636721253395, 117.16777801513672],
    [-0.31338879466056824, 2.360814094543457, -0.2785446047782898, -75.1617431640625],
    [-0.018181268125772476, 0.27830004692077637, 2.38370943069458, -78.72169494628906],
    [0.0, 0.0, 0.0, 1.0]
],
  "dcmmeta_reorient_transform": [
    [0.0, -1.0, 0.0, 87.0],
    [1.0, 0.0, 0.0, 0.0],
    [0.0, 0.0, 1.0, 0.0],
    [0.0, 0.0, 0.0, 1.0]
],
  "dcmmeta_shape": [88, 88, 60, 195],
  "dcmmeta_slice_dim": 2,
  "dcmmeta_version": 0.6,
  "global": {
    "const": {
      "AcquisitionMatrix": [88, 0, 0, 88],
      "AngioFlag": "N",
      "BitsAllocated": 16,
      "BitsStored": 12,
      "BodyPartExamined": "BRAIN",
      "Columns": 704,
      "DeidentificationMethodCodeSequence": [
        {
          "CodeMeaning": "XNAT DicomEdit 6 Script",
          "CodeValue": "3",
          "CodingSchemeDesignator": "XNAT",
          "CodingSchemeVersion": "1.0"}
],
      "EchoNumbers": 1,
      "EchoTime": 33.0,
      "EchoTrainLength": 88,
      "FlipAngle": 62.0,
      "HighBit": 11,
      "ImageOrientationPatient": [0.99139264502865, 0.13070243268288, -0.0075827088742, -0.1306953140395, 0.98460494251034, -0.1160682647079],
      "ImagePositionPatient": [-725.52941247038, -953.88357363992, 36.806649336632],
      "ImageType": [
        "ORIGINAL",
        "PRIMARY",
        "M",
        "ND",
        "MOSAIC"
],
      "ImagedNucleus": "1H",
      "ImagingFrequency": 123.25078,
      "InPlanePhaseEncodingDirection": "COL",
      "MRAcquisitionType": "2D",
      "MagneticFieldStrength": 3.0,
      "Manufacturer": "SIEMENS",
      "ManufacturerModelName": "Prisma_fit",
      "Modality": "MR",
      "NumberOfAverages": 1.0,
      "NumberOfPhaseEncodingSteps": 88,
      "PercentPhaseFieldOfView": 100.0,
      "PercentSampling": 100.0,
      "PerformedProcedureStepStartTime": "161951.804000",
      "PhotometricInterpretation": "MONOCHROME2",
      "PixelBandwidth": 2185.0,
      "PixelRepresentation": 0,
      "PixelSpacing": [2.3977272510529, 2.3977272510529],
      "ProtocolName": "func-bold_task-RDMlocalizer_run-02",
      "RepetitionTime": 1200.0,
      "Rows": 704,
      "SAR": 0.05578644964589,
      "SamplesPerPixel": 1,
      "ScanOptions": "FS",
      "ScanningSequence": "EP",
      "SequenceName": "*epfid2d1_88",
      "SequenceVariant": "SK",
      "SeriesDescription": "func-bold_task-RDMlocalizer_run-02",
      "SeriesNumber": 20,
      "SeriesTime": "175638.707000",
      "SliceLocation": -68.561355991605,
      "SliceThickness": 2.4000000953674,
      "SmallestImagePixelValue": 0,
      "SoftwareVersions": "syngo MR E11",
      "SpacingBetweenSlices": 2.4000000305043,
      "SpecificCharacterSet": "ISO_IR 100",
      "StudyID": "1",
      "StudyTime": "161951.734000",
      "TransmitCoilName": "Body",
      "VariableFlipAngleFlag": "N",
      "WindowCenterWidthExplanation": "Algo1",
      "dBdt": 0.0},
    "slices": {}
  },
  "time": {
    "samples": {
      "AcquisitionNumber": [1, 2, 3, 4, 5, 6, 7, 8, 9, 10, 11, 12, 13, 14, 15, 16, 17, 18, 19, 20, 21, 22, 23, 24, 25, 26, 27, 28, 29, 30, 31, 32, 33, 34, 35, 36, 37, 38, 39, 40, 41, 42, 43, 44, 45, 46, 47, 48, 49, 50, 51, 52, 53, 54, 55, 56, 57, 58, 59, 60, 61, 62, 63, 64, 65, 66, 67, 68, 69, 70, 71, 72, 73, 74, 75, 76, 77, 78, 79, 80, 81, 82, 83, 84, 85, 86, 87, 88, 89, 90, 91, 92, 93, 94, 95, 96, 97, 98, 99, 100, 101, 102, 103, 104, 105, 106, 107, 108, 109, 110, 111, 112, 113, 114, 115, 116, 117, 118, 119, 120, 121, 122, 123, 124, 125, 126, 127, 128, 129, 130, 131, 132, 133, 134, 135, 136, 137, 138, 139, 140, 141, 142, 143, 144, 145, 146, 147, 148, 149, 150, 151, 152, 153, 154, 155, 156, 157, 158, 159, 160, 161, 162, 163, 164, 165, 166, 167, 168, 169, 170, 171, 172, 173, 174, 175, 176, 177, 178, 179, 180, 181, 182, 183, 184, 185, 186, 187, 188, 189, 190, 191, 192, 193, 194, 195],
      "AcquisitionTime": ["175603.142500", "175604.342500", "175605.542500", "175606.742500", "175607.942500", "175609.142500", "175610.342500", "175611.542500", "175612.742500", "175613.942500", "175615.142500", "175616.342500", "175617.542500", "175618.742500", "175619.942500", "175621.142500", "175622.342500", "175623.542500", "175624.742500", "175625.942500", "175627.142500", "175628.342500", "175629.542500", "175630.742500", "175631.942500", "175633.142500", "175634.342500", "175635.542500", "175636.742500", "175637.942500", "175639.142500", "175640.342500", "175641.542500", "175642.742500", "175643.942500", "175645.142500", "175646.342500", "175647.542500", "175648.742500", "175649.942500", "175651.142500", "175652.342500", "175653.542500", "175654.742500", "175655.942500", "175657.142500", "175658.342500", "175659.542500", "175700.742500", "175701.942500", "175703.142500", "175704.342500", "175705.542500", "175706.742500", "175707.942500", "175709.142500", "175710.342500", "175711.542500", "175712.742500", "175713.942500", "175715.142500", "175716.342500", "175717.542500", "175718.742500", "175719.942500", "175721.142500", "175722.342500", "175723.542500", "175724.742500", "175725.942500", "175727.142500", "175728.342500", "175729.542500", "175730.742500", "175731.942500", "175733.142500", "175734.342500", "175735.542500", "175736.742500", "175737.942500", "175739.142500", "175740.342500", "175741.542500", "175742.742500", "175743.942500", "175745.142500", "175746.342500", "175747.542500", "175748.742500", "175749.942500", "175751.142500", "175752.342500", "175753.542500", "175754.742500", "175755.942500", "175757.142500", "175758.342500", "175759.542500", "175800.742500", "175801.942500", "175803.142500", "175804.342500", "175805.542500", "175806.742500", "175807.942500", "175809.142500", "175810.342500", "175811.542500", "175812.742500", "175813.942500", "175815.142500", "175816.342500", "175817.542500", "175818.742500", "175819.942500", "175821.142500", "175822.342500", "175823.542500", "175824.742500", "175825.942500", "175827.142500", "175828.342500", "175829.542500", "175830.742500", "175831.942500", "175833.142500", "175834.342500", "175835.542500", "175836.742500", "175837.942500", "175839.142500", "175840.342500", "175841.542500", "175842.742500", "175843.942500", "175845.142500", "175846.342500", "175847.542500", "175848.742500", "175849.942500", "175851.142500", "175852.342500", "175853.542500", "175854.742500", "175855.942500", "175857.142500", "175858.342500", "175859.542500", "175900.742500", "175901.942500", "175903.142500", "175904.342500", "175905.542500", "175906.742500", "175907.942500", "175909.142500", "175910.342500", "175911.542500", "175912.742500", "175913.942500", "175915.142500", "175916.342500", "175917.542500", "175918.742500", "175919.942500", "175921.142500", "175922.342500", "175923.542500", "175924.742500", "175925.942500", "175927.142500", "175928.342500", "175929.542500", "175930.742500", "175931.942500", "175933.142500", "175934.342500", "175935.542500", "175936.742500", "175937.942500", "175939.142500", "175940.342500", "175941.542500", "175942.742500", "175943.942500", "175945.142500", "175946.342500", "175947.542500", "175948.742500", "175949.942500", "175951.142500", "175952.342500", "175953.542500", "175954.742500", "175955.942500"],
      "ContentTime": ["175638.712000", "175638.715000", "175638.718000", "175638.721000", "175638.723000", "175638.726000", "175638.733000", "175638.736000", "175638.739000", "175638.741000", "175638.744000", "175638.746000", "175638.749000", "175638.752000", "175638.754000", "175638.757000", "175638.759000", "175638.762000", "175638.764000", "175638.767000", "175638.770000", "175638.772000", "175638.775000", "175638.777000", "175638.780000", "175638.782000", "175638.799000", "175638.801000", "175638.804000", "175718.706000", "175718.708000", "175718.711000", "175718.714000", "175718.716000", "175718.719000", "175718.721000", "175718.724000", "175718.727000", "175718.729000", "175718.732000", "175718.735000", "175718.737000", "175718.740000", "175718.752000", "175718.755000", "175718.757000", "175718.760000", "175718.762000", "175718.765000", "175718.767000", "175718.770000", "175718.772000", "175718.775000", "175718.777000", "175718.780000", "175718.783000", "175718.785000", "175718.788000", "175718.790000", "175718.793000", "175718.795000", "175718.798000", "175758.706000", "175758.708000", "175758.711000", "175758.714000", "175758.716000", "175758.719000", "175758.721000", "175758.724000", "175758.726000", "175758.729000", "175758.731000", "175758.734000", "175758.736000", "175758.739000", "175758.742000", "175758.744000", "175758.747000", "175758.750000", "175758.752000", "175758.755000", "175758.757000", "175758.760000", "175758.762000", "175758.765000", "175758.776000", "175758.779000", "175758.782000", "175758.787000", "175758.789000", "175758.792000", "175758.795000", "175758.797000", "175758.800000", "175838.705000", "175838.708000", "175838.713000", "175838.719000", "175838.722000", "175838.727000", "175838.729000", "175838.732000", "175838.734000", "175838.737000", "175838.743000", "175838.746000", "175838.749000", "175838.752000", "175838.754000", "175838.757000", "175838.759000", "175838.762000", "175838.765000", "175838.767000", "175838.770000", "175838.773000", "175838.775000", "175838.778000", "175838.781000", "175838.789000", "175838.791000", "175838.794000", "175838.802000", "175838.804000", "175838.817000", "175838.827000", "175838.829000", "175838.832000", "175918.705000", "175918.708000", "175918.711000", "175918.714000", "175918.716000", "175918.719000", "175918.721000", "175918.724000", "175918.726000", "175918.729000", "175918.732000", "175918.734000", "175918.737000", "175918.739000", "175918.742000", "175918.745000", "175918.747000", "175918.750000", "175918.753000", "175918.755000", "175918.758000", "175918.760000", "175918.763000", "175918.766000", "175918.768000", "175918.771000", "175918.773000", "175918.776000", "175918.778000", "175918.781000", "175918.784000", "175918.786000", "175918.789000", "175957.687000", "175957.690000", "175957.693000", "175957.695000", "175957.698000", "175957.701000", "175957.703000", "175957.706000", "175957.709000", "175957.711000", "175957.714000", "175957.717000", "175957.719000", "175957.722000", "175957.725000", "175957.728000", "175957.730000", "175957.733000", "175957.736000", "175957.738000", "175957.741000", "175957.743000", "175957.749000", "175957.752000", "175957.754000", "175957.757000", "175957.763000", "175957.765000", "175957.768000", "175957.771000", "175957.774000", "175957.777000", "175957.781000"],
      "InstanceCreationTime": ["175638.712000", "175638.715000", "175638.718000", "175638.721000", "175638.723000", "175638.726000", "175638.733000", "175638.736000", "175638.739000", "175638.741000", "175638.744000", "175638.746000", "175638.749000", "175638.752000", "175638.754000", "175638.757000", "175638.759000", "175638.762000", "175638.764000", "175638.767000", "175638.770000", "175638.772000", "175638.775000", "175638.777000", "175638.780000", "175638.782000", "175638.799000", "175638.801000", "175638.804000", "175718.706000", "175718.708000", "175718.711000", "175718.714000", "175718.716000", "175718.719000", "175718.721000", "175718.724000", "175718.727000", "175718.729000", "175718.732000", "175718.735000", "175718.737000", "175718.740000", "175718.752000", "175718.755000", "175718.757000", "175718.760000", "175718.762000", "175718.765000", "175718.767000", "175718.770000", "175718.772000", "175718.775000", "175718.777000", "175718.780000", "175718.783000", "175718.785000", "175718.788000", "175718.790000", "175718.793000", "175718.795000", "175718.798000", "175758.706000", "175758.708000", "175758.711000", "175758.714000", "175758.716000", "175758.719000", "175758.721000", "175758.724000", "175758.726000", "175758.729000", "175758.731000", "175758.734000", "175758.736000", "175758.739000", "175758.742000", "175758.744000", "175758.747000", "175758.750000", "175758.752000", "175758.755000", "175758.757000", "175758.760000", "175758.762000", "175758.765000", "175758.776000", "175758.779000", "175758.782000", "175758.787000", "175758.789000", "175758.792000", "175758.795000", "175758.797000", "175758.800000", "175838.705000", "175838.708000", "175838.713000", "175838.719000", "175838.722000", "175838.727000", "175838.729000", "175838.732000", "175838.734000", "175838.737000", "175838.743000", "175838.746000", "175838.749000", "175838.752000", "175838.754000", "175838.757000", "175838.759000", "175838.762000", "175838.765000", "175838.767000", "175838.770000", "175838.773000", "175838.775000", "175838.778000", "175838.781000", "175838.789000", "175838.791000", "175838.794000", "175838.802000", "175838.804000", "175838.817000", "175838.827000", "175838.829000", "175838.832000", "175918.705000", "175918.708000", "175918.711000", "175918.714000", "175918.716000", "175918.719000", "175918.721000", "175918.724000", "175918.726000", "175918.729000", "175918.732000", "175918.734000", "175918.737000", "175918.739000", "175918.742000", "175918.745000", "175918.747000", "175918.750000", "175918.753000", "175918.755000", "175918.758000", "175918.760000", "175918.763000", "175918.766000", "175918.768000", "175918.771000", "175918.773000", "175918.776000", "175918.778000", "175918.781000", "175918.784000", "175918.786000", "175918.789000", "175957.687000", "175957.690000", "175957.693000", "175957.695000", "175957.698000", "175957.701000", "175957.703000", "175957.706000", "175957.709000", "175957.711000", "175957.714000", "175957.717000", "175957.719000", "175957.722000", "175957.725000", "175957.728000", "175957.730000", "175957.733000", "175957.736000", "175957.738000", "175957.741000", "175957.743000", "175957.749000", "175957.752000", "175957.754000", "175957.757000", "175957.763000", "175957.765000", "175957.768000", "175957.771000", "175957.774000", "175957.777000", "175957.781000"],
      "InstanceNumber": [1, 2, 3, 4, 5, 6, 7, 8, 9, 10, 11, 12, 13, 14, 15, 16, 17, 18, 19, 20, 21, 22, 23, 24, 25, 26, 27, 28, 29, 30, 31, 32, 33, 34, 35, 36, 37, 38, 39, 40, 41, 42, 43, 44, 45, 46, 47, 48, 49, 50, 51, 52, 53, 54, 55, 56, 57, 58, 59, 60, 61, 62, 63, 64, 65, 66, 67, 68, 69, 70, 71, 72, 73, 74, 75, 76, 77, 78, 79, 80, 81, 82, 83, 84, 85, 86, 87, 88, 89, 90, 91, 92, 93, 94, 95, 96, 97, 98, 99, 100, 101, 102, 103, 104, 105, 106, 107, 108, 109, 110, 111, 112, 113, 114, 115, 116, 117, 118, 119, 120, 121, 122, 123, 124, 125, 126, 127, 128, 129, 130, 131, 132, 133, 134, 135, 136, 137, 138, 139, 140, 141, 142, 143, 144, 145, 146, 147, 148, 149, 150, 151, 152, 153, 154, 155, 156, 157, 158, 159, 160, 161, 162, 163, 164, 165, 166, 167, 168, 169, 170, 171, 172, 173, 174, 175, 176, 177, 178, 179, 180, 181, 182, 183, 184, 185, 186, 187, 188, 189, 190, 191, 192, 193, 194, 195],
      "LargestImagePixelValue": [1857, 1804, 1772, 1796, 1766, 1809, 1749, 1781, 1781, 1756, 1772, 1761, 1797, 1755, 1790, 1749, 1783, 1775, 1760, 1772, 1733, 1779, 1756, 1765, 1766, 1763, 1768, 1753, 1772, 1764, 1761, 1730, 1788, 1722, 1756, 1737, 1791, 1748, 1763, 1779, 1728, 1725, 1726, 1755, 1732, 1745, 1703, 1731, 1753, 1732, 1770, 1746, 1761, 1747, 1753, 1752, 1753, 1756, 1705, 1736, 1731, 1755, 1725, 1772, 1746, 1778, 1740, 1760, 1754, 1745, 1764, 1729, 1753, 1755, 1761, 1774, 1776, 1777, 1736, 1787, 1748, 1791, 1757, 1768, 1768, 1742, 1771, 1756, 1766, 1767, 1738, 1742, 1758, 1765, 1739, 1773, 1738, 1758, 1742, 1776, 1735, 1749, 1732, 1768, 1733, 1754, 1742, 1768, 1745, 1771, 1760, 1775, 1762, 1788, 1776, 1780, 1773, 1781, 1759, 1776, 1758, 1790, 1751, 1790, 1775, 1774, 1767, 1757, 1790, 1766, 1812, 1762, 1790, 1793, 1776, 1794, 1779, 1796, 1785, 1804, 1777, 1796, 1762, 1796, 1766, 1787, 1765, 1775, 1775, 1760, 1758, 1746, 1800, 1764, 1790, 1798, 1730, 1782, 1792, 1735, 1789, 1730, 1790, 1744, 1789, 1770, 1751, 1796, 1697, 1655, 1618, 1637, 1629, 1638, 1666, 1641, 1683, 1681, 1723, 1681, 1688, 1696, 1700, 1703, 1703, 1742, 1717, 1736, 1719, 1732, 1721, 1725, 1732, 1733, 1721],
      "WindowCenter": [551.0, 547.0, 546.0, 547.0, 546.0, 545.0, 545.0, 545.0, 546.0, 546.0, 547.0, 546.0, 546.0, 545.0, 546.0, 545.0, 546.0, 545.0, 544.0, 544.0, 544.0, 545.0, 545.0, 545.0, 546.0, 547.0, 548.0, 547.0, 547.0, 546.0, 545.0, 545.0, 546.0, 546.0, 547.0, 547.0, 547.0, 544.0, 544.0, 545.0, 545.0, 546.0, 547.0, 547.0, 546.0, 545.0, 544.0, 545.0, 545.0, 544.0, 544.0, 543.0, 544.0, 545.0, 545.0, 544.0, 544.0, 544.0, 544.0, 545.0, 547.0, 549.0, 549.0, 548.0, 546.0, 546.0, 545.0, 545.0, 545.0, 546.0, 546.0, 546.0, 547.0, 547.0, 546.0, 546.0, 545.0, 544.0, 544.0, 545.0, 545.0, 546.0, 545.0, 545.0, 545.0, 546.0, 547.0, 547.0, 547.0, 546.0, 545.0, 544.0, 544.0, 544.0, 544.0, 545.0, 545.0, 546.0, 545.0, 546.0, 545.0, 545.0, 545.0, 545.0, 545.0, 546.0, 546.0, 545.0, 545.0, 546.0, 547.0, 547.0, 546.0, 546.0, 545.0, 544.0, 545.0, 546.0, 547.0, 547.0, 546.0, 547.0, 545.0, 545.0, 544.0, 545.0, 545.0, 547.0, 548.0, 548.0, 549.0, 547.0, 547.0, 545.0, 545.0, 546.0, 546.0, 547.0, 548.0, 549.0, 548.0, 548.0, 546.0, 546.0, 544.0, 545.0, 544.0, 545.0, 544.0, 544.0, 544.0, 543.0, 545.0, 545.0, 548.0, 549.0, 547.0, 548.0, 547.0, 544.0, 544.0, 542.0, 543.0, 543.0, 544.0, 544.0, 544.0, 545.0, 543.0, 544.0, 543.0, 544.0, 543.0, 543.0, 542.0, 542.0, 543.0, 543.0, 544.0, 543.0, 544.0, 545.0, 545.0, 544.0, 544.0, 545.0, 545.0, 546.0, 545.0, 546.0, 546.0, 546.0, 548.0, 548.0, 548.0],
      "WindowWidth": [1170.0, 1162.0, 1160.0, 1161.0, 1159.0, 1158.0, 1157.0, 1159.0, 1159.0, 1160.0, 1161.0, 1160.0, 1160.0, 1157.0, 1159.0, 1157.0, 1160.0, 1158.0, 1156.0, 1156.0, 1156.0, 1157.0, 1158.0, 1159.0, 1160.0, 1162.0, 1164.0, 1163.0, 1162.0, 1160.0, 1159.0, 1158.0, 1160.0, 1160.0, 1163.0, 1163.0, 1162.0, 1156.0, 1156.0, 1158.0, 1159.0, 1161.0, 1162.0, 1162.0, 1160.0, 1158.0, 1156.0, 1157.0, 1158.0, 1155.0, 1156.0, 1154.0, 1156.0, 1157.0, 1157.0, 1155.0, 1155.0, 1155.0, 1155.0, 1158.0, 1162.0, 1166.0, 1166.0, 1164.0, 1160.0, 1160.0, 1158.0, 1158.0, 1158.0, 1160.0, 1159.0, 1160.0, 1162.0, 1162.0, 1161.0, 1159.0, 1158.0, 1156.0, 1155.0, 1158.0, 1158.0, 1160.0, 1157.0, 1157.0, 1157.0, 1160.0, 1162.0, 1163.0, 1163.0, 1161.0, 1158.0, 1156.0, 1155.0, 1156.0, 1156.0, 1158.0, 1158.0, 1159.0, 1158.0, 1159.0, 1158.0, 1158.0, 1158.0, 1158.0, 1157.0, 1160.0, 1159.0, 1158.0, 1158.0, 1160.0, 1161.0, 1162.0, 1161.0, 1159.0, 1157.0, 1156.0, 1157.0, 1160.0, 1161.0, 1162.0, 1161.0, 1160.0, 1157.0, 1157.0, 1156.0, 1157.0, 1158.0, 1162.0, 1165.0, 1165.0, 1166.0, 1162.0, 1161.0, 1157.0, 1159.0, 1159.0, 1160.0, 1162.0, 1164.0, 1167.0, 1165.0, 1164.0, 1160.0, 1159.0, 1155.0, 1157.0, 1157.0, 1157.0, 1155.0, 1155.0, 1155.0, 1153.0, 1157.0, 1158.0, 1165.0, 1167.0, 1163.0, 1163.0, 1161.0, 1156.0, 1154.0, 1151.0, 1152.0, 1152.0, 1155.0, 1156.0, 1156.0, 1156.0, 1154.0, 1156.0, 1154.0, 1156.0, 1154.0, 1153.0, 1153.0, 1153.0, 1154.0, 1153.0, 1155.0, 1154.0, 1156.0, 1158.0, 1159.0, 1157.0, 1156.0, 1158.0, 1159.0, 1159.0, 1157.0, 1159.0, 1160.0, 1161.0, 1164.0, 1165.0, 1164.0]
    },
    "slices": {}
  }
}