{
  "AcquisitionMatrixPE": 88,
  "AcquisitionNumber": 1,
  "AcquisitionTime": "17:13:11.692500",
  "BandwidthPerPixelPhaseEncode": 19.592,
  "BaseResolution": 88,
  "BodyPartExamined": "BRAIN",
  "ConsistencyInfo": "N4_VE11C_LATEST_20160120",
  "ConversionSoftware": "dcm2niix",
  "ConversionSoftwareVersion": "v1.0.20190902",
  "DerivedVendorReportedEchoSpacing": 0.000580014,
  "DeviceSerialNumber": "67050",
  "DwellTime": 2.6e-06,
  "EchoTime": 0.033,
  "EchoTrainLength": 88,
  "EffectiveEchoSpacing": 0.000580014,
  "FlipAngle": 62,
  "ImageOrientationPatientDICOM": [0.991393, 0.130702, -0.00758271, -0.130695, 0.984605, -0.116068],
  "ImageType": [
    "ORIGINAL",
    "PRIMARY",
    "M",
    "ND",
    "MOSAIC"
],
  "ImagingFrequency": 123.251,
  "InPlanePhaseEncodingDirectionDICOM": "COL",
  "InstitutionAddress": "Olive_Street_60_Providence_RI_US_02912",
  "InstitutionName": "BROWN_UNIVERSITY_MRF",
  "InstitutionalDepartmentName": "Department",
  "MRAcquisitionType": "2D",
  "MagneticFieldStrength": 3,
  "Manufacturer": "Siemens",
  "ManufacturersModelName": "Prisma_fit",
  "Modality": "MR",
  "MultibandAccelerationFactor": 4,
  "PartialFourier": 1,
  "PatientPosition": "HFS",
  "PercentPhaseFOV": 100,
  "PhaseEncodingDirection": "j-",
  "PhaseEncodingSteps": 88,
  "PhaseResolution": 1,
  "PixelBandwidth": 2185,
  "ProcedureStepDescription": "ASHENHAV_1222",
  "ProtocolName": "func-bold_task-RDMmotion_run-04",
  "PulseSequenceDetails": "%SiemensSeq%_ep2d_bold",
  "ReceiveCoilActiveElements": "HC1-7;NC1",
  "ReceiveCoilName": "HeadNeck_64",
  "ReconMatrixPE": 88,
  "RefLinesPE": 8,
  "RepetitionTime": 1.2,
  "SAR": 0.0554916,
  "ScanOptions": "FS",
  "ScanningSequence": "EP",
  "SequenceName": "_epfid2d1_88",
  "SequenceVariant": "SK",
  "SeriesDescription": "func-bold_task-RDMmotion_run-04",
  "SeriesNumber": 13,
  "ShimSetting": [1733, -9087, 4434, 489, -163, -427, 55, -24],
  "SliceThickness": 2.4,
  "SliceTiming": [0.55, 0, 0.63, 0.0775, 0.7075, 0.1575, 0.7875, 0.235, 0.865, 0.315, 0.945, 0.3925, 1.0225, 0.4725, 1.1, 0.55, 0, 0.63, 0.0775, 0.7075, 0.1575, 0.7875, 0.235, 0.865, 0.315, 0.945, 0.3925, 1.0225, 0.4725, 1.1, 0.55, 0, 0.63, 0.0775, 0.7075, 0.1575, 0.7875, 0.235, 0.865, 0.315, 0.945, 0.3925, 1.0225, 0.4725, 1.1, 0.55, 0, 0.63, 0.0775, 0.7075, 0.1575, 0.7875, 0.235, 0.865, 0.315, 0.945, 0.3925, 1.0225, 0.4725, 1.1],
  "SoftwareVersions": "syngo_MR_E11",
  "SpacingBetweenSlices": 2.4,
  "StationName": "AWP67050",
  "TaskName": "RDMmotion",
  "TotalReadoutTime": 0.0504612,
  "TxRefAmp": 227.908,
  "dcmmeta_affine": [
    [-2.377089262008667, -0.3133717179298401, 0.018490636721253395, 117.16777801513672],
    [-0.31338879466056824, 2.360814094543457, -0.2785446047782898, -75.1617431640625],
    [-0.018181268125772476, 0.27830004692077637, 2.38370943069458, -78.72169494628906],
    [0.0, 0.0, 0.0, 1.0]
],
  "dcmmeta_reorient_transform": [
    [0.0, -1.0, 0.0, 87.0],
    [1.0, 0.0, 0.0, 0.0],
    [0.0, 0.0, 1.0, 0.0],
    [0.0, 0.0, 0.0, 1.0]
],
  "dcmmeta_shape": [88, 88, 60, 125],
  "dcmmeta_slice_dim": 2,
  "dcmmeta_version": 0.6,
  "global": {
    "const": {
      "AcquisitionMatrix": [88, 0, 0, 88],
      "AngioFlag": "N",
      "BitsAllocated": 16,
      "BitsStored": 12,
      "BodyPartExamined": "BRAIN",
      "Columns": 704,
      "DeidentificationMethodCodeSequence": [
        {
          "CodeMeaning": "XNAT DicomEdit 6 Script",
          "CodeValue": "3",
          "CodingSchemeDesignator": "XNAT",
          "CodingSchemeVersion": "1.0"}
],
      "EchoNumbers": 1,
      "EchoTime": 33.0,
      "EchoTrainLength": 88,
      "FlipAngle": 62.0,
      "HighBit": 11,
      "ImageOrientationPatient": [0.99139264502865, 0.13070243268288, -0.0075827088742, -0.1306953140395, 0.98460494251034, -0.1160682647079],
      "ImagePositionPatient": [-725.52941247038, -953.88357363992, 36.806649336632],
      "ImageType": [
        "ORIGINAL",
        "PRIMARY",
        "M",
        "ND",
        "MOSAIC"
],
      "ImagedNucleus": "1H",
      "ImagingFrequency": 123.250767,
      "InPlanePhaseEncodingDirection": "COL",
      "MRAcquisitionType": "2D",
      "MagneticFieldStrength": 3.0,
      "Manufacturer": "SIEMENS",
      "ManufacturerModelName": "Prisma_fit",
      "Modality": "MR",
      "NumberOfAverages": 1.0,
      "NumberOfPhaseEncodingSteps": 88,
      "PercentPhaseFieldOfView": 100.0,
      "PercentSampling": 100.0,
      "PerformedProcedureStepStartTime": "161951.804000",
      "PhotometricInterpretation": "MONOCHROME2",
      "PixelBandwidth": 2185.0,
      "PixelRepresentation": 0,
      "PixelSpacing": [2.3977272510529, 2.3977272510529],
      "ProtocolName": "func-bold_task-RDMmotion_run-04",
      "RepetitionTime": 1200.0,
      "Rows": 704,
      "SAR": 0.05549160566936,
      "SamplesPerPixel": 1,
      "ScanOptions": "FS",
      "ScanningSequence": "EP",
      "SequenceName": "*epfid2d1_88",
      "SequenceVariant": "SK",
      "SeriesDescription": "func-bold_task-RDMmotion_run-04",
      "SeriesNumber": 13,
      "SeriesTime": "171351.935000",
      "SliceLocation": -68.561355991605,
      "SliceThickness": 2.4000000953674,
      "SmallestImagePixelValue": 0,
      "SoftwareVersions": "syngo MR E11",
      "SpacingBetweenSlices": 2.4000000305043,
      "SpecificCharacterSet": "ISO_IR 100",
      "StudyID": "1",
      "StudyTime": "161951.734000",
      "TransmitCoilName": "Body",
      "VariableFlipAngleFlag": "N",
      "WindowCenterWidthExplanation": "Algo1",
      "dBdt": 0.0},
    "slices": {}
  },
  "time": {
    "samples": {
      "AcquisitionNumber": [1, 2, 3, 4, 5, 6, 7, 8, 9, 10, 11, 12, 13, 14, 15, 16, 17, 18, 19, 20, 21, 22, 23, 24, 25, 26, 27, 28, 29, 30, 31, 32, 33, 34, 35, 36, 37, 38, 39, 40, 41, 42, 43, 44, 45, 46, 47, 48, 49, 50, 51, 52, 53, 54, 55, 56, 57, 58, 59, 60, 61, 62, 63, 64, 65, 66, 67, 68, 69, 70, 71, 72, 73, 74, 75, 76, 77, 78, 79, 80, 81, 82, 83, 84, 85, 86, 87, 88, 89, 90, 91, 92, 93, 94, 95, 96, 97, 98, 99, 100, 101, 102, 103, 104, 105, 106, 107, 108, 109, 110, 111, 112, 113, 114, 115, 116, 117, 118, 119, 120, 121, 122, 123, 124, 125],
      "AcquisitionTime": ["171311.692500", "171312.892500", "171314.092500", "171315.292500", "171316.492500", "171317.692500", "171318.892500", "171320.092500", "171321.292500", "171322.492500", "171323.692500", "171324.892500", "171326.092500", "171327.292500", "171328.492500", "171329.692500", "171330.892500", "171332.092500", "171333.292500", "171334.492500", "171335.692500", "171336.892500", "171338.092500", "171339.292500", "171340.492500", "171341.692500", "171342.892500", "171344.092500", "171345.292500", "171346.492500", "171347.692500", "171348.892500", "171350.092500", "171351.292500", "171352.492500", "171353.692500", "171354.892500", "171356.092500", "171357.292500", "171358.492500", "171359.692500", "171400.892500", "171402.092500", "171403.292500", "171404.492500", "171405.692500", "171406.892500", "171408.092500", "171409.292500", "171410.492500", "171411.692500", "171412.892500", "171414.092500", "171415.292500", "171416.492500", "171417.692500", "171418.892500", "171420.092500", "171421.292500", "171422.492500", "171423.692500", "171424.892500", "171426.092500", "171427.292500", "171428.492500", "171429.692500", "171430.892500", "171432.092500", "171433.292500", "171434.492500", "171435.692500", "171436.892500", "171438.092500", "171439.292500", "171440.492500", "171441.692500", "171442.892500", "171444.092500", "171445.292500", "171446.492500", "171447.692500", "171448.892500", "171450.092500", "171451.292500", "171452.492500", "171453.692500", "171454.892500", "171456.092500", "171457.292500", "171458.492500", "171459.692500", "171500.892500", "171502.092500", "171503.292500", "171504.492500", "171505.692500", "171506.892500", "171508.092500", "171509.292500", "171510.492500", "171511.692500", "171512.892500", "171514.092500", "171515.292500", "171516.492500", "171517.692500", "171518.892500", "171520.092500", "171521.292500", "171522.492500", "171523.692500", "171524.892500", "171526.092500", "171527.292500", "171528.492500", "171529.692500", "171530.892500", "171532.092500", "171533.292500", "171534.492500", "171535.692500", "171536.892500", "171538.092500", "171539.292500", "171540.492500"],
      "ContentTime": ["171351.938000", "171351.941000", "171351.944000", "171351.947000", "171351.949000", "171351.952000", "171351.954000", "171351.957000", "171351.959000", "171351.962000", "171351.966000", "171351.969000", "171351.971000", "171351.974000", "171351.976000", "171351.979000", "171351.981000", "171351.984000", "171351.987000", "171351.989000", "171351.992000", "171351.994000", "171351.997000", "171352.000000", "171352.003000", "171352.006000", "171352.008000", "171352.022000", "171352.024000", "171352.027000", "171352.030000", "171352.032000", "171352.035000", "171431.934000", "171431.936000", "171431.939000", "171431.942000", "171431.951000", "171431.953000", "171431.956000", "171431.959000", "171431.961000", "171431.964000", "171431.966000", "171431.969000", "171431.972000", "171431.974000", "171431.977000", "171431.979000", "171431.982000", "171431.985000", "171431.987000", "171431.990000", "171431.993000", "171431.995000", "171431.998000", "171432.001000", "171432.004000", "171432.006000", "171432.009000", "171432.012000", "171432.014000", "171432.017000", "171432.019000", "171432.022000", "171432.025000", "171511.934000", "171511.937000", "171511.940000", "171511.943000", "171511.945000", "171511.951000", "171511.954000", "171511.956000", "171511.959000", "171511.961000", "171511.964000", "171511.966000", "171511.969000", "171511.972000", "171511.974000", "171511.977000", "171511.979000", "171511.982000", "171511.984000", "171511.987000", "171511.990000", "171511.992000", "171511.995000", "171511.997000", "171512.000000", "171512.003000", "171512.005000", "171512.008000", "171512.010000", "171512.013000", "171512.015000", "171512.018000", "171512.020000", "171512.023000", "171541.598000", "171541.601000", "171541.604000", "171541.614000", "171541.617000", "171541.619000", "171541.622000", "171541.625000", "171541.627000", "171541.630000", "171541.633000", "171541.635000", "171541.638000", "171541.641000", "171541.643000", "171541.646000", "171541.648000", "171541.651000", "171541.654000", "171541.656000", "171541.659000", "171541.662000", "171541.664000", "171541.667000", "171541.669000"],
      "InstanceCreationTime": ["171351.938000", "171351.941000", "171351.944000", "171351.947000", "171351.949000", "171351.952000", "171351.954000", "171351.957000", "171351.959000", "171351.962000", "171351.966000", "171351.969000", "171351.971000", "171351.974000", "171351.976000", "171351.979000", "171351.981000", "171351.984000", "171351.987000", "171351.989000", "171351.992000", "171351.994000", "171351.997000", "171352.000000", "171352.003000", "171352.006000", "171352.008000", "171352.022000", "171352.024000", "171352.027000", "171352.030000", "171352.032000", "171352.035000", "171431.934000", "171431.936000", "171431.939000", "171431.942000", "171431.951000", "171431.953000", "171431.956000", "171431.959000", "171431.961000", "171431.964000", "171431.966000", "171431.969000", "171431.972000", "171431.974000", "171431.977000", "171431.979000", "171431.982000", "171431.985000", "171431.987000", "171431.990000", "171431.993000", "171431.995000", "171431.998000", "171432.001000", "171432.004000", "171432.006000", "171432.009000", "171432.012000", "171432.014000", "171432.017000", "171432.019000", "171432.022000", "171432.025000", "171511.934000", "171511.937000", "171511.940000", "171511.943000", "171511.945000", "171511.951000", "171511.954000", "171511.956000", "171511.959000", "171511.961000", "171511.964000", "171511.966000", "171511.969000", "171511.972000", "171511.974000", "171511.977000", "171511.979000", "171511.982000", "171511.984000", "171511.987000", "171511.990000", "171511.992000", "171511.995000", "171511.997000", "171512.000000", "171512.003000", "171512.005000", "171512.008000", "171512.010000", "171512.013000", "171512.015000", "171512.018000", "171512.020000", "171512.023000", "171541.598000", "171541.601000", "171541.604000", "171541.614000", "171541.617000", "171541.619000", "171541.622000", "171541.625000", "171541.627000", "171541.630000", "171541.633000", "171541.635000", "171541.638000", "171541.641000", "171541.643000", "171541.646000", "171541.648000", "171541.651000", "171541.654000", "171541.656000", "171541.659000", "171541.662000", "171541.664000", "171541.667000", "171541.669000"],
      "InstanceNumber": [1, 2, 3, 4, 5, 6, 7, 8, 9, 10, 11, 12, 13, 14, 15, 16, 17, 18, 19, 20, 21, 22, 23, 24, 25, 26, 27, 28, 29, 30, 31, 32, 33, 34, 35, 36, 37, 38, 39, 40, 41, 42, 43, 44, 45, 46, 47, 48, 49, 50, 51, 52, 53, 54, 55, 56, 57, 58, 59, 60, 61, 62, 63, 64, 65, 66, 67, 68, 69, 70, 71, 72, 73, 74, 75, 76, 77, 78, 79, 80, 81, 82, 83, 84, 85, 86, 87, 88, 89, 90, 91, 92, 93, 94, 95, 96, 97, 98, 99, 100, 101, 102, 103, 104, 105, 106, 107, 108, 109, 110, 111, 112, 113, 114, 115, 116, 117, 118, 119, 120, 121, 122, 123, 124, 125],
      "LargestImagePixelValue": [1779, 1733, 1690, 1671, 1687, 1678, 1667, 1672, 1659, 1665, 1638, 1656, 1650, 1659, 1659, 1663, 1650, 1648, 1665, 1646, 1647, 1666, 1663, 1659, 1658, 1660, 1644, 1666, 1634, 1666, 1654, 1654, 1669, 1669, 1645, 1653, 1637, 1658, 1647, 1646, 1668, 1646, 1638, 1641, 1647, 1647, 1641, 1648, 1640, 1661, 1657, 1637, 1635, 1642, 1658, 1649, 1660, 1675, 1670, 1652, 1658, 1693, 1730, 1717, 1710, 1710, 1682, 1696, 1679, 1676, 1657, 1681, 1679, 1685, 1687, 1710, 1705, 1690, 1688, 1685, 1688, 1736, 1717, 1739, 1700, 1716, 1676, 1698, 1670, 1675, 1667, 1666, 1660, 1663, 1654, 1685, 1668, 1700, 1682, 1690, 1690, 1677, 1693, 1698, 1692, 1677, 1694, 1685, 1681, 1691, 1727, 1696, 1695, 1699, 1704, 1696, 1700, 1717, 1692, 1677, 1694, 1699, 1693, 1702, 1719],
      "WindowCenter": [556.0, 552.0, 550.0, 550.0, 551.0, 551.0, 551.0, 551.0, 550.0, 549.0, 546.0, 547.0, 549.0, 550.0, 550.0, 549.0, 548.0, 548.0, 548.0, 549.0, 548.0, 547.0, 547.0, 547.0, 549.0, 548.0, 547.0, 546.0, 546.0, 547.0, 550.0, 550.0, 550.0, 550.0, 548.0, 548.0, 548.0, 550.0, 551.0, 549.0, 550.0, 549.0, 545.0, 546.0, 546.0, 545.0, 546.0, 546.0, 547.0, 547.0, 547.0, 546.0, 547.0, 547.0, 548.0, 549.0, 549.0, 549.0, 548.0, 549.0, 550.0, 552.0, 553.0, 551.0, 549.0, 549.0, 549.0, 549.0, 548.0, 546.0, 546.0, 547.0, 547.0, 548.0, 549.0, 549.0, 549.0, 549.0, 548.0, 548.0, 547.0, 549.0, 549.0, 549.0, 547.0, 545.0, 543.0, 542.0, 542.0, 543.0, 543.0, 544.0, 543.0, 544.0, 545.0, 547.0, 548.0, 548.0, 547.0, 547.0, 547.0, 548.0, 548.0, 548.0, 548.0, 547.0, 547.0, 549.0, 550.0, 551.0, 550.0, 549.0, 549.0, 550.0, 550.0, 550.0, 550.0, 549.0, 548.0, 548.0, 549.0, 550.0, 551.0, 551.0, 552.0],
      "WindowWidth": [1182.0, 1174.0, 1169.0, 1170.0, 1171.0, 1173.0, 1173.0, 1172.0, 1169.0, 1167.0, 1162.0, 1164.0, 1167.0, 1169.0, 1169.0, 1166.0, 1165.0, 1165.0, 1166.0, 1167.0, 1165.0, 1163.0, 1164.0, 1164.0, 1167.0, 1166.0, 1163.0, 1161.0, 1161.0, 1164.0, 1169.0, 1169.0, 1170.0, 1169.0, 1166.0, 1166.0, 1165.0, 1170.0, 1171.0, 1167.0, 1169.0, 1167.0, 1159.0, 1161.0, 1160.0, 1159.0, 1161.0, 1162.0, 1164.0, 1163.0, 1163.0, 1162.0, 1163.0, 1164.0, 1165.0, 1168.0, 1167.0, 1167.0, 1165.0, 1168.0, 1171.0, 1174.0, 1176.0, 1171.0, 1167.0, 1167.0, 1166.0, 1167.0, 1164.0, 1161.0, 1161.0, 1163.0, 1162.0, 1165.0, 1167.0, 1167.0, 1168.0, 1167.0, 1165.0, 1165.0, 1162.0, 1166.0, 1167.0, 1166.0, 1163.0, 1159.0, 1155.0, 1152.0, 1153.0, 1153.0, 1155.0, 1156.0, 1155.0, 1157.0, 1159.0, 1162.0, 1165.0, 1165.0, 1162.0, 1162.0, 1164.0, 1165.0, 1165.0, 1164.0, 1164.0, 1163.0, 1164.0, 1167.0, 1170.0, 1171.0, 1170.0, 1166.0, 1167.0, 1168.0, 1169.0, 1169.0, 1169.0, 1167.0, 1164.0, 1164.0, 1166.0, 1168.0, 1170.0, 1172.0, 1172.0]
    },
    "slices": {}
  }
}