{
  "AcquisitionMatrixPE": 88,
  "AcquisitionNumber": 1,
  "AcquisitionTime": "16:51:55.180000",
  "BandwidthPerPixelPhaseEncode": 19.592,
  "BaseResolution": 88,
  "BodyPartExamined": "BRAIN",
  "ConsistencyInfo": "N4_VE11C_LATEST_20160120",
  "ConversionSoftware": "dcm2niix",
  "ConversionSoftwareVersion": "v1.0.20190902",
  "DerivedVendorReportedEchoSpacing": 0.000580014,
  "DeviceSerialNumber": "67050",
  "DwellTime": 2.6e-06,
  "EchoTime": 0.033,
  "EchoTrainLength": 88,
  "EffectiveEchoSpacing": 0.000580014,
  "FlipAngle": 62,
  "ImageOrientationPatientDICOM": [0.991393, 0.130702, -0.00758271, -0.130695, 0.984605, -0.116068],
  "ImageType": [
    "ORIGINAL",
    "PRIMARY",
    "M",
    "ND",
    "MOSAIC"
],
  "ImagingFrequency": 123.251,
  "InPlanePhaseEncodingDirectionDICOM": "COL",
  "InstitutionAddress": "Olive_Street_60_Providence_RI_US_02912",
  "InstitutionName": "BROWN_UNIVERSITY_MRF",
  "InstitutionalDepartmentName": "Department",
  "MRAcquisitionType": "2D",
  "MagneticFieldStrength": 3,
  "Manufacturer": "Siemens",
  "ManufacturersModelName": "Prisma_fit",
  "Modality": "MR",
  "MultibandAccelerationFactor": 4,
  "PartialFourier": 1,
  "PatientPosition": "HFS",
  "PercentPhaseFOV": 100,
  "PhaseEncodingDirection": "j-",
  "PhaseEncodingSteps": 88,
  "PhaseResolution": 1,
  "PixelBandwidth": 2185,
  "ProcedureStepDescription": "ASHENHAV_1222",
  "ProtocolName": "func-bold_task-RDMcolor_run-02",
  "PulseSequenceDetails": "%SiemensSeq%_ep2d_bold",
  "ReceiveCoilActiveElements": "HC1-7;NC1",
  "ReceiveCoilName": "HeadNeck_64",
  "ReconMatrixPE": 88,
  "RefLinesPE": 8,
  "RepetitionTime": 1.2,
  "SAR": 0.0560606,
  "ScanOptions": "FS",
  "ScanningSequence": "EP",
  "SequenceName": "_epfid2d1_88",
  "SequenceVariant": "SK",
  "SeriesDescription": "func-bold_task-RDMcolor_run-02",
  "SeriesNumber": 10,
  "ShimSetting": [1733, -9087, 4434, 489, -163, -427, 55, -24],
  "SliceThickness": 2.4,
  "SliceTiming": [0.55, 0, 0.63, 0.08, 0.7075, 0.1575, 0.7875, 0.2375, 0.865, 0.315, 0.945, 0.395, 1.0225, 0.4725, 1.1025, 0.55, 0, 0.63, 0.08, 0.7075, 0.1575, 0.7875, 0.2375, 0.865, 0.315, 0.945, 0.395, 1.0225, 0.4725, 1.1025, 0.55, 0, 0.63, 0.08, 0.7075, 0.1575, 0.7875, 0.2375, 0.865, 0.315, 0.945, 0.395, 1.0225, 0.4725, 1.1025, 0.55, 0, 0.63, 0.08, 0.7075, 0.1575, 0.7875, 0.2375, 0.865, 0.315, 0.945, 0.395, 1.0225, 0.4725, 1.1025],
  "SoftwareVersions": "syngo_MR_E11",
  "SpacingBetweenSlices": 2.4,
  "StationName": "AWP67050",
  "TaskName": "RDMcolor",
  "TotalReadoutTime": 0.0504612,
  "TxRefAmp": 227.908,
  "dcmmeta_affine": [
    [-2.377089262008667, -0.3133717179298401, 0.018490636721253395, 117.16777801513672],
    [-0.31338879466056824, 2.360814094543457, -0.2785446047782898, -75.1617431640625],
    [-0.018181268125772476, 0.27830004692077637, 2.38370943069458, -78.72169494628906],
    [0.0, 0.0, 0.0, 1.0]
],
  "dcmmeta_reorient_transform": [
    [0.0, -1.0, 0.0, 87.0],
    [1.0, 0.0, 0.0, 0.0],
    [0.0, 0.0, 1.0, 0.0],
    [0.0, 0.0, 0.0, 1.0]
],
  "dcmmeta_shape": [88, 88, 60, 392],
  "dcmmeta_slice_dim": 2,
  "dcmmeta_version": 0.6,
  "global": {
    "const": {
      "AcquisitionMatrix": [88, 0, 0, 88],
      "AngioFlag": "N",
      "BitsAllocated": 16,
      "BitsStored": 12,
      "BodyPartExamined": "BRAIN",
      "Columns": 704,
      "DeidentificationMethodCodeSequence": [
        {
          "CodeMeaning": "XNAT DicomEdit 6 Script",
          "CodeValue": "3",
          "CodingSchemeDesignator": "XNAT",
          "CodingSchemeVersion": "1.0"}
],
      "EchoNumbers": 1,
      "EchoTime": 33.0,
      "EchoTrainLength": 88,
      "FlipAngle": 62.0,
      "HighBit": 11,
      "ImageOrientationPatient": [0.99139264502865, 0.13070243268288, -0.0075827088742, -0.1306953140395, 0.98460494251034, -0.1160682647079],
      "ImagePositionPatient": [-725.52941247038, -953.88357363992, 36.806649336632],
      "ImageType": [
        "ORIGINAL",
        "PRIMARY",
        "M",
        "ND",
        "MOSAIC"
],
      "ImagedNucleus": "1H",
      "ImagingFrequency": 123.250759,
      "InPlanePhaseEncodingDirection": "COL",
      "MRAcquisitionType": "2D",
      "MagneticFieldStrength": 3.0,
      "Manufacturer": "SIEMENS",
      "ManufacturerModelName": "Prisma_fit",
      "Modality": "MR",
      "NumberOfAverages": 1.0,
      "NumberOfPhaseEncodingSteps": 88,
      "PercentPhaseFieldOfView": 100.0,
      "PercentSampling": 100.0,
      "PerformedProcedureStepStartTime": "161951.804000",
      "PhotometricInterpretation": "MONOCHROME2",
      "PixelBandwidth": 2185.0,
      "PixelRepresentation": 0,
      "PixelSpacing": [2.3977272510529, 2.3977272510529],
      "ProtocolName": "func-bold_task-RDMcolor_run-02",
      "RepetitionTime": 1200.0,
      "Rows": 704,
      "SAR": 0.05606064267409,
      "SamplesPerPixel": 1,
      "ScanOptions": "FS",
      "ScanningSequence": "EP",
      "SequenceName": "*epfid2d1_88",
      "SequenceVariant": "SK",
      "SeriesDescription": "func-bold_task-RDMcolor_run-02",
      "SeriesNumber": 10,
      "SeriesTime": "165211.935000",
      "SliceLocation": -68.561355991605,
      "SliceThickness": 2.4000000953674,
      "SmallestImagePixelValue": 0,
      "SoftwareVersions": "syngo MR E11",
      "SpacingBetweenSlices": 2.4000000305043,
      "SpecificCharacterSet": "ISO_IR 100",
      "StudyID": "1",
      "StudyTime": "161951.734000",
      "TransmitCoilName": "Body",
      "VariableFlipAngleFlag": "N",
      "WindowCenterWidthExplanation": "Algo1",
      "dBdt": 0.0},
    "slices": {}
  },
  "time": {
    "samples": {
      "AcquisitionNumber": [1, 2, 3, 4, 5, 6, 7, 8, 9, 10, 11, 12, 13, 14, 15, 16, 17, 18, 19, 20, 21, 22, 23, 24, 25, 26, 27, 28, 29, 30, 31, 32, 33, 34, 35, 36, 37, 38, 39, 40, 41, 42, 43, 44, 45, 46, 47, 48, 49, 50, 51, 52, 53, 54, 55, 56, 57, 58, 59, 60, 61, 62, 63, 64, 65, 66, 67, 68, 69, 70, 71, 72, 73, 74, 75, 76, 77, 78, 79, 80, 81, 82, 83, 84, 85, 86, 87, 88, 89, 90, 91, 92, 93, 94, 95, 96, 97, 98, 99, 100, 101, 102, 103, 104, 105, 106, 107, 108, 109, 110, 111, 112, 113, 114, 115, 116, 117, 118, 119, 120, 121, 122, 123, 124, 125, 126, 127, 128, 129, 130, 131, 132, 133, 134, 135, 136, 137, 138, 139, 140, 141, 142, 143, 144, 145, 146, 147, 148, 149, 150, 151, 152, 153, 154, 155, 156, 157, 158, 159, 160, 161, 162, 163, 164, 165, 166, 167, 168, 169, 170, 171, 172, 173, 174, 175, 176, 177, 178, 179, 180, 181, 182, 183, 184, 185, 186, 187, 188, 189, 190, 191, 192, 193, 194, 195, 196, 197, 198, 199, 200, 201, 202, 203, 204, 205, 206, 207, 208, 209, 210, 211, 212, 213, 214, 215, 216, 217, 218, 219, 220, 221, 222, 223, 224, 225, 226, 227, 228, 229, 230, 231, 232, 233, 234, 235, 236, 237, 238, 239, 240, 241, 242, 243, 244, 245, 246, 247, 248, 249, 250, 251, 252, 253, 254, 255, 256, 257, 258, 259, 260, 261, 262, 263, 264, 265, 266, 267, 268, 269, 270, 271, 272, 273, 274, 275, 276, 277, 278, 279, 280, 281, 282, 283, 284, 285, 286, 287, 288, 289, 290, 291, 292, 293, 294, 295, 296, 297, 298, 299, 300, 301, 302, 303, 304, 305, 306, 307, 308, 309, 310, 311, 312, 313, 314, 315, 316, 317, 318, 319, 320, 321, 322, 323, 324, 325, 326, 327, 328, 329, 330, 331, 332, 333, 334, 335, 336, 337, 338, 339, 340, 341, 342, 343, 344, 345, 346, 347, 348, 349, 350, 351, 352, 353, 354, 355, 356, 357, 358, 359, 360, 361, 362, 363, 364, 365, 366, 367, 368, 369, 370, 371, 372, 373, 374, 375, 376, 377, 378, 379, 380, 381, 382, 383, 384, 385, 386, 387, 388, 389, 390, 391, 392],
      "AcquisitionTime": ["165155.180000", "165156.380000", "165157.580000", "165158.780000", "165159.980000", "165201.180000", "165202.380000", "165203.580000", "165204.780000", "165205.980000", "165207.180000", "165208.380000", "165209.580000", "165210.780000", "165211.980000", "165213.180000", "165214.380000", "165215.580000", "165216.780000", "165217.980000", "165219.180000", "165220.380000", "165221.580000", "165222.780000", "165223.980000", "165225.180000", "165226.380000", "165227.580000", "165228.780000", "165229.980000", "165231.180000", "165232.380000", "165233.580000", "165234.780000", "165235.980000", "165237.180000", "165238.380000", "165239.580000", "165240.780000", "165241.980000", "165243.180000", "165244.380000", "165245.580000", "165246.780000", "165247.980000", "165249.180000", "165250.380000", "165251.580000", "165252.780000", "165253.980000", "165255.180000", "165256.380000", "165257.580000", "165258.780000", "165259.980000", "165301.180000", "165302.380000", "165303.580000", "165304.780000", "165305.980000", "165307.180000", "165308.380000", "165309.580000", "165310.780000", "165311.980000", "165313.180000", "165314.380000", "165315.580000", "165316.780000", "165317.980000", "165319.180000", "165320.380000", "165321.580000", "165322.780000", "165323.980000", "165325.180000", "165326.380000", "165327.580000", "165328.780000", "165329.980000", "165331.180000", "165332.380000", "165333.580000", "165334.780000", "165335.980000", "165337.180000", "165338.380000", "165339.580000", "165340.780000", "165341.980000", "165343.180000", "165344.380000", "165345.580000", "165346.780000", "165347.980000", "165349.180000", "165350.380000", "165351.580000", "165352.780000", "165353.980000", "165355.180000", "165356.380000", "165357.580000", "165358.780000", "165359.980000", "165401.180000", "165402.380000", "165403.580000", "165404.780000", "165405.980000", "165407.180000", "165408.380000", "165409.580000", "165410.780000", "165411.980000", "165413.180000", "165414.380000", "165415.580000", "165416.780000", "165417.980000", "165419.180000", "165420.380000", "165421.580000", "165422.780000", "165423.980000", "165425.180000", "165426.380000", "165427.580000", "165428.780000", "165429.980000", "165431.180000", "165432.380000", "165433.580000", "165434.780000", "165435.980000", "165437.180000", "165438.380000", "165439.580000", "165440.780000", "165441.980000", "165443.180000", "165444.380000", "165445.580000", "165446.780000", "165447.980000", "165449.180000", "165450.380000", "165451.580000", "165452.780000", "165453.980000", "165455.180000", "165456.380000", "165457.580000", "165458.780000", "165459.980000", "165501.180000", "165502.380000", "165503.580000", "165504.780000", "165505.980000", "165507.180000", "165508.380000", "165509.580000", "165510.780000", "165511.980000", "165513.180000", "165514.380000", "165515.580000", "165516.780000", "165517.980000", "165519.180000", "165520.380000", "165521.580000", "165522.780000", "165523.980000", "165525.180000", "165526.380000", "165527.580000", "165528.780000", "165529.980000", "165531.180000", "165532.380000", "165533.580000", "165534.780000", "165535.980000", "165537.180000", "165538.380000", "165539.580000", "165540.780000", "165541.980000", "165543.180000", "165544.380000", "165545.580000", "165546.780000", "165547.980000", "165549.180000", "165550.380000", "165551.580000", "165552.780000", "165553.980000", "165555.180000", "165556.380000", "165557.580000", "165558.780000", "165559.980000", "165601.180000", "165602.380000", "165603.580000", "165604.780000", "165605.980000", "165607.180000", "165608.380000", "165609.580000", "165610.780000", "165611.980000", "165613.180000", "165614.380000", "165615.580000", "165616.780000", "165617.980000", "165619.180000", "165620.380000", "165621.580000", "165622.780000", "165623.980000", "165625.180000", "165626.380000", "165627.580000", "165628.780000", "165629.980000", "165631.180000", "165632.380000", "165633.580000", "165634.780000", "165635.980000", "165637.180000", "165638.380000", "165639.580000", "165640.780000", "165641.980000", "165643.180000", "165644.380000", "165645.580000", "165646.780000", "165647.980000", "165649.180000", "165650.380000", "165651.580000", "165652.780000", "165653.980000", "165655.180000", "165656.380000", "165657.580000", "165658.780000", "165659.980000", "165701.180000", "165702.380000", "165703.580000", "165704.780000", "165705.980000", "165707.180000", "165708.380000", "165709.580000", "165710.780000", "165711.980000", "165713.180000", "165714.380000", "165715.580000", "165716.780000", "165717.980000", "165719.180000", "165720.380000", "165721.580000", "165722.780000", "165723.980000", "165725.180000", "165726.380000", "165727.580000", "165728.780000", "165729.980000", "165731.180000", "165732.380000", "165733.580000", "165734.780000", "165735.980000", "165737.180000", "165738.380000", "165739.580000", "165740.780000", "165741.980000", "165743.180000", "165744.380000", "165745.580000", "165746.780000", "165747.980000", "165749.180000", "165750.380000", "165751.580000", "165752.780000", "165753.980000", "165755.180000", "165756.380000", "165757.580000", "165758.780000", "165759.980000", "165801.180000", "165802.380000", "165803.580000", "165804.780000", "165805.980000", "165807.180000", "165808.380000", "165809.580000", "165810.780000", "165811.980000", "165813.180000", "165814.380000", "165815.580000", "165816.780000", "165817.980000", "165819.180000", "165820.380000", "165821.580000", "165822.780000", "165823.980000", "165825.180000", "165826.380000", "165827.580000", "165828.780000", "165829.980000", "165831.180000", "165832.380000", "165833.580000", "165834.780000", "165835.980000", "165837.180000", "165838.380000", "165839.580000", "165840.780000", "165841.980000", "165843.180000", "165844.380000", "165845.580000", "165846.780000", "165847.980000", "165849.180000", "165850.380000", "165851.580000", "165852.780000", "165853.980000", "165855.180000", "165856.380000", "165857.580000", "165858.780000", "165859.980000", "165901.180000", "165902.380000", "165903.580000", "165904.780000", "165905.980000", "165907.180000", "165908.380000", "165909.580000", "165910.780000", "165911.980000", "165913.180000", "165914.380000", "165915.580000", "165916.780000", "165917.980000", "165919.180000", "165920.380000", "165921.580000", "165922.780000", "165923.980000", "165925.180000", "165926.380000", "165927.580000", "165928.780000", "165929.980000", "165931.180000", "165932.380000", "165933.580000", "165934.780000", "165935.980000", "165937.180000", "165938.380000", "165939.580000", "165940.780000", "165941.980000", "165943.180000", "165944.380000"],
      "ContentTime": ["165211.938000", "165211.941000", "165211.944000", "165211.946000", "165211.949000", "165211.952000", "165211.954000", "165211.957000", "165211.959000", "165211.962000", "165211.968000", "165211.970000", "165211.973000", "165251.933000", "165251.937000", "165251.939000", "165251.942000", "165251.944000", "165251.947000", "165251.950000", "165251.952000", "165251.955000", "165251.957000", "165251.960000", "165251.962000", "165251.965000", "165251.968000", "165251.970000", "165251.973000", "165251.975000", "165251.979000", "165251.982000", "165251.984000", "165251.987000", "165251.997000", "165252.001000", "165252.003000", "165252.006000", "165252.009000", "165252.011000", "165252.014000", "165252.017000", "165252.019000", "165252.022000", "165252.024000", "165252.027000", "165331.933000", "165331.936000", "165331.939000", "165331.942000", "165331.944000", "165331.947000", "165331.949000", "165331.952000", "165331.955000", "165331.958000", "165331.960000", "165331.963000", "165331.966000", "165331.969000", "165331.972000", "165331.975000", "165331.978000", "165331.980000", "165331.983000", "165331.985000", "165331.988000", "165331.991000", "165331.993000", "165331.996000", "165331.998000", "165332.002000", "165332.005000", "165332.007000", "165332.010000", "165332.012000", "165332.015000", "165332.018000", "165332.020000", "165411.933000", "165411.936000", "165411.939000", "165411.942000", "165411.944000", "165411.947000", "165411.949000", "165411.952000", "165411.955000", "165411.957000", "165411.960000", "165411.962000", "165411.965000", "165411.968000", "165411.970000", "165411.973000", "165411.975000", "165411.978000", "165411.981000", "165411.983000", "165411.986000", "165411.988000", "165411.991000", "165411.993000", "165411.996000", "165412.000000", "165412.002000", "165412.005000", "165412.007000", "165412.010000", "165412.013000", "165412.015000", "165412.018000", "165412.020000", "165451.933000", "165451.936000", "165451.939000", "165451.941000", "165451.944000", "165451.947000", "165451.949000", "165451.952000", "165451.954000", "165451.957000", "165451.960000", "165451.962000", "165451.965000", "165451.967000", "165451.970000", "165451.973000", "165451.975000", "165451.979000", "165451.994000", "165451.996000", "165452.000000", "165452.003000", "165452.005000", "165452.008000", "165452.011000", "165452.013000", "165452.016000", "165452.018000", "165452.021000", "165452.023000", "165452.026000", "165452.029000", "165452.031000", "165531.933000", "165531.937000", "165531.939000", "165531.942000", "165531.944000", "165531.947000", "165531.950000", "165531.952000", "165531.955000", "165531.957000", "165531.960000", "165531.963000", "165531.965000", "165531.968000", "165531.971000", "165531.973000", "165531.976000", "165531.979000", "165531.981000", "165531.984000", "165531.986000", "165531.994000", "165531.996000", "165532.000000", "165532.003000", "165532.005000", "165532.008000", "165532.011000", "165532.013000", "165532.016000", "165532.018000", "165532.021000", "165532.024000", "165611.934000", "165611.936000", "165611.939000", "165611.941000", "165611.945000", "165611.947000", "165611.950000", "165611.952000", "165611.955000", "165611.957000", "165611.960000", "165611.963000", "165611.965000", "165611.968000", "165611.970000", "165611.973000", "165611.976000", "165611.978000", "165611.981000", "165611.983000", "165611.986000", "165611.989000", "165611.991000", "165611.994000", "165611.996000", "165612.000000", "165612.002000", "165612.005000", "165612.008000", "165612.010000", "165612.013000", "165612.016000", "165612.018000", "165612.021000", "165651.934000", "165651.937000", "165651.939000", "165651.942000", "165651.945000", "165651.947000", "165651.950000", "165651.952000", "165651.955000", "165651.958000", "165651.960000", "165651.963000", "165651.966000", "165651.968000", "165651.971000", "165651.973000", "165651.976000", "165651.979000", "165651.982000", "165651.985000", "165651.987000", "165651.990000", "165651.993000", "165651.996000", "165651.998000", "165652.002000", "165652.004000", "165652.007000", "165652.010000", "165652.012000", "165652.015000", "165652.017000", "165652.020000", "165731.934000", "165731.936000", "165731.939000", "165731.942000", "165731.944000", "165731.947000", "165731.950000", "165731.953000", "165731.956000", "165731.959000", "165731.962000", "165731.964000", "165731.967000", "165731.970000", "165731.973000", "165731.975000", "165731.978000", "165731.981000", "165731.983000", "165731.986000", "165731.988000", "165731.991000", "165731.994000", "165731.996000", "165732.000000", "165732.003000", "165732.005000", "165732.008000", "165732.010000", "165732.013000", "165732.016000", "165732.018000", "165732.021000", "165811.934000", "165811.936000", "165811.940000", "165811.942000", "165811.945000", "165811.947000", "165811.950000", "165811.953000", "165811.955000", "165811.958000", "165811.961000", "165811.963000", "165811.966000", "165811.968000", "165811.971000", "165811.974000", "165811.976000", "165811.979000", "165811.982000", "165811.984000", "165811.987000", "165811.989000", "165811.992000", "165811.995000", "165811.997000", "165812.001000", "165812.004000", "165812.007000", "165812.009000", "165812.012000", "165812.015000", "165812.017000", "165812.020000", "165812.022000", "165851.933000", "165851.957000", "165851.960000", "165851.962000", "165851.965000", "165851.967000", "165851.970000", "165851.973000", "165851.976000", "165851.979000", "165851.981000", "165851.984000", "165851.987000", "165851.989000", "165851.992000", "165851.995000", "165851.997000", "165852.001000", "165852.005000", "165852.007000", "165852.010000", "165852.012000", "165852.015000", "165852.018000", "165852.020000", "165852.023000", "165852.029000", "165852.031000", "165852.034000", "165852.037000", "165852.039000", "165852.042000", "165852.045000", "165931.933000", "165931.936000", "165931.939000", "165931.942000", "165931.944000", "165931.947000", "165931.949000", "165931.952000", "165931.955000", "165931.957000", "165931.960000", "165931.963000", "165931.965000", "165931.968000", "165931.971000", "165931.974000", "165931.977000", "165931.979000", "165931.982000", "165931.985000", "165931.988000", "165931.990000", "165931.993000", "165931.996000", "165932.000000", "165932.002000", "165932.005000", "165932.008000", "165932.010000", "165932.013000", "165932.015000", "165932.018000", "165932.021000", "165946.401000", "165946.404000", "165946.407000", "165946.410000", "165946.413000", "165946.416000", "165946.418000", "165946.421000", "165946.424000", "165946.427000", "165946.429000", "165946.432000", "165946.435000"],
      "InstanceCreationTime": ["165211.938000", "165211.941000", "165211.944000", "165211.946000", "165211.949000", "165211.952000", "165211.954000", "165211.957000", "165211.959000", "165211.962000", "165211.968000", "165211.970000", "165211.973000", "165251.933000", "165251.937000", "165251.939000", "165251.942000", "165251.944000", "165251.947000", "165251.950000", "165251.952000", "165251.955000", "165251.957000", "165251.960000", "165251.962000", "165251.965000", "165251.968000", "165251.970000", "165251.973000", "165251.975000", "165251.979000", "165251.982000", "165251.984000", "165251.987000", "165251.997000", "165252.001000", "165252.003000", "165252.006000", "165252.009000", "165252.011000", "165252.014000", "165252.017000", "165252.019000", "165252.022000", "165252.024000", "165252.027000", "165331.933000", "165331.936000", "165331.939000", "165331.942000", "165331.944000", "165331.947000", "165331.949000", "165331.952000", "165331.955000", "165331.958000", "165331.960000", "165331.963000", "165331.966000", "165331.969000", "165331.972000", "165331.975000", "165331.978000", "165331.980000", "165331.983000", "165331.985000", "165331.988000", "165331.991000", "165331.993000", "165331.996000", "165331.998000", "165332.002000", "165332.005000", "165332.007000", "165332.010000", "165332.012000", "165332.015000", "165332.018000", "165332.020000", "165411.933000", "165411.936000", "165411.939000", "165411.942000", "165411.944000", "165411.947000", "165411.949000", "165411.952000", "165411.955000", "165411.957000", "165411.960000", "165411.962000", "165411.965000", "165411.968000", "165411.970000", "165411.973000", "165411.975000", "165411.978000", "165411.981000", "165411.983000", "165411.986000", "165411.988000", "165411.991000", "165411.993000", "165411.996000", "165412.000000", "165412.002000", "165412.005000", "165412.007000", "165412.010000", "165412.013000", "165412.015000", "165412.018000", "165412.020000", "165451.933000", "165451.936000", "165451.939000", "165451.941000", "165451.944000", "165451.947000", "165451.949000", "165451.952000", "165451.954000", "165451.957000", "165451.960000", "165451.962000", "165451.965000", "165451.967000", "165451.970000", "165451.973000", "165451.975000", "165451.979000", "165451.994000", "165451.996000", "165452.000000", "165452.003000", "165452.005000", "165452.008000", "165452.011000", "165452.013000", "165452.016000", "165452.018000", "165452.021000", "165452.023000", "165452.026000", "165452.029000", "165452.031000", "165531.933000", "165531.937000", "165531.939000", "165531.942000", "165531.944000", "165531.947000", "165531.950000", "165531.952000", "165531.955000", "165531.957000", "165531.960000", "165531.963000", "165531.965000", "165531.968000", "165531.971000", "165531.973000", "165531.976000", "165531.979000", "165531.981000", "165531.984000", "165531.986000", "165531.994000", "165531.996000", "165532.000000", "165532.003000", "165532.005000", "165532.008000", "165532.011000", "165532.013000", "165532.016000", "165532.018000", "165532.021000", "165532.024000", "165611.934000", "165611.936000", "165611.939000", "165611.941000", "165611.945000", "165611.947000", "165611.950000", "165611.952000", "165611.955000", "165611.957000", "165611.960000", "165611.963000", "165611.965000", "165611.968000", "165611.970000", "165611.973000", "165611.976000", "165611.978000", "165611.981000", "165611.983000", "165611.986000", "165611.989000", "165611.991000", "165611.994000", "165611.996000", "165612.000000", "165612.002000", "165612.005000", "165612.008000", "165612.010000", "165612.013000", "165612.016000", "165612.018000", "165612.021000", "165651.934000", "165651.937000", "165651.939000", "165651.942000", "165651.945000", "165651.947000", "165651.950000", "165651.952000", "165651.955000", "165651.958000", "165651.960000", "165651.963000", "165651.966000", "165651.968000", "165651.971000", "165651.973000", "165651.976000", "165651.979000", "165651.982000", "165651.985000", "165651.987000", "165651.990000", "165651.993000", "165651.996000", "165651.998000", "165652.002000", "165652.004000", "165652.007000", "165652.010000", "165652.012000", "165652.015000", "165652.017000", "165652.020000", "165731.934000", "165731.936000", "165731.939000", "165731.942000", "165731.944000", "165731.947000", "165731.950000", "165731.953000", "165731.956000", "165731.959000", "165731.962000", "165731.964000", "165731.967000", "165731.970000", "165731.973000", "165731.975000", "165731.978000", "165731.981000", "165731.983000", "165731.986000", "165731.988000", "165731.991000", "165731.994000", "165731.996000", "165732.000000", "165732.003000", "165732.005000", "165732.008000", "165732.010000", "165732.013000", "165732.016000", "165732.018000", "165732.021000", "165811.934000", "165811.936000", "165811.940000", "165811.942000", "165811.945000", "165811.947000", "165811.950000", "165811.953000", "165811.955000", "165811.958000", "165811.961000", "165811.963000", "165811.966000", "165811.968000", "165811.971000", "165811.974000", "165811.976000", "165811.979000", "165811.982000", "165811.984000", "165811.987000", "165811.989000", "165811.992000", "165811.995000", "165811.997000", "165812.001000", "165812.004000", "165812.007000", "165812.009000", "165812.012000", "165812.015000", "165812.017000", "165812.020000", "165812.022000", "165851.933000", "165851.957000", "165851.960000", "165851.962000", "165851.965000", "165851.967000", "165851.970000", "165851.973000", "165851.976000", "165851.979000", "165851.981000", "165851.984000", "165851.987000", "165851.989000", "165851.992000", "165851.995000", "165851.997000", "165852.001000", "165852.005000", "165852.007000", "165852.010000", "165852.012000", "165852.015000", "165852.018000", "165852.020000", "165852.023000", "165852.029000", "165852.031000", "165852.034000", "165852.037000", "165852.039000", "165852.042000", "165852.045000", "165931.933000", "165931.936000", "165931.939000", "165931.942000", "165931.944000", "165931.947000", "165931.949000", "165931.952000", "165931.955000", "165931.957000", "165931.960000", "165931.963000", "165931.965000", "165931.968000", "165931.971000", "165931.974000", "165931.977000", "165931.979000", "165931.982000", "165931.985000", "165931.988000", "165931.990000", "165931.993000", "165931.996000", "165932.000000", "165932.002000", "165932.005000", "165932.008000", "165932.010000", "165932.013000", "165932.015000", "165932.018000", "165932.021000", "165946.401000", "165946.404000", "165946.407000", "165946.410000", "165946.413000", "165946.416000", "165946.418000", "165946.421000", "165946.424000", "165946.427000", "165946.429000", "165946.432000", "165946.435000"],
      "InstanceNumber": [1, 2, 3, 4, 5, 6, 7, 8, 9, 10, 11, 12, 13, 14, 15, 16, 17, 18, 19, 20, 21, 22, 23, 24, 25, 26, 27, 28, 29, 30, 31, 32, 33, 34, 35, 36, 37, 38, 39, 40, 41, 42, 43, 44, 45, 46, 47, 48, 49, 50, 51, 52, 53, 54, 55, 56, 57, 58, 59, 60, 61, 62, 63, 64, 65, 66, 67, 68, 69, 70, 71, 72, 73, 74, 75, 76, 77, 78, 79, 80, 81, 82, 83, 84, 85, 86, 87, 88, 89, 90, 91, 92, 93, 94, 95, 96, 97, 98, 99, 100, 101, 102, 103, 104, 105, 106, 107, 108, 109, 110, 111, 112, 113, 114, 115, 116, 117, 118, 119, 120, 121, 122, 123, 124, 125, 126, 127, 128, 129, 130, 131, 132, 133, 134, 135, 136, 137, 138, 139, 140, 141, 142, 143, 144, 145, 146, 147, 148, 149, 150, 151, 152, 153, 154, 155, 156, 157, 158, 159, 160, 161, 162, 163, 164, 165, 166, 167, 168, 169, 170, 171, 172, 173, 174, 175, 176, 177, 178, 179, 180, 181, 182, 183, 184, 185, 186, 187, 188, 189, 190, 191, 192, 193, 194, 195, 196, 197, 198, 199, 200, 201, 202, 203, 204, 205, 206, 207, 208, 209, 210, 211, 212, 213, 214, 215, 216, 217, 218, 219, 220, 221, 222, 223, 224, 225, 226, 227, 228, 229, 230, 231, 232, 233, 234, 235, 236, 237, 238, 239, 240, 241, 242, 243, 244, 245, 246, 247, 248, 249, 250, 251, 252, 253, 254, 255, 256, 257, 258, 259, 260, 261, 262, 263, 264, 265, 266, 267, 268, 269, 270, 271, 272, 273, 274, 275, 276, 277, 278, 279, 280, 281, 282, 283, 284, 285, 286, 287, 288, 289, 290, 291, 292, 293, 294, 295, 296, 297, 298, 299, 300, 301, 302, 303, 304, 305, 306, 307, 308, 309, 310, 311, 312, 313, 314, 315, 316, 317, 318, 319, 320, 321, 322, 323, 324, 325, 326, 327, 328, 329, 330, 331, 332, 333, 334, 335, 336, 337, 338, 339, 340, 341, 342, 343, 344, 345, 346, 347, 348, 349, 350, 351, 352, 353, 354, 355, 356, 357, 358, 359, 360, 361, 362, 363, 364, 365, 366, 367, 368, 369, 370, 371, 372, 373, 374, 375, 376, 377, 378, 379, 380, 381, 382, 383, 384, 385, 386, 387, 388, 389, 390, 391, 392],
