{
  "AcquisitionMatrixPE": 88,
  "AcquisitionNumber": 1,
  "AcquisitionTime": "17:29:50.567500",
  "BandwidthPerPixelPhaseEncode": 19.592,
  "BaseResolution": 88,
  "BodyPartExamined": "BRAIN",
  "ConsistencyInfo": "N4_VE11C_LATEST_20160120",
  "ConversionSoftware": "dcm2niix",
  "ConversionSoftwareVersion": "v1.0.20190902",
  "DerivedVendorReportedEchoSpacing": 0.000580014,
  "DeviceSerialNumber": "67050",
  "DwellTime": 2.6e-06,
  "EchoTime": 0.033,
  "EchoTrainLength": 88,
  "EffectiveEchoSpacing": 0.000580014,
  "FlipAngle": 62,
  "ImageOrientationPatientDICOM": [0.991393, 0.130702, -0.00758271, -0.130695, 0.984605, -0.116068],
  "ImageType": [
    "ORIGINAL",
    "PRIMARY",
    "M",
    "ND",
    "MOSAIC"
],
  "ImagingFrequency": 123.251,
  "InPlanePhaseEncodingDirectionDICOM": "COL",
  "InstitutionAddress": "Olive_Street_60_Providence_RI_US_02912",
  "InstitutionName": "BROWN_UNIVERSITY_MRF",
  "InstitutionalDepartmentName": "Department",
  "MRAcquisitionType": "2D",
  "MagneticFieldStrength": 3,
  "Manufacturer": "Siemens",
  "ManufacturersModelName": "Prisma_fit",
  "Modality": "MR",
  "MultibandAccelerationFactor": 4,
  "PartialFourier": 1,
  "PatientPosition": "HFS",
  "PercentPhaseFOV": 100,
  "PhaseEncodingDirection": "j-",
  "PhaseEncodingSteps": 88,
  "PhaseResolution": 1,
  "PixelBandwidth": 2185,
  "ProcedureStepDescription": "ASHENHAV_1222",
  "ProtocolName": "func-bold_task-RDMcolor_run-05",
  "PulseSequenceDetails": "%SiemensSeq%_ep2d_bold",
  "ReceiveCoilActiveElements": "HC1-7;NC1",
  "ReceiveCoilName": "HeadNeck_64",
  "ReconMatrixPE": 88,
  "RefLinesPE": 8,
  "RepetitionTime": 1.2,
  "SAR": 0.0560606,
  "ScanOptions": "FS",
  "ScanningSequence": "EP",
  "SequenceName": "_epfid2d1_88",
  "SequenceVariant": "SK",
  "SeriesDescription": "func-bold_task-RDMcolor_run-05",
  "SeriesNumber": 16,
  "ShimSetting": [1733, -9087, 4434, 489, -163, -427, 55, -24],
  "SliceThickness": 2.4,
  "SliceTiming": [0.55, 0, 0.63, 0.0775, 0.7075, 0.1575, 0.785, 0.235, 0.865, 0.315, 0.9425, 0.3925, 1.0225, 0.4725, 1.1, 0.55, 0, 0.63, 0.0775, 0.7075, 0.1575, 0.785, 0.235, 0.865, 0.315, 0.9425, 0.3925, 1.0225, 0.4725, 1.1, 0.55, 0, 0.63, 0.0775, 0.7075, 0.1575, 0.785, 0.235, 0.865, 0.315, 0.9425, 0.3925, 1.0225, 0.4725, 1.1, 0.55, 0, 0.63, 0.0775, 0.7075, 0.1575, 0.785, 0.235, 0.865, 0.315, 0.9425, 0.3925, 1.0225, 0.4725, 1.1],
  "SoftwareVersions": "syngo_MR_E11",
  "SpacingBetweenSlices": 2.4,
  "StationName": "AWP67050",
  "TaskName": "RDMcolor",
  "TotalReadoutTime": 0.0504612,
  "TxRefAmp": 227.908,
  "dcmmeta_affine": [
    [-2.377089262008667, -0.3133717179298401, 0.018490636721253395, 117.16777801513672],
    [-0.31338879466056824, 2.360814094543457, -0.2785446047782898, -75.1617431640625],
    [-0.018181268125772476, 0.27830004692077637, 2.38370943069458, -78.72169494628906],
    [0.0, 0.0, 0.0, 1.0]
],
  "dcmmeta_reorient_transform": [
    [0.0, -1.0, 0.0, 87.0],
    [1.0, 0.0, 0.0, 0.0],
    [0.0, 0.0, 1.0, 0.0],
    [0.0, 0.0, 0.0, 1.0]
],
  "dcmmeta_shape": [88, 88, 60, 392],
  "dcmmeta_slice_dim": 2,
  "dcmmeta_version": 0.6,
  "global": {
    "const": {
      "AcquisitionMatrix": [88, 0, 0, 88],
      "AngioFlag": "N",
      "BitsAllocated": 16,
      "BitsStored": 12,
      "BodyPartExamined": "BRAIN",
      "Columns": 704,
      "DeidentificationMethodCodeSequence": [
        {
          "CodeMeaning": "XNAT DicomEdit 6 Script",
          "CodeValue": "3",
          "CodingSchemeDesignator": "XNAT",
          "CodingSchemeVersion": "1.0"}
],
      "EchoNumbers": 1,
      "EchoTime": 33.0,
      "EchoTrainLength": 88,
      "FlipAngle": 62.0,
      "HighBit": 11,
      "ImageOrientationPatient": [0.99139264502865, 0.13070243268288, -0.0075827088742, -0.1306953140395, 0.98460494251034, -0.1160682647079],
      "ImagePositionPatient": [-725.52941247038, -953.88357363992, 36.806649336632],
      "ImageType": [
        "ORIGINAL",
        "PRIMARY",
        "M",
        "ND",
        "MOSAIC"
],
      "ImagedNucleus": "1H",
      "ImagingFrequency": 123.250778,
      "InPlanePhaseEncodingDirection": "COL",
      "MRAcquisitionType": "2D",
      "MagneticFieldStrength": 3.0,
      "Manufacturer": "SIEMENS",
      "ManufacturerModelName": "Prisma_fit",
      "Modality": "MR",
      "NumberOfAverages": 1.0,
      "NumberOfPhaseEncodingSteps": 88,
      "PercentPhaseFieldOfView": 100.0,
      "PercentSampling": 100.0,
      "PerformedProcedureStepStartTime": "161951.804000",
      "PhotometricInterpretation": "MONOCHROME2",
      "PixelBandwidth": 2185.0,
      "PixelRepresentation": 0,
      "PixelSpacing": [2.3977272510529, 2.3977272510529],
      "ProtocolName": "func-bold_task-RDMcolor_run-05",
      "RepetitionTime": 1200.0,
      "Rows": 704,
      "SAR": 0.05606064267409,
      "SamplesPerPixel": 1,
      "ScanOptions": "FS",
      "ScanningSequence": "EP",
      "SequenceName": "*epfid2d1_88",
      "SequenceVariant": "SK",
      "SeriesDescription": "func-bold_task-RDMcolor_run-05",
      "SeriesNumber": 16,
      "SeriesTime": "173031.935000",
      "SliceLocation": -68.561355991605,
      "SliceThickness": 2.4000000953674,
      "SmallestImagePixelValue": 0,
      "SoftwareVersions": "syngo MR E11",
      "SpacingBetweenSlices": 2.4000000305043,
      "SpecificCharacterSet": "ISO_IR 100",
      "StudyID": "1",
      "StudyTime": "161951.734000",
      "TransmitCoilName": "Body",
      "VariableFlipAngleFlag": "N",
      "WindowCenterWidthExplanation": "Algo1",
      "dBdt": 0.0},
    "slices": {}
  },
  "time": {
    "samples": {
      "AcquisitionNumber": [1, 2, 3, 4, 5, 6, 7, 8, 9, 10, 11, 12, 13, 14, 15, 16, 17, 18, 19, 20, 21, 22, 23, 24, 25, 26, 27, 28, 29, 30, 31, 32, 33, 34, 35, 36, 37, 38, 39, 40, 41, 42, 43, 44, 45, 46, 47, 48, 49, 50, 51, 52, 53, 54, 55, 56, 57, 58, 59, 60, 61, 62, 63, 64, 65, 66, 67, 68, 69, 70, 71, 72, 73, 74, 75, 76, 77, 78, 79, 80, 81, 82, 83, 84, 85, 86, 87, 88, 89, 90, 91, 92, 93, 94, 95, 96, 97, 98, 99, 100, 101, 102, 103, 104, 105, 106, 107, 108, 109, 110, 111, 112, 113, 114, 115, 116, 117, 118, 119, 120, 121, 122, 123, 124, 125, 126, 127, 128, 129, 130, 131, 132, 133, 134, 135, 136, 137, 138, 139, 140, 141, 142, 143, 144, 145, 146, 147, 148, 149, 150, 151, 152, 153, 154, 155, 156, 157, 158, 159, 160, 161, 162, 163, 164, 165, 166, 167, 168, 169, 170, 171, 172, 173, 174, 175, 176, 177, 178, 179, 180, 181, 182, 183, 184, 185, 186, 187, 188, 189, 190, 191, 192, 193, 194, 195, 196, 197, 198, 199, 200, 201, 202, 203, 204, 205, 206, 207, 208, 209, 210, 211, 212, 213, 214, 215, 216, 217, 218, 219, 220, 221, 222, 223, 224, 225, 226, 227, 228, 229, 230, 231, 232, 233, 234, 235, 236, 237, 238, 239, 240, 241, 242, 243, 244, 245, 246, 247, 248, 249, 250, 251, 252, 253, 254, 255, 256, 257, 258, 259, 260, 261, 262, 263, 264, 265, 266, 267, 268, 269, 270, 271, 272, 273, 274, 275, 276, 277, 278, 279, 280, 281, 282, 283, 284, 285, 286, 287, 288, 289, 290, 291, 292, 293, 294, 295, 296, 297, 298, 299, 300, 301, 302, 303, 304, 305, 306, 307, 308, 309, 310, 311, 312, 313, 314, 315, 316, 317, 318, 319, 320, 321, 322, 323, 324, 325, 326, 327, 328, 329, 330, 331, 332, 333, 334, 335, 336, 337, 338, 339, 340, 341, 342, 343, 344, 345, 346, 347, 348, 349, 350, 351, 352, 353, 354, 355, 356, 357, 358, 359, 360, 361, 362, 363, 364, 365, 366, 367, 368, 369, 370, 371, 372, 373, 374, 375, 376, 377, 378, 379, 380, 381, 382, 383, 384, 385, 386, 387, 388, 389, 390, 391, 392],
      "AcquisitionTime": ["172950.567500", "172951.767500", "172952.967500", "172954.167500", "172955.367500", "172956.567500", "172957.767500", "172958.967500", "173000.167500", "173001.367500", "173002.567500", "173003.767500", "173004.967500", "173006.167500", "173007.367500", "173008.567500", "173009.767500", "173010.967500", "173012.167500", "173013.367500", "173014.567500", "173015.767500", "173016.967500", "173018.167500", "173019.367500", "173020.567500", "173021.767500", "173022.967500", "173024.167500", "173025.367500", "173026.567500", "173027.767500", "173028.967500", "173030.167500", "173031.367500", "173032.567500", "173033.767500", "173034.967500", "173036.167500", "173037.367500", "173038.567500", "173039.767500", "173040.967500", "173042.167500", "173043.367500", "173044.567500", "173045.767500", "173046.967500", "173048.167500", "173049.367500", "173050.567500", "173051.767500", "173052.967500", "173054.167500", "173055.367500", "173056.567500", "173057.767500", "173058.967500", "173100.167500", "173101.367500", "173102.567500", "173103.767500", "173104.967500", "173106.167500", "173107.367500", "173108.567500", "173109.767500", "173110.967500", "173112.167500", "173113.367500", "173114.567500", "173115.767500", "173116.967500", "173118.167500", "173119.367500", "173120.567500", "173121.767500", "173122.967500", "173124.167500", "173125.367500", "173126.567500", "173127.767500", "173128.967500", "173130.167500", "173131.367500", "173132.567500", "173133.767500", "173134.967500", "173136.167500", "173137.367500", "173138.567500", "173139.767500", "173140.967500", "173142.167500", "173143.367500", "173144.567500", "173145.767500", "173146.967500", "173148.167500", "173149.367500", "173150.567500", "173151.767500", "173152.967500", "173154.167500", "173155.367500", "173156.567500", "173157.767500", "173158.967500", "173200.167500", "173201.367500", "173202.567500", "173203.767500", "173204.967500", "173206.167500", "173207.367500", "173208.567500", "173209.767500", "173210.967500", "173212.167500", "173213.367500", "173214.567500", "173215.767500", "173216.967500", "173218.167500", "173219.367500", "173220.567500", "173221.767500", "173222.967500", "173224.167500", "173225.367500", "173226.567500", "173227.767500", "173228.967500", "173230.167500", "173231.367500", "173232.567500", "173233.767500", "173234.967500", "173236.167500", "173237.367500", "173238.567500", "173239.767500", "173240.967500", "173242.167500", "173243.367500", "173244.567500", "173245.767500", "173246.967500", "173248.167500", "173249.367500", "173250.567500", "173251.767500", "173252.967500", "173254.167500", "173255.367500", "173256.567500", "173257.767500", "173258.967500", "173300.167500", "173301.367500", "173302.567500", "173303.767500", "173304.967500", "173306.167500", "173307.367500", "173308.567500", "173309.767500", "173310.967500", "173312.167500", "173313.367500", "173314.567500", "173315.767500", "173316.967500", "173318.167500", "173319.367500", "173320.567500", "173321.767500", "173322.967500", "173324.167500", "173325.367500", "173326.567500", "173327.767500", "173328.967500", "173330.167500", "173331.367500", "173332.567500", "173333.767500", "173334.967500", "173336.167500", "173337.367500", "173338.567500", "173339.767500", "173340.967500", "173342.167500", "173343.367500", "173344.567500", "173345.767500", "173346.967500", "173348.167500", "173349.367500", "173350.567500", "173351.767500", "173352.967500", "173354.167500", "173355.367500", "173356.567500", "173357.767500", "173358.967500", "173400.167500", "173401.367500", "173402.567500", "173403.767500", "173404.967500", "173406.167500", "173407.367500", "173408.567500", "173409.767500", "173410.967500", "173412.167500", "173413.367500", "173414.567500", "173415.767500", "173416.967500", "173418.167500", "173419.367500", "173420.567500", "173421.767500", "173422.967500", "173424.167500", "173425.367500", "173426.567500", "173427.767500", "173428.967500", "173430.167500", "173431.367500", "173432.567500", "173433.767500", "173434.967500", "173436.167500", "173437.367500", "173438.567500", "173439.767500", "173440.967500", "173442.167500", "173443.367500", "173444.567500", "173445.767500", "173446.967500", "173448.167500", "173449.367500", "173450.567500", "173451.767500", "173452.967500", "173454.167500", "173455.367500", "173456.567500", "173457.767500", "173458.967500", "173500.167500", "173501.367500", "173502.567500", "173503.767500", "173504.967500", "173506.167500", "173507.367500", "173508.567500", "173509.767500", "173510.967500", "173512.167500", "173513.367500", "173514.567500", "173515.767500", "173516.967500", "173518.167500", "173519.367500", "173520.567500", "173521.767500", "173522.967500", "173524.167500", "173525.367500", "173526.567500", "173527.767500", "173528.967500", "173530.167500", "173531.367500", "173532.567500", "173533.767500", "173534.967500", "173536.167500", "173537.367500", "173538.567500", "173539.767500", "173540.967500", "173542.167500", "173543.367500", "173544.567500", "173545.767500", "173546.967500", "173548.167500", "173549.367500", "173550.567500", "173551.767500", "173552.967500", "173554.167500", "173555.367500", "173556.567500", "173557.767500", "173558.967500", "173600.167500", "173601.367500", "173602.567500", "173603.767500", "173604.967500", "173606.167500", "173607.367500", "173608.567500", "173609.767500", "173610.967500", "173612.167500", "173613.367500", "173614.567500", "173615.767500", "173616.967500", "173618.167500", "173619.367500", "173620.567500", "173621.767500", "173622.967500", "173624.167500", "173625.367500", "173626.567500", "173627.767500", "173628.967500", "173630.167500", "173631.367500", "173632.567500", "173633.767500", "173634.967500", "173636.167500", "173637.367500", "173638.567500", "173639.767500", "173640.967500", "173642.167500", "173643.367500", "173644.567500", "173645.767500", "173646.967500", "173648.167500", "173649.367500", "173650.567500", "173651.767500", "173652.967500", "173654.167500", "173655.367500", "173656.567500", "173657.767500", "173658.967500", "173700.167500", "173701.367500", "173702.567500", "173703.767500", "173704.967500", "173706.167500", "173707.367500", "173708.567500", "173709.767500", "173710.967500", "173712.167500", "173713.367500", "173714.567500", "173715.767500", "173716.967500", "173718.167500", "173719.367500", "173720.567500", "173721.767500", "173722.967500", "173724.167500", "173725.367500", "173726.567500", "173727.767500", "173728.967500", "173730.167500", "173731.367500", "173732.567500", "173733.767500", "173734.967500", "173736.167500", "173737.367500", "173738.567500", "173739.767500"],
      "ContentTime": ["173031.938000", "173031.941000", "173031.944000", "173031.947000", "173031.949000", "173031.952000", "173031.954000", "173031.957000", "173031.959000", "173031.962000", "173031.965000", "173031.967000", "173031.970000", "173031.972000", "173031.975000", "173031.985000", "173031.988000", "173031.990000", "173031.993000", "173031.996000", "173032.004000", "173032.006000", "173032.009000", "173032.012000", "173032.014000", "173032.017000", "173032.036000", "173032.039000", "173032.042000", "173032.044000", "173032.047000", "173032.050000", "173032.053000", "173032.055000", "173111.933000", "173111.946000", "173111.948000", "173111.951000", "173111.953000", "173111.956000", "173111.959000", "173111.961000", "173111.964000", "173111.966000", "173111.969000", "173111.971000", "173111.974000", "173111.977000", "173111.979000", "173111.982000", "173111.984000", "173111.987000", "173111.990000", "173111.992000", "173111.995000", "173111.997000", "173112.000000", "173112.002000", "173112.005000", "173112.008000", "173112.010000", "173112.016000", "173112.019000", "173112.021000", "173112.024000", "173112.027000", "173112.029000", "173131.933000", "173131.936000", "173131.939000", "173131.942000", "173131.944000", "173131.947000", "173131.949000", "173131.952000", "173131.955000", "173131.957000", "173131.960000", "173131.963000", "173131.965000", "173131.968000", "173131.970000", "173131.973000", "173131.976000", "173211.934000", "173211.936000", "173211.939000", "173211.942000", "173211.945000", "173211.947000", "173211.950000", "173211.952000", "173211.955000", "173211.958000", "173211.960000", "173211.963000", "173211.976000", "173211.978000", "173211.981000", "173211.984000", "173211.986000", "173211.989000", "173211.991000", "173211.994000", "173211.997000", "173212.000000", "173212.003000", "173212.005000", "173212.008000", "173212.010000", "173212.013000", "173212.016000", "173212.018000", "173212.021000", "173212.023000", "173212.026000", "173212.029000", "173251.934000", "173251.937000", "173251.939000", "173251.942000", "173251.944000", "173251.947000", "173251.950000", "173251.952000", "173251.955000", "173251.958000", "173251.960000", "173251.963000", "173251.965000", "173251.968000", "173251.971000", "173251.973000", "173251.976000", "173251.979000", "173251.981000", "173251.984000", "173251.986000", "173251.989000", "173251.992000", "173251.994000", "173251.997000", "173252.000000", "173252.003000", "173252.006000", "173252.008000", "173252.011000", "173252.014000", "173252.016000", "173252.019000", "173252.021000", "173331.933000", "173331.936000", "173331.939000", "173331.942000", "173331.944000", "173331.947000", "173331.949000", "173331.952000", "173331.955000", "173331.957000", "173331.960000", "173331.962000", "173331.965000", "173331.968000", "173331.970000", "173331.973000", "173331.975000", "173331.978000", "173331.981000", "173331.984000", "173331.986000", "173331.989000", "173331.992000", "173331.994000", "173331.997000", "173331.999000", "173332.002000", "173332.005000", "173332.017000", "173332.019000", "173332.022000", "173332.025000", "173332.027000", "173411.934000", "173411.936000", "173411.939000", "173411.942000", "173411.944000", "173411.947000", "173411.949000", "173411.952000", "173411.955000", "173411.957000", "173411.960000", "173411.963000", "173411.965000", "173411.968000", "173411.970000", "173411.973000", "173411.975000", "173411.978000", "173411.981000", "173411.983000", "173411.986000", "173411.989000", "173411.991000", "173411.994000", "173411.996000", "173412.000000", "173412.003000", "173412.005000", "173412.008000", "173412.010000", "173412.013000", "173412.016000", "173412.018000", "173451.933000", "173451.937000", "173451.939000", "173451.942000", "173451.945000", "173451.961000", "173451.964000", "173451.967000", "173451.969000", "173451.972000", "173451.974000", "173451.977000", "173451.980000", "173451.982000", "173451.985000", "173451.987000", "173451.990000", "173451.993000", "173451.995000", "173451.998000", "173452.002000", "173452.004000", "173452.007000", "173452.009000", "173452.012000", "173452.015000", "173452.017000", "173452.020000", "173452.023000", "173452.025000", "173452.028000", "173452.031000", "173452.033000", "173452.036000", "173531.934000", "173531.937000", "173531.939000", "173531.942000", "173531.956000", "173531.959000", "173531.962000", "173531.965000", "173531.967000", "173531.970000", "173531.977000", "173531.980000", "173531.983000", "173531.986000", "173531.988000", "173531.991000", "173531.994000", "173531.996000", "173532.000000", "173532.002000", "173532.005000", "173532.008000", "173532.010000", "173532.013000", "173532.016000", "173532.018000", "173532.021000", "173532.023000", "173532.026000", "173532.029000", "173532.031000", "173532.034000", "173532.036000", "173611.934000", "173611.937000", "173611.939000", "173611.942000", "173611.944000", "173611.947000", "173611.950000", "173611.952000", "173611.955000", "173611.958000", "173611.960000", "173611.963000", "173611.965000", "173611.968000", "173611.971000", "173611.973000", "173611.976000", "173611.979000", "173611.981000", "173611.984000", "173611.986000", "173611.989000", "173611.992000", "173611.994000", "173611.997000", "173612.000000", "173612.003000", "173612.006000", "173612.008000", "173612.011000", "173612.014000", "173612.016000", "173612.019000", "173651.933000", "173651.936000", "173651.939000", "173651.941000", "173651.944000", "173651.947000", "173651.949000", "173651.952000", "173651.955000", "173651.957000", "173651.960000", "173651.962000", "173651.965000", "173651.968000", "173651.970000", "173651.973000", "173651.975000", "173651.978000", "173651.981000", "173651.983000", "173651.986000", "173651.988000", "173651.991000", "173651.994000", "173651.996000", "173652.000000", "173652.002000", "173652.005000", "173652.008000", "173652.010000", "173652.013000", "173652.015000", "173652.018000", "173652.021000", "173731.934000", "173731.936000", "173731.939000", "173731.942000", "173731.944000", "173731.947000", "173731.950000", "173731.952000", "173731.955000", "173731.958000", "173731.960000", "173731.963000", "173731.965000", "173731.968000", "173731.971000", "173731.973000", "173731.976000", "173731.979000", "173731.981000", "173731.984000", "173731.987000", "173731.990000", "173731.992000", "173731.995000", "173731.998000", "173732.001000", "173732.004000", "173732.006000", "173732.009000", "173732.012000", "173732.014000", "173732.017000", "173732.020000", "173740.960000", "173740.962000", "173740.965000", "173740.968000", "173740.971000", "173740.973000", "173740.976000", "173740.978000"],
      "InstanceCreationTime": ["173031.938000", "173031.941000", "173031.944000", "173031.947000", "173031.949000", "173031.952000", "173031.954000", "173031.957000", "173031.959000", "173031.962000", "173031.965000", "173031.967000", "173031.970000", "173031.972000", "173031.975000", "173031.985000", "173031.988000", "173031.990000", "173031.993000", "173031.996000", "173032.004000", "173032.006000", "173032.009000", "173032.012000", "173032.014000", "173032.017000", "173032.036000", "173032.039000", "173032.042000", "173032.044000", "173032.047000", "173032.050000", "173032.053000", "173032.055000", "173111.933000", "173111.946000", "173111.948000", "173111.951000", "173111.953000", "173111.956000", "173111.959000", "173111.961000", "173111.964000", "173111.966000", "173111.969000", "173111.971000", "173111.974000", "173111.977000", "173111.979000", "173111.982000", "173111.984000", "173111.987000", "173111.990000", "173111.992000", "173111.995000", "173111.997000", "173112.000000", "173112.002000", "173112.005000", "173112.008000", "173112.010000", "173112.016000", "173112.019000", "173112.021000", "173112.024000", "173112.027000", "173112.029000", "173131.933000", "173131.936000", "173131.939000", "173131.942000", "173131.944000", "173131.947000", "173131.949000", "173131.952000", "173131.955000", "173131.957000", "173131.960000", "173131.963000", "173131.965000", "173131.968000", "173131.970000", "173131.973000", "173131.976000", "173211.934000", "173211.936000", "173211.939000", "173211.942000", "173211.945000", "173211.947000", "173211.950000", "173211.952000", "173211.955000", "173211.958000", "173211.960000", "173211.963000", "173211.976000", "173211.978000", "173211.981000", "173211.984000", "173211.986000", "173211.989000", "173211.991000", "173211.994000", "173211.997000", "173212.000000", "173212.003000", "173212.005000", "173212.008000", "173212.010000", "173212.013000", "173212.016000", "173212.018000", "173212.021000", "173212.023000", "173212.026000", "173212.029000", "173251.934000", "173251.937000", "173251.939000", "173251.942000", "173251.944000", "173251.947000", "173251.950000", "173251.952000", "173251.955000", "173251.958000", "173251.960000", "173251.963000", "173251.965000", "173251.968000", "173251.971000", "173251.973000", "173251.976000", "173251.979000", "173251.981000", "173251.984000", "173251.986000", "173251.989000", "173251.992000", "173251.994000", "173251.997000", "173252.000000", "173252.003000", "173252.006000", "173252.008000", "173252.011000", "173252.014000", "173252.016000", "173252.019000", "173252.021000", "173331.933000", "173331.936000", "173331.939000", "173331.942000", "173331.944000", "173331.947000", "173331.949000", "173331.952000", "173331.955000", "173331.957000", "173331.960000", "173331.962000", "173331.965000", "173331.968000", "173331.970000", "173331.973000", "173331.975000", "173331.978000", "173331.981000", "173331.984000", "173331.986000", "173331.989000", "173331.992000", "173331.994000", "173331.997000", "173331.999000", "173332.002000", "173332.005000", "173332.017000", "173332.019000", "173332.022000", "173332.025000", "173332.027000", "173411.934000", "173411.936000", "173411.939000", "173411.942000", "173411.944000", "173411.947000", "173411.949000", "173411.952000", "173411.955000", "173411.957000", "173411.960000", "173411.963000", "173411.965000", "173411.968000", "173411.970000", "173411.973000", "173411.975000", "173411.978000", "173411.981000", "173411.983000", "173411.986000", "173411.989000", "173411.991000", "173411.994000", "173411.996000", "173412.000000", "173412.003000", "173412.005000", "173412.008000", "173412.010000", "173412.013000", "173412.016000", "173412.018000", "173451.933000", "173451.937000", "173451.939000", "173451.942000", "173451.945000", "173451.961000", "173451.964000", "173451.967000", "173451.969000", "173451.972000", "173451.974000", "173451.977000", "173451.980000", "173451.982000", "173451.985000", "173451.987000", "173451.990000", "173451.993000", "173451.995000", "173451.998000", "173452.002000", "173452.004000", "173452.007000", "173452.009000", "173452.012000", "173452.015000", "173452.017000", "173452.020000", "173452.023000", "173452.025000", "173452.028000", "173452.031000", "173452.033000", "173452.036000", "173531.934000", "173531.937000", "173531.939000", "173531.942000", "173531.956000", "173531.959000", "173531.962000", "173531.965000", "173531.967000", "173531.970000", "173531.977000", "173531.980000", "173531.983000", "173531.986000", "173531.988000", "173531.991000", "173531.994000", "173531.996000", "173532.000000", "173532.002000", "173532.005000", "173532.008000", "173532.010000", "173532.013000", "173532.016000", "173532.018000", "173532.021000", "173532.023000", "173532.026000", "173532.029000", "173532.031000", "173532.034000", "173532.036000", "173611.934000", "173611.937000", "173611.939000", "173611.942000", "173611.944000", "173611.947000", "173611.950000", "173611.952000", "173611.955000", "173611.958000", "173611.960000", "173611.963000", "173611.965000", "173611.968000", "173611.971000", "173611.973000", "173611.976000", "173611.979000", "173611.981000", "173611.984000", "173611.986000", "173611.989000", "173611.992000", "173611.994000", "173611.997000", "173612.000000", "173612.003000", "173612.006000", "173612.008000", "173612.011000", "173612.014000", "173612.016000", "173612.019000", "173651.933000", "173651.936000", "173651.939000", "173651.941000", "173651.944000", "173651.947000", "173651.949000", "173651.952000", "173651.955000", "173651.957000", "173651.960000", "173651.962000", "173651.965000", "173651.968000", "173651.970000", "173651.973000", "173651.975000", "173651.978000", "173651.981000", "173651.983000", "173651.986000", "173651.988000", "173651.991000", "173651.994000", "173651.996000", "173652.000000", "173652.002000", "173652.005000", "173652.008000", "173652.010000", "173652.013000", "173652.015000", "173652.018000", "173652.021000", "173731.934000", "173731.936000", "173731.939000", "173731.942000", "173731.944000", "173731.947000", "173731.950000", "173731.952000", "173731.955000", "173731.958000", "173731.960000", "173731.963000", "173731.965000", "173731.968000", "173731.971000", "173731.973000", "173731.976000", "173731.979000", "173731.981000", "173731.984000", "173731.987000", "173731.990000", "173731.992000", "173731.995000", "173731.998000", "173732.001000", "173732.004000", "173732.006000", "173732.009000", "173732.012000", "173732.014000", "173732.017000", "173732.020000", "173740.960000", "173740.962000", "173740.965000", "173740.968000", "173740.971000", "173740.973000", "173740.976000", "173740.978000"],
      "InstanceNumber": [1, 2, 3, 4, 5, 6, 7, 8, 9, 10, 11, 12, 13, 14, 15, 16, 17, 18, 19, 20, 21, 22, 23, 24, 25, 26, 27, 28, 29, 30, 31, 32, 33, 34, 35, 36, 37, 38, 39, 40, 41, 42, 43, 44, 45, 46, 47, 48, 49, 50, 51, 52, 53, 54, 55, 56, 57, 58, 59, 60, 61, 62, 63, 64, 65, 66, 67, 68, 69, 70, 71, 72, 73, 74, 75, 76, 77, 78, 79, 80, 81, 82, 83, 84, 85, 86, 87, 88, 89, 90, 91, 92, 93, 94, 95, 96, 97, 98, 99, 100, 101, 102, 103, 104, 105, 106, 107, 108, 109, 110, 111, 112, 113, 114, 115, 116, 117, 118, 119, 120, 121, 122, 123, 124, 125, 126, 127, 128, 129, 130, 131, 132, 133, 134, 135, 136, 137, 138, 139, 140, 141, 142, 143, 144, 145, 146, 147, 148, 149, 150, 151, 152, 153, 154, 155, 156, 157, 158, 159, 160, 161, 162, 163, 164, 165, 166, 167, 168, 169, 170, 171, 172, 173, 174, 175, 176, 177, 178, 179, 180, 181, 182, 183, 184, 185, 186, 187, 188, 189, 190, 191, 192, 193, 194, 195, 196, 197, 198, 199, 200, 201, 202, 203, 204, 205, 206, 207, 208, 209, 210, 211, 212, 213, 214, 215, 216, 217, 218, 219, 220, 221, 222, 223, 224, 225, 226, 227, 228, 229, 230, 231, 232, 233, 234, 235, 236, 237, 238, 239, 240, 241, 242, 243, 244, 245, 246, 247, 248, 249, 250, 251, 252, 253, 254, 255, 256, 257, 258, 259, 260, 261, 262, 263, 264, 265, 266, 267, 268, 269, 270, 271, 272, 273, 274, 275, 276, 277, 278, 279, 280, 281, 282, 283, 284, 285, 286, 287, 288, 289, 290, 291, 292, 293, 294, 295, 296, 297, 298, 299, 300, 301, 302, 303, 304, 305, 306, 307, 308, 309, 310, 311, 312, 313, 314, 315, 316, 317, 318, 319, 320, 321, 322, 323, 324, 325, 326, 327, 328, 329, 330, 331, 332, 333, 334, 335, 336, 337, 338, 339, 340, 341, 342, 343, 344, 345, 346, 347, 348, 349, 350, 351, 352, 353, 354, 355, 356, 357, 358, 359, 360, 361, 362, 363, 364, 365, 366, 367, 368, 369, 370, 371, 372, 373, 374, 375, 376, 377, 378, 379, 380, 381, 382, 383, 384, 385, 386, 387, 388, 389, 390, 391, 392],
