{
  "AcquisitionMatrixPE": 88,
  "AcquisitionNumber": 1,
  "AcquisitionTime": "16:39:56.652500",
  "BandwidthPerPixelPhaseEncode": 19.592,
  "BaseResolution": 88,
  "BodyPartExamined": "BRAIN",
  "ConsistencyInfo": "N4_VE11C_LATEST_20160120",
  "ConversionSoftware": "dcm2niix",
  "ConversionSoftwareVersion": "v1.0.20190902",
  "DerivedVendorReportedEchoSpacing": 0.000580014,
  "DeviceSerialNumber": "67050",
  "DwellTime": 2.6e-06,
  "EchoTime": 0.033,
  "EchoTrainLength": 88,
  "EffectiveEchoSpacing": 0.000580014,
  "FlipAngle": 62,
  "ImageOrientationPatientDICOM": [0.991393, 0.130702, -0.00758271, -0.130695, 0.984605, -0.116068],
  "ImageType": [
    "ORIGINAL",
    "PRIMARY",
    "M",
    "ND",
    "MOSAIC"
],
  "ImagingFrequency": 123.251,
  "InPlanePhaseEncodingDirectionDICOM": "COL",
  "InstitutionAddress": "Olive_Street_60_Providence_RI_US_02912",
  "InstitutionName": "BROWN_UNIVERSITY_MRF",
  "InstitutionalDepartmentName": "Department",
  "MRAcquisitionType": "2D",
  "MagneticFieldStrength": 3,
  "Manufacturer": "Siemens",
  "ManufacturersModelName": "Prisma_fit",
  "Modality": "MR",
  "MultibandAccelerationFactor": 4,
  "PartialFourier": 1,
  "PatientPosition": "HFS",
  "PercentPhaseFOV": 100,
  "PhaseEncodingDirection": "j-",
  "PhaseEncodingSteps": 88,
  "PhaseResolution": 1,
  "PixelBandwidth": 2185,
  "ProcedureStepDescription": "ASHENHAV_1222",
  "ProtocolName": "func-bold_task-RDMcolor_run-01",
  "PulseSequenceDetails": "%SiemensSeq%_ep2d_bold",
  "ReceiveCoilActiveElements": "HC1-7;NC1",
  "ReceiveCoilName": "HeadNeck_64",
  "ReconMatrixPE": 88,
  "RefLinesPE": 8,
  "RepetitionTime": 1.2,
  "SAR": 0.0560606,
  "ScanOptions": "FS",
  "ScanningSequence": "EP",
  "SequenceName": "_epfid2d1_88",
  "SequenceVariant": "SK",
  "SeriesDescription": "func-bold_task-RDMcolor_run-01",
  "SeriesNumber": 8,
  "ShimSetting": [1733, -9087, 4434, 489, -163, -427, 55, -24],
  "SliceThickness": 2.4,
  "SliceTiming": [0.55, 0, 0.63, 0.08, 0.7075, 0.1575, 0.7875, 0.2375, 0.865, 0.315, 0.945, 0.395, 1.0225, 0.4725, 1.1025, 0.55, 0, 0.63, 0.08, 0.7075, 0.1575, 0.7875, 0.2375, 0.865, 0.315, 0.945, 0.395, 1.0225, 0.4725, 1.1025, 0.55, 0, 0.63, 0.08, 0.7075, 0.1575, 0.7875, 0.2375, 0.865, 0.315, 0.945, 0.395, 1.0225, 0.4725, 1.1025, 0.55, 0, 0.63, 0.08, 0.7075, 0.1575, 0.7875, 0.2375, 0.865, 0.315, 0.945, 0.395, 1.0225, 0.4725, 1.1025],
  "SoftwareVersions": "syngo_MR_E11",
  "SpacingBetweenSlices": 2.4,
  "StationName": "AWP67050",
  "TaskName": "RDMcolor",
  "TotalReadoutTime": 0.0504612,
  "TxRefAmp": 227.908,
  "dcmmeta_affine": [
    [-2.377089262008667, -0.3133717179298401, 0.018490636721253395, 117.16777801513672],
    [-0.31338879466056824, 2.360814094543457, -0.2785446047782898, -75.1617431640625],
    [-0.018181268125772476, 0.27830004692077637, 2.38370943069458, -78.72169494628906],
    [0.0, 0.0, 0.0, 1.0]
],
  "dcmmeta_reorient_transform": [
    [0.0, -1.0, 0.0, 87.0],
    [1.0, 0.0, 0.0, 0.0],
    [0.0, 0.0, 1.0, 0.0],
    [0.0, 0.0, 0.0, 1.0]
],
  "dcmmeta_shape": [88, 88, 60, 392],
  "dcmmeta_slice_dim": 2,
  "dcmmeta_version": 0.6,
  "global": {
    "const": {
      "AcquisitionMatrix": [88, 0, 0, 88],
      "AngioFlag": "N",
      "BitsAllocated": 16,
      "BitsStored": 12,
      "BodyPartExamined": "BRAIN",
      "Columns": 704,
      "DeidentificationMethodCodeSequence": [
        {
          "CodeMeaning": "XNAT DicomEdit 6 Script",
          "CodeValue": "3",
          "CodingSchemeDesignator": "XNAT",
          "CodingSchemeVersion": "1.0"}
],
      "EchoNumbers": 1,
      "EchoTime": 33.0,
      "EchoTrainLength": 88,
      "FlipAngle": 62.0,
      "HighBit": 11,
      "ImageOrientationPatient": [0.99139264502865, 0.13070243268288, -0.0075827088742, -0.1306953140395, 0.98460494251034, -0.1160682647079],
      "ImagePositionPatient": [-725.52941247038, -953.88357363992, 36.806649336632],
      "ImageType": [
        "ORIGINAL",
        "PRIMARY",
        "M",
        "ND",
        "MOSAIC"
],
      "ImagedNucleus": "1H",
      "ImagingFrequency": 123.250755,
      "InPlanePhaseEncodingDirection": "COL",
      "MRAcquisitionType": "2D",
      "MagneticFieldStrength": 3.0,
      "Manufacturer": "SIEMENS",
      "ManufacturerModelName": "Prisma_fit",
      "Modality": "MR",
      "NumberOfAverages": 1.0,
      "NumberOfPhaseEncodingSteps": 88,
      "PercentPhaseFieldOfView": 100.0,
      "PercentSampling": 100.0,
      "PerformedProcedureStepStartTime": "161951.804000",
      "PhotometricInterpretation": "MONOCHROME2",
      "PixelBandwidth": 2185.0,
      "PixelRepresentation": 0,
      "PixelSpacing": [2.3977272510529, 2.3977272510529],
      "ProtocolName": "func-bold_task-RDMcolor_run-01",
      "RepetitionTime": 1200.0,
      "Rows": 704,
      "SAR": 0.05606064267409,
      "SamplesPerPixel": 1,
      "ScanOptions": "FS",
      "ScanningSequence": "EP",
      "SequenceName": "*epfid2d1_88",
      "SequenceVariant": "SK",
      "SeriesDescription": "func-bold_task-RDMcolor_run-01",
      "SeriesNumber": 8,
      "SeriesTime": "164038.710000",
      "SliceLocation": -68.561355991605,
      "SliceThickness": 2.4000000953674,
      "SmallestImagePixelValue": 0,
      "SoftwareVersions": "syngo MR E11",
      "SpacingBetweenSlices": 2.4000000305043,
      "SpecificCharacterSet": "ISO_IR 100",
      "StudyID": "1",
      "StudyTime": "161951.734000",
      "TransmitCoilName": "Body",
      "VariableFlipAngleFlag": "N",
      "WindowCenterWidthExplanation": "Algo1",
      "dBdt": 0.0},
    "slices": {}
  },
  "time": {
    "samples": {
      "AcquisitionNumber": [1, 2, 3, 4, 5, 6, 7, 8, 9, 10, 11, 12, 13, 14, 15, 16, 17, 18, 19, 20, 21, 22, 23, 24, 25, 26, 27, 28, 29, 30, 31, 32, 33, 34, 35, 36, 37, 38, 39, 40, 41, 42, 43, 44, 45, 46, 47, 48, 49, 50, 51, 52, 53, 54, 55, 56, 57, 58, 59, 60, 61, 62, 63, 64, 65, 66, 67, 68, 69, 70, 71, 72, 73, 74, 75, 76, 77, 78, 79, 80, 81, 82, 83, 84, 85, 86, 87, 88, 89, 90, 91, 92, 93, 94, 95, 96, 97, 98, 99, 100, 101, 102, 103, 104, 105, 106, 107, 108, 109, 110, 111, 112, 113, 114, 115, 116, 117, 118, 119, 120, 121, 122, 123, 124, 125, 126, 127, 128, 129, 130, 131, 132, 133, 134, 135, 136, 137, 138, 139, 140, 141, 142, 143, 144, 145, 146, 147, 148, 149, 150, 151, 152, 153, 154, 155, 156, 157, 158, 159, 160, 161, 162, 163, 164, 165, 166, 167, 168, 169, 170, 171, 172, 173, 174, 175, 176, 177, 178, 179, 180, 181, 182, 183, 184, 185, 186, 187, 188, 189, 190, 191, 192, 193, 194, 195, 196, 197, 198, 199, 200, 201, 202, 203, 204, 205, 206, 207, 208, 209, 210, 211, 212, 213, 214, 215, 216, 217, 218, 219, 220, 221, 222, 223, 224, 225, 226, 227, 228, 229, 230, 231, 232, 233, 234, 235, 236, 237, 238, 239, 240, 241, 242, 243, 244, 245, 246, 247, 248, 249, 250, 251, 252, 253, 254, 255, 256, 257, 258, 259, 260, 261, 262, 263, 264, 265, 266, 267, 268, 269, 270, 271, 272, 273, 274, 275, 276, 277, 278, 279, 280, 281, 282, 283, 284, 285, 286, 287, 288, 289, 290, 291, 292, 293, 294, 295, 296, 297, 298, 299, 300, 301, 302, 303, 304, 305, 306, 307, 308, 309, 310, 311, 312, 313, 314, 315, 316, 317, 318, 319, 320, 321, 322, 323, 324, 325, 326, 327, 328, 329, 330, 331, 332, 333, 334, 335, 336, 337, 338, 339, 340, 341, 342, 343, 344, 345, 346, 347, 348, 349, 350, 351, 352, 353, 354, 355, 356, 357, 358, 359, 360, 361, 362, 363, 364, 365, 366, 367, 368, 369, 370, 371, 372, 373, 374, 375, 376, 377, 378, 379, 380, 381, 382, 383, 384, 385, 386, 387, 388, 389, 390, 391, 392],
      "AcquisitionTime": ["163956.652500", "163957.852500", "163959.052500", "164000.252500", "164001.452500", "164002.652500", "164003.852500", "164005.052500", "164006.252500", "164007.452500", "164008.652500", "164009.852500", "164011.052500", "164012.252500", "164013.452500", "164014.652500", "164015.852500", "164017.052500", "164018.252500", "164019.452500", "164020.652500", "164021.852500", "164023.052500", "164024.252500", "164025.452500", "164026.652500", "164027.852500", "164029.052500", "164030.252500", "164031.452500", "164032.652500", "164033.852500", "164035.052500", "164036.252500", "164037.452500", "164038.652500", "164039.852500", "164041.052500", "164042.252500", "164043.452500", "164044.652500", "164045.852500", "164047.052500", "164048.252500", "164049.452500", "164050.652500", "164051.852500", "164053.052500", "164054.252500", "164055.452500", "164056.652500", "164057.852500", "164059.052500", "164100.252500", "164101.452500", "164102.652500", "164103.852500", "164105.052500", "164106.252500", "164107.452500", "164108.652500", "164109.852500", "164111.052500", "164112.252500", "164113.452500", "164114.652500", "164115.852500", "164117.052500", "164118.252500", "164119.452500", "164120.652500", "164121.852500", "164123.052500", "164124.252500", "164125.452500", "164126.652500", "164127.852500", "164129.052500", "164130.252500", "164131.452500", "164132.652500", "164133.852500", "164135.052500", "164136.252500", "164137.452500", "164138.652500", "164139.852500", "164141.052500", "164142.252500", "164143.452500", "164144.652500", "164145.852500", "164147.052500", "164148.252500", "164149.452500", "164150.652500", "164151.852500", "164153.052500", "164154.252500", "164155.452500", "164156.652500", "164157.852500", "164159.052500", "164200.252500", "164201.452500", "164202.652500", "164203.852500", "164205.052500", "164206.252500", "164207.452500", "164208.652500", "164209.852500", "164211.052500", "164212.252500", "164213.452500", "164214.652500", "164215.852500", "164217.052500", "164218.252500", "164219.452500", "164220.652500", "164221.852500", "164223.052500", "164224.252500", "164225.452500", "164226.652500", "164227.852500", "164229.052500", "164230.252500", "164231.452500", "164232.652500", "164233.852500", "164235.052500", "164236.252500", "164237.452500", "164238.652500", "164239.852500", "164241.052500", "164242.252500", "164243.452500", "164244.652500", "164245.852500", "164247.052500", "164248.252500", "164249.452500", "164250.652500", "164251.852500", "164253.052500", "164254.252500", "164255.452500", "164256.652500", "164257.852500", "164259.052500", "164300.252500", "164301.452500", "164302.652500", "164303.852500", "164305.052500", "164306.252500", "164307.452500", "164308.652500", "164309.852500", "164311.052500", "164312.252500", "164313.452500", "164314.652500", "164315.852500", "164317.052500", "164318.252500", "164319.452500", "164320.652500", "164321.852500", "164323.052500", "164324.252500", "164325.452500", "164326.652500", "164327.852500", "164329.052500", "164330.252500", "164331.452500", "164332.652500", "164333.852500", "164335.052500", "164336.252500", "164337.452500", "164338.652500", "164339.852500", "164341.052500", "164342.252500", "164343.452500", "164344.652500", "164345.852500", "164347.052500", "164348.252500", "164349.452500", "164350.652500", "164351.852500", "164353.052500", "164354.252500", "164355.452500", "164356.652500", "164357.852500", "164359.052500", "164400.252500", "164401.452500", "164402.652500", "164403.852500", "164405.052500", "164406.252500", "164407.452500", "164408.652500", "164409.852500", "164411.052500", "164412.252500", "164413.452500", "164414.652500", "164415.852500", "164417.052500", "164418.252500", "164419.452500", "164420.652500", "164421.852500", "164423.052500", "164424.252500", "164425.452500", "164426.652500", "164427.852500", "164429.052500", "164430.252500", "164431.452500", "164432.652500", "164433.852500", "164435.052500", "164436.252500", "164437.452500", "164438.652500", "164439.852500", "164441.052500", "164442.252500", "164443.452500", "164444.652500", "164445.852500", "164447.052500", "164448.252500", "164449.452500", "164450.652500", "164451.852500", "164453.052500", "164454.252500", "164455.452500", "164456.652500", "164457.852500", "164459.052500", "164500.252500", "164501.452500", "164502.652500", "164503.852500", "164505.052500", "164506.252500", "164507.452500", "164508.652500", "164509.852500", "164511.052500", "164512.252500", "164513.452500", "164514.652500", "164515.852500", "164517.052500", "164518.252500", "164519.452500", "164520.652500", "164521.852500", "164523.052500", "164524.252500", "164525.452500", "164526.652500", "164527.852500", "164529.052500", "164530.252500", "164531.452500", "164532.652500", "164533.852500", "164535.052500", "164536.252500", "164537.452500", "164538.652500", "164539.852500", "164541.052500", "164542.252500", "164543.452500", "164544.652500", "164545.852500", "164547.052500", "164548.252500", "164549.452500", "164550.652500", "164551.852500", "164553.052500", "164554.252500", "164555.452500", "164556.652500", "164557.852500", "164559.052500", "164600.252500", "164601.452500", "164602.652500", "164603.852500", "164605.052500", "164606.252500", "164607.452500", "164608.652500", "164609.852500", "164611.052500", "164612.252500", "164613.452500", "164614.652500", "164615.852500", "164617.052500", "164618.252500", "164619.452500", "164620.652500", "164621.852500", "164623.052500", "164624.252500", "164625.452500", "164626.652500", "164627.852500", "164629.052500", "164630.252500", "164631.452500", "164632.652500", "164633.852500", "164635.052500", "164636.252500", "164637.452500", "164638.652500", "164639.852500", "164641.052500", "164642.252500", "164643.452500", "164644.652500", "164645.852500", "164647.052500", "164648.252500", "164649.452500", "164650.652500", "164651.852500", "164653.052500", "164654.252500", "164655.452500", "164656.652500", "164657.852500", "164659.052500", "164700.252500", "164701.452500", "164702.652500", "164703.852500", "164705.052500", "164706.252500", "164707.452500", "164708.652500", "164709.852500", "164711.052500", "164712.252500", "164713.452500", "164714.652500", "164715.852500", "164717.052500", "164718.252500", "164719.452500", "164720.652500", "164721.852500", "164723.052500", "164724.252500", "164725.452500", "164726.652500", "164727.852500", "164729.052500", "164730.252500", "164731.452500", "164732.652500", "164733.852500", "164735.052500", "164736.252500", "164737.452500", "164738.652500", "164739.852500", "164741.052500", "164742.252500", "164743.452500", "164744.652500", "164745.852500"],
      "ContentTime": ["164038.713000", "164038.717000", "164038.726000", "164038.729000", "164038.732000", "164038.734000", "164038.736000", "164038.739000", "164038.742000", "164038.744000", "164038.747000", "164038.749000", "164038.752000", "164038.755000", "164038.757000", "164038.760000", "164038.762000", "164038.765000", "164038.767000", "164038.770000", "164038.773000", "164038.775000", "164038.778000", "164038.780000", "164038.783000", "164038.785000", "164038.788000", "164038.790000", "164038.793000", "164038.795000", "164038.798000", "164038.800000", "164038.803000", "164038.806000", "164038.808000", "164118.705000", "164118.708000", "164118.711000", "164118.713000", "164118.716000", "164118.719000", "164118.721000", "164118.724000", "164118.726000", "164118.729000", "164118.732000", "164118.734000", "164118.737000", "164118.739000", "164118.742000", "164118.744000", "164118.747000", "164118.750000", "164118.752000", "164118.755000", "164118.757000", "164118.760000", "164118.763000", "164118.765000", "164118.768000", "164118.770000", "164118.773000", "164118.775000", "164118.778000", "164118.780000", "164118.783000", "164118.786000", "164118.788000", "164138.706000", "164138.708000", "164138.711000", "164138.714000", "164138.716000", "164138.719000", "164138.721000", "164138.724000", "164138.727000", "164138.729000", "164138.732000", "164138.735000", "164138.738000", "164138.740000", "164138.743000", "164138.745000", "164138.748000", "164218.705000", "164218.708000", "164218.711000", "164218.713000", "164218.716000", "164218.719000", "164218.736000", "164218.739000", "164218.741000", "164218.744000", "164218.746000", "164218.749000", "164218.751000", "164218.754000", "164218.757000", "164218.759000", "164218.762000", "164218.764000", "164218.767000", "164218.769000", "164218.772000", "164218.775000", "164218.777000", "164218.785000", "164218.787000", "164218.790000", "164218.792000", "164218.795000", "164218.797000", "164218.800000", "164218.802000", "164218.805000", "164218.808000", "164258.705000", "164258.709000", "164258.711000", "164258.714000", "164258.716000", "164258.719000", "164258.721000", "164258.724000", "164258.726000", "164258.729000", "164258.732000", "164258.734000", "164258.737000", "164258.739000", "164258.742000", "164258.744000", "164258.747000", "164258.750000", "164258.752000", "164258.755000", "164258.757000", "164258.760000", "164258.763000", "164258.765000", "164258.768000", "164258.770000", "164258.773000", "164258.775000", "164258.778000", "164258.780000", "164258.783000", "164258.785000", "164258.788000", "164338.706000", "164338.708000", "164338.711000", "164338.713000", "164338.716000", "164338.719000", "164338.721000", "164338.724000", "164338.727000", "164338.729000", "164338.732000", "164338.734000", "164338.737000", "164338.740000", "164338.742000", "164338.745000", "164338.747000", "164338.750000", "164338.752000", "164338.755000", "164338.758000", "164338.760000", "164338.763000", "164338.766000", "164338.768000", "164338.771000", "164338.774000", "164338.776000", "164338.779000", "164338.781000", "164338.784000", "164338.786000", "164338.789000", "164338.792000", "164418.705000", "164418.708000", "164418.711000", "164418.713000", "164418.716000", "164418.719000", "164418.721000", "164418.724000", "164418.726000", "164418.729000", "164418.732000", "164418.734000", "164418.737000", "164418.739000", "164418.742000", "164418.745000", "164418.747000", "164418.750000", "164418.752000", "164418.755000", "164418.757000", "164418.760000", "164418.763000", "164418.765000", "164418.768000", "164418.770000", "164418.773000", "164418.776000", "164418.778000", "164418.781000", "164418.783000", "164418.786000", "164418.788000", "164458.705000", "164458.708000", "164458.711000", "164458.713000", "164458.716000", "164458.719000", "164458.721000", "164458.724000", "164458.726000", "164458.729000", "164458.731000", "164458.734000", "164458.736000", "164458.739000", "164458.742000", "164458.744000", "164458.747000", "164458.749000", "164458.752000", "164458.754000", "164458.757000", "164458.760000", "164458.762000", "164458.765000", "164458.768000", "164458.770000", "164458.784000", "164458.787000", "164458.789000", "164458.792000", "164458.795000", "164458.798000", "164458.800000", "164538.706000", "164538.713000", "164538.715000", "164538.718000", "164538.720000", "164538.723000", "164538.726000", "164538.728000", "164538.731000", "164538.733000", "164538.736000", "164538.739000", "164538.741000", "164538.744000", "164538.746000", "164538.749000", "164538.752000", "164538.754000", "164538.757000", "164538.759000", "164538.762000", "164538.764000", "164538.767000", "164538.770000", "164538.772000", "164538.775000", "164538.777000", "164538.780000", "164538.782000", "164538.785000", "164538.788000", "164538.790000", "164538.793000", "164538.795000", "164618.706000", "164618.709000", "164618.711000", "164618.730000", "164618.732000", "164618.735000", "164618.737000", "164618.740000", "164618.743000", "164618.746000", "164618.748000", "164618.751000", "164618.753000", "164618.756000", "164618.758000", "164618.761000", "164618.763000", "164618.766000", "164618.768000", "164618.771000", "164618.773000", "164618.776000", "164618.779000", "164618.781000", "164618.784000", "164618.786000", "164618.789000", "164618.791000", "164618.794000", "164618.797000", "164618.799000", "164618.802000", "164618.804000", "164658.706000", "164658.708000", "164658.711000", "164658.714000", "164658.717000", "164658.719000", "164658.722000", "164658.724000", "164658.727000", "164658.730000", "164658.733000", "164658.735000", "164658.738000", "164658.740000", "164658.743000", "164658.745000", "164658.748000", "164658.751000", "164658.753000", "164658.756000", "164658.758000", "164658.761000", "164658.764000", "164658.766000", "164658.769000", "164658.771000", "164658.774000", "164658.777000", "164658.779000", "164658.782000", "164658.784000", "164658.787000", "164658.789000", "164738.706000", "164738.709000", "164738.711000", "164738.714000", "164738.716000", "164738.719000", "164738.722000", "164738.724000", "164738.727000", "164738.730000", "164738.732000", "164738.735000", "164738.737000", "164738.740000", "164738.743000", "164738.745000", "164738.748000", "164738.751000", "164738.753000", "164738.756000", "164738.758000", "164738.761000", "164738.763000", "164738.766000", "164738.768000", "164738.771000", "164738.774000", "164738.776000", "164738.779000", "164738.782000", "164738.784000", "164738.787000", "164738.789000", "164738.792000", "164747.059000", "164747.063000", "164747.065000", "164747.068000", "164747.071000", "164747.074000", "164747.076000"],
      "InstanceCreationTime": ["164038.713000", "164038.717000", "164038.726000", "164038.729000", "164038.732000", "164038.734000", "164038.736000", "164038.739000", "164038.742000", "164038.744000", "164038.747000", "164038.749000", "164038.752000", "164038.755000", "164038.757000", "164038.760000", "164038.762000", "164038.765000", "164038.767000", "164038.770000", "164038.773000", "164038.775000", "164038.778000", "164038.780000", "164038.783000", "164038.785000", "164038.788000", "164038.790000", "164038.793000", "164038.795000", "164038.798000", "164038.800000", "164038.803000", "164038.806000", "164038.808000", "164118.705000", "164118.708000", "164118.711000", "164118.713000", "164118.716000", "164118.719000", "164118.721000", "164118.724000", "164118.726000", "164118.729000", "164118.732000", "164118.734000", "164118.737000", "164118.739000", "164118.742000", "164118.744000", "164118.747000", "164118.750000", "164118.752000", "164118.755000", "164118.757000", "164118.760000", "164118.763000", "164118.765000", "164118.768000", "164118.770000", "164118.773000", "164118.775000", "164118.778000", "164118.780000", "164118.783000", "164118.786000", "164118.788000", "164138.706000", "164138.708000", "164138.711000", "164138.714000", "164138.716000", "164138.719000", "164138.721000", "164138.724000", "164138.727000", "164138.729000", "164138.732000", "164138.735000", "164138.738000", "164138.740000", "164138.743000", "164138.745000", "164138.748000", "164218.705000", "164218.708000", "164218.711000", "164218.713000", "164218.716000", "164218.719000", "164218.736000", "164218.739000", "164218.741000", "164218.744000", "164218.746000", "164218.749000", "164218.751000", "164218.754000", "164218.757000", "164218.759000", "164218.762000", "164218.764000", "164218.767000", "164218.769000", "164218.772000", "164218.775000", "164218.777000", "164218.785000", "164218.787000", "164218.790000", "164218.792000", "164218.795000", "164218.797000", "164218.800000", "164218.802000", "164218.805000", "164218.808000", "164258.705000", "164258.709000", "164258.711000", "164258.714000", "164258.716000", "164258.719000", "164258.721000", "164258.724000", "164258.726000", "164258.729000", "164258.732000", "164258.734000", "164258.737000", "164258.739000", "164258.742000", "164258.744000", "164258.747000", "164258.750000", "164258.752000", "164258.755000", "164258.757000", "164258.760000", "164258.763000", "164258.765000", "164258.768000", "164258.770000", "164258.773000", "164258.775000", "164258.778000", "164258.780000", "164258.783000", "164258.785000", "164258.788000", "164338.706000", "164338.708000", "164338.711000", "164338.713000", "164338.716000", "164338.719000", "164338.721000", "164338.724000", "164338.727000", "164338.729000", "164338.732000", "164338.734000", "164338.737000", "164338.740000", "164338.742000", "164338.745000", "164338.747000", "164338.750000", "164338.752000", "164338.755000", "164338.758000", "164338.760000", "164338.763000", "164338.766000", "164338.768000", "164338.771000", "164338.774000", "164338.776000", "164338.779000", "164338.781000", "164338.784000", "164338.786000", "164338.789000", "164338.792000", "164418.705000", "164418.708000", "164418.711000", "164418.713000", "164418.716000", "164418.719000", "164418.721000", "164418.724000", "164418.726000", "164418.729000", "164418.732000", "164418.734000", "164418.737000", "164418.739000", "164418.742000", "164418.745000", "164418.747000", "164418.750000", "164418.752000", "164418.755000", "164418.757000", "164418.760000", "164418.763000", "164418.765000", "164418.768000", "164418.770000", "164418.773000", "164418.776000", "164418.778000", "164418.781000", "164418.783000", "164418.786000", "164418.788000", "164458.705000", "164458.708000", "164458.711000", "164458.713000", "164458.716000", "164458.719000", "164458.721000", "164458.724000", "164458.726000", "164458.729000", "164458.731000", "164458.734000", "164458.736000", "164458.739000", "164458.742000", "164458.744000", "164458.747000", "164458.749000", "164458.752000", "164458.754000", "164458.757000", "164458.760000", "164458.762000", "164458.765000", "164458.768000", "164458.770000", "164458.784000", "164458.787000", "164458.789000", "164458.792000", "164458.795000", "164458.798000", "164458.800000", "164538.706000", "164538.713000", "164538.715000", "164538.718000", "164538.720000", "164538.723000", "164538.726000", "164538.728000", "164538.731000", "164538.733000", "164538.736000", "164538.739000", "164538.741000", "164538.744000", "164538.746000", "164538.749000", "164538.752000", "164538.754000", "164538.757000", "164538.759000", "164538.762000", "164538.764000", "164538.767000", "164538.770000", "164538.772000", "164538.775000", "164538.777000", "164538.780000", "164538.782000", "164538.785000", "164538.788000", "164538.790000", "164538.793000", "164538.795000", "164618.706000", "164618.709000", "164618.711000", "164618.730000", "164618.732000", "164618.735000", "164618.737000", "164618.740000", "164618.743000", "164618.746000", "164618.748000", "164618.751000", "164618.753000", "164618.756000", "164618.758000", "164618.761000", "164618.763000", "164618.766000", "164618.768000", "164618.771000", "164618.773000", "164618.776000", "164618.779000", "164618.781000", "164618.784000", "164618.786000", "164618.789000", "164618.791000", "164618.794000", "164618.797000", "164618.799000", "164618.802000", "164618.804000", "164658.706000", "164658.708000", "164658.711000", "164658.714000", "164658.717000", "164658.719000", "164658.722000", "164658.724000", "164658.727000", "164658.730000", "164658.733000", "164658.735000", "164658.738000", "164658.740000", "164658.743000", "164658.745000", "164658.748000", "164658.751000", "164658.753000", "164658.756000", "164658.758000", "164658.761000", "164658.764000", "164658.766000", "164658.769000", "164658.771000", "164658.774000", "164658.777000", "164658.779000", "164658.782000", "164658.784000", "164658.787000", "164658.789000", "164738.706000", "164738.709000", "164738.711000", "164738.714000", "164738.716000", "164738.719000", "164738.722000", "164738.724000", "164738.727000", "164738.730000", "164738.732000", "164738.735000", "164738.737000", "164738.740000", "164738.743000", "164738.745000", "164738.748000", "164738.751000", "164738.753000", "164738.756000", "164738.758000", "164738.761000", "164738.763000", "164738.766000", "164738.768000", "164738.771000", "164738.774000", "164738.776000", "164738.779000", "164738.782000", "164738.784000", "164738.787000", "164738.789000", "164738.792000", "164747.059000", "164747.063000", "164747.065000", "164747.068000", "164747.071000", "164747.074000", "164747.076000"],
      "InstanceNumber": [1, 2, 3, 4, 5, 6, 7, 8, 9, 10, 11, 12, 13, 14, 15, 16, 17, 18, 19, 20, 21, 22, 23, 24, 25, 26, 27, 28, 29, 30, 31, 32, 33, 34, 35, 36, 37, 38, 39, 40, 41, 42, 43, 44, 45, 46, 47, 48, 49, 50, 51, 52, 53, 54, 55, 56, 57, 58, 59, 60, 61, 62, 63, 64, 65, 66, 67, 68, 69, 70, 71, 72, 73, 74, 75, 76, 77, 78, 79, 80, 81, 82, 83, 84, 85, 86, 87, 88, 89, 90, 91, 92, 93, 94, 95, 96, 97, 98, 99, 100, 101, 102, 103, 104, 105, 106, 107, 108, 109, 110, 111, 112, 113, 114, 115, 116, 117, 118, 119, 120, 121, 122, 123, 124, 125, 126, 127, 128, 129, 130, 131, 132, 133, 134, 135, 136, 137, 138, 139, 140, 141, 142, 143, 144, 145, 146, 147, 148, 149, 150, 151, 152, 153, 154, 155, 156, 157, 158, 159, 160, 161, 162, 163, 164, 165, 166, 167, 168, 169, 170, 171, 172, 173, 174, 175, 176, 177, 178, 179, 180, 181, 182, 183, 184, 185, 186, 187, 188, 189, 190, 191, 192, 193, 194, 195, 196, 197, 198, 199, 200, 201, 202, 203, 204, 205, 206, 207, 208, 209, 210, 211, 212, 213, 214, 215, 216, 217, 218, 219, 220, 221, 222, 223, 224, 225, 226, 227, 228, 229, 230, 231, 232, 233, 234, 235, 236, 237, 238, 239, 240, 241, 242, 243, 244, 245, 246, 247, 248, 249, 250, 251, 252, 253, 254, 255, 256, 257, 258, 259, 260, 261, 262, 263, 264, 265, 266, 267, 268, 269, 270, 271, 272, 273, 274, 275, 276, 277, 278, 279, 280, 281, 282, 283, 284, 285, 286, 287, 288, 289, 290, 291, 292, 293, 294, 295, 296, 297, 298, 299, 300, 301, 302, 303, 304, 305, 306, 307, 308, 309, 310, 311, 312, 313, 314, 315, 316, 317, 318, 319, 320, 321, 322, 323, 324, 325, 326, 327, 328, 329, 330, 331, 332, 333, 334, 335, 336, 337, 338, 339, 340, 341, 342, 343, 344, 345, 346, 347, 348, 349, 350, 351, 352, 353, 354, 355, 356, 357, 358, 359, 360, 361, 362, 363, 364, 365, 366, 367, 368, 369, 370, 371, 372, 373, 374, 375, 376, 377, 378, 379, 380, 381, 382, 383, 384, 385, 386, 387, 388, 389, 390, 391, 392],
