{
  "AcquisitionMatrixPE": 88,
  "AcquisitionNumber": 1,
  "AcquisitionTime": "12:31:10.207500",
  "BandwidthPerPixelPhaseEncode": 19.592,
  "BaseResolution": 88,
  "BodyPartExamined": "BRAIN",
  "ConsistencyInfo": "N4_VE11C_LATEST_20160120",
  "ConversionSoftware": "dcm2niix",
  "ConversionSoftwareVersion": "v1.0.20190902",
  "DerivedVendorReportedEchoSpacing": 0.000580014,
  "DeviceSerialNumber": "67050",
  "DwellTime": 2.6e-06,
  "EchoTime": 0.033,
  "EchoTrainLength": 88,
  "EffectiveEchoSpacing": 0.000580014,
  "FlipAngle": 62,
  "ImageOrientationPatientDICOM": [0.999162, 0.0322067, 0.0252737, -0.0277346, 0.986599, -0.16079],
  "ImageType": [
    "ORIGINAL",
    "PRIMARY",
    "M",
    "ND",
    "MOSAIC"
],
  "ImagingFrequency": 123.251,
  "InPlanePhaseEncodingDirectionDICOM": "COL",
  "InstitutionAddress": "Olive_Street_60_Providence_RI_US_02912",
  "InstitutionName": "BROWN_UNIVERSITY_MRF",
  "InstitutionalDepartmentName": "Department",
  "MRAcquisitionType": "2D",
  "MagneticFieldStrength": 3,
  "Manufacturer": "Siemens",
  "ManufacturersModelName": "Prisma_fit",
  "Modality": "MR",
  "MultibandAccelerationFactor": 4,
  "PartialFourier": 1,
  "PatientPosition": "HFS",
  "PercentPhaseFOV": 100,
  "PhaseEncodingDirection": "j-",
  "PhaseEncodingSteps": 88,
  "PhaseResolution": 1,
  "PixelBandwidth": 2185,
  "ProcedureStepDescription": "ASHENHAV_1222",
  "ProtocolName": "func-bold_task-RDMmotion_run-05",
  "PulseSequenceDetails": "%SiemensSeq%_ep2d_bold",
  "ReceiveCoilActiveElements": "HC1-7",
  "ReceiveCoilName": "HeadNeck_64",
  "ReconMatrixPE": 88,
  "RefLinesPE": 8,
  "RepetitionTime": 1.2,
  "SAR": 0.0513239,
  "ScanOptions": "FS",
  "ScanningSequence": "EP",
  "SequenceName": "_epfid2d1_88",
  "SequenceVariant": "SK",
  "SeriesDescription": "func-bold_task-RDMmotion_run-05",
  "SeriesNumber": 15,
  "ShimSetting": [1767, -9057, 4450, 426, -56, -141, -82, 20],
  "SliceThickness": 2.4,
  "SliceTiming": [0.5525, 0, 0.63, 0.08, 0.71, 0.1575, 0.7875, 0.2375, 0.865, 0.315, 0.945, 0.395, 1.0225, 0.4725, 1.1025, 0.5525, 0, 0.63, 0.08, 0.71, 0.1575, 0.7875, 0.2375, 0.865, 0.315, 0.945, 0.395, 1.0225, 0.4725, 1.1025, 0.5525, 0, 0.63, 0.08, 0.71, 0.1575, 0.7875, 0.2375, 0.865, 0.315, 0.945, 0.395, 1.0225, 0.4725, 1.1025, 0.5525, 0, 0.63, 0.08, 0.71, 0.1575, 0.7875, 0.2375, 0.865, 0.315, 0.945, 0.395, 1.0225, 0.4725, 1.1025],
  "SoftwareVersions": "syngo_MR_E11",
  "SpacingBetweenSlices": 2.4,
  "StationName": "AWP67050",
  "TaskName": "RDMmotion",
  "TotalReadoutTime": 0.0504612,
  "TxRefAmp": 218.178,
  "dcmmeta_affine": [
    [-2.395717144012451, -0.06649994850158691, 0.07227249443531036, 112.29190826416016],
    [-0.07722286134958267, 2.3655951023101807, -0.3838900029659271, -84.8451919555664],
    [0.060599494725465775, 0.38553038239479065, 2.3679959774017334, -72.6089859008789],
    [0.0, 0.0, 0.0, 1.0]
],
  "dcmmeta_reorient_transform": [
    [0.0, -1.0, 0.0, 87.0],
    [1.0, 0.0, 0.0, 0.0],
    [0.0, 0.0, 1.0, 0.0],
    [0.0, 0.0, 0.0, 1.0]
],
  "dcmmeta_shape": [88, 88, 60, 125],
  "dcmmeta_slice_dim": 2,
  "dcmmeta_version": 0.6,
  "global": {
    "const": {
      "AcquisitionMatrix": [88, 0, 0, 88],
      "AngioFlag": "N",
      "BitsAllocated": 16,
      "BitsStored": 12,
      "BodyPartExamined": "BRAIN",
      "Columns": 704,
      "DeidentificationMethodCodeSequence": [
        {
          "CodeMeaning": "XNAT DicomEdit 6 Script",
          "CodeValue": "3",
          "CodingSchemeDesignator": "XNAT",
          "CodingSchemeVersion": "1.0"}
],
      "EchoNumbers": 1,
      "EchoTime": 33.0,
      "EchoTrainLength": 88,
      "FlipAngle": 62.0,
      "HighBit": 11,
      "ImageOrientationPatient": [0.99916163255886, 0.03220669045964, 0.02527372374532, -0.0277345769912, 0.98659890153255, -0.1607899273396],
      "ImagePositionPatient": [-823.90528339132, -873.34950338313, 61.010875300192],
      "ImageType": [
        "ORIGINAL",
        "PRIMARY",
        "M",
        "ND",
        "MOSAIC"
],
      "ImagedNucleus": "1H",
      "ImagingFrequency": 123.250522,
      "InPlanePhaseEncodingDirection": "COL",
      "MRAcquisitionType": "2D",
      "MagneticFieldStrength": 3.0,
      "Manufacturer": "SIEMENS",
      "ManufacturerModelName": "Prisma_fit",
      "Modality": "MR",
      "NumberOfAverages": 1.0,
      "NumberOfPhaseEncodingSteps": 88,
      "PercentPhaseFieldOfView": 100.0,
      "PercentSampling": 100.0,
      "PerformedProcedureStepStartTime": "112439.776000",
      "PhotometricInterpretation": "MONOCHROME2",
      "PixelBandwidth": 2185.0,
      "PixelRepresentation": 0,
      "PixelSpacing": [2.3977272510529, 2.3977272510529],
      "ProtocolName": "func-bold_task-RDMmotion_run-05",
      "RepetitionTime": 1200.0,
      "Rows": 704,
      "SAR": 0.05132391624365,
      "SamplesPerPixel": 1,
      "ScanOptions": "FS",
      "ScanningSequence": "EP",
      "SequenceName": "*epfid2d1_88",
      "SequenceVariant": "SK",
      "SeriesDescription": "func-bold_task-RDMmotion_run-05",
      "SeriesNumber": 15,
      "SeriesTime": "123140.288000",
      "SliceLocation": -54.68789509372,
      "SliceThickness": 2.4000000953674,
      "SmallestImagePixelValue": 0,
      "SoftwareVersions": "syngo MR E11",
      "SpacingBetweenSlices": 2.3999999383085,
      "SpecificCharacterSet": "ISO_IR 100",
      "StudyID": "1",
      "StudyTime": "112439.701000",
      "TransmitCoilName": "Body",
      "VariableFlipAngleFlag": "N",
      "WindowCenterWidthExplanation": "Algo1",
      "dBdt": 0.0},
    "slices": {}
  },
  "time": {
    "samples": {
      "AcquisitionNumber": [1, 2, 3, 4, 5, 6, 7, 8, 9, 10, 11, 12, 13, 14, 15, 16, 17, 18, 19, 20, 21, 22, 23, 24, 25, 26, 27, 28, 29, 30, 31, 32, 33, 34, 35, 36, 37, 38, 39, 40, 41, 42, 43, 44, 45, 46, 47, 48, 49, 50, 51, 52, 53, 54, 55, 56, 57, 58, 59, 60, 61, 62, 63, 64, 65, 66, 67, 68, 69, 70, 71, 72, 73, 74, 75, 76, 77, 78, 79, 80, 81, 82, 83, 84, 85, 86, 87, 88, 89, 90, 91, 92, 93, 94, 95, 96, 97, 98, 99, 100, 101, 102, 103, 104, 105, 106, 107, 108, 109, 110, 111, 112, 113, 114, 115, 116, 117, 118, 119, 120, 121, 122, 123, 124, 125],
      "AcquisitionTime": ["123110.207500", "123111.407500", "123112.607500", "123113.807500", "123115.007500", "123116.207500", "123117.407500", "123118.607500", "123119.807500", "123121.007500", "123122.207500", "123123.407500", "123124.607500", "123125.807500", "123127.007500", "123128.207500", "123129.407500", "123130.607500", "123131.807500", "123133.007500", "123134.207500", "123135.407500", "123136.607500", "123137.807500", "123139.007500", "123140.207500", "123141.407500", "123142.607500", "123143.807500", "123145.007500", "123146.207500", "123147.407500", "123148.607500", "123149.807500", "123151.007500", "123152.207500", "123153.407500", "123154.607500", "123155.807500", "123157.007500", "123158.207500", "123159.407500", "123200.607500", "123201.807500", "123203.007500", "123204.207500", "123205.407500", "123206.607500", "123207.807500", "123209.007500", "123210.207500", "123211.407500", "123212.607500", "123213.807500", "123215.007500", "123216.207500", "123217.407500", "123218.607500", "123219.807500", "123221.007500", "123222.207500", "123223.407500", "123224.607500", "123225.807500", "123227.007500", "123228.207500", "123229.407500", "123230.607500", "123231.807500", "123233.007500", "123234.207500", "123235.407500", "123236.607500", "123237.807500", "123239.007500", "123240.207500", "123241.407500", "123242.607500", "123243.807500", "123245.007500", "123246.207500", "123247.407500", "123248.607500", "123249.807500", "123251.007500", "123252.207500", "123253.407500", "123254.607500", "123255.807500", "123257.007500", "123258.207500", "123259.407500", "123300.607500", "123301.807500", "123303.007500", "123304.207500", "123305.407500", "123306.607500", "123307.807500", "123309.007500", "123310.207500", "123311.407500", "123312.607500", "123313.807500", "123315.007500", "123316.207500", "123317.407500", "123318.607500", "123319.807500", "123321.007500", "123322.207500", "123323.407500", "123324.607500", "123325.807500", "123327.007500", "123328.207500", "123329.407500", "123330.607500", "123331.807500", "123333.007500", "123334.207500", "123335.407500", "123336.607500", "123337.807500", "123339.007500"],
      "ContentTime": ["123140.295000", "123140.298000", "123140.307000", "123140.309000", "123140.312000", "123140.314000", "123140.317000", "123140.320000", "123140.322000", "123140.325000", "123140.327000", "123140.330000", "123140.333000", "123140.335000", "123140.338000", "123140.340000", "123140.343000", "123140.346000", "123140.352000", "123140.355000", "123140.357000", "123140.360000", "123140.362000", "123140.365000", "123140.367000", "123220.274000", "123220.277000", "123220.280000", "123220.283000", "123220.285000", "123220.288000", "123220.290000", "123220.293000", "123220.295000", "123220.298000", "123220.301000", "123220.304000", "123220.306000", "123220.309000", "123220.312000", "123220.314000", "123220.317000", "123220.319000", "123220.322000", "123220.325000", "123220.327000", "123220.330000", "123220.332000", "123220.350000", "123220.353000", "123220.355000", "123220.358000", "123220.360000", "123220.363000", "123220.366000", "123220.368000", "123220.371000", "123220.373000", "123300.274000", "123300.277000", "123300.280000", "123300.283000", "123300.285000", "123300.288000", "123300.290000", "123300.293000", "123300.295000", "123300.298000", "123300.301000", "123300.303000", "123300.306000", "123300.308000", "123300.311000", "123300.314000", "123300.316000", "123300.319000", "123300.322000", "123300.324000", "123300.327000", "123300.330000", "123300.332000", "123300.335000", "123300.338000", "123300.359000", "123300.362000", "123300.365000", "123300.367000", "123300.370000", "123300.372000", "123300.375000", "123300.377000", "123340.140000", "123340.143000", "123340.146000", "123340.149000", "123340.151000", "123340.154000", "123340.164000", "123340.166000", "123340.169000", "123340.172000", "123340.174000", "123340.177000", "123340.180000", "123340.182000", "123340.185000", "123340.187000", "123340.190000", "123340.193000", "123340.195000", "123340.198000", "123340.201000", "123340.203000", "123340.206000", "123340.208000", "123340.211000", "123340.214000", "123340.216000", "123340.219000", "123340.222000", "123340.224000", "123340.227000", "123340.229000", "123340.232000", "123340.235000"],
      "InstanceCreationTime": ["123140.295000", "123140.298000", "123140.307000", "123140.309000", "123140.312000", "123140.314000", "123140.317000", "123140.320000", "123140.322000", "123140.325000", "123140.327000", "123140.330000", "123140.333000", "123140.335000", "123140.338000", "123140.340000", "123140.343000", "123140.346000", "123140.352000", "123140.355000", "123140.357000", "123140.360000", "123140.362000", "123140.365000", "123140.367000", "123220.274000", "123220.277000", "123220.280000", "123220.283000", "123220.285000", "123220.288000", "123220.290000", "123220.293000", "123220.295000", "123220.298000", "123220.301000", "123220.304000", "123220.306000", "123220.309000", "123220.312000", "123220.314000", "123220.317000", "123220.319000", "123220.322000", "123220.325000", "123220.327000", "123220.330000", "123220.332000", "123220.350000", "123220.353000", "123220.355000", "123220.358000", "123220.360000", "123220.363000", "123220.366000", "123220.368000", "123220.371000", "123220.373000", "123300.274000", "123300.277000", "123300.280000", "123300.283000", "123300.285000", "123300.288000", "123300.290000", "123300.293000", "123300.295000", "123300.298000", "123300.301000", "123300.303000", "123300.306000", "123300.308000", "123300.311000", "123300.314000", "123300.316000", "123300.319000", "123300.322000", "123300.324000", "123300.327000", "123300.330000", "123300.332000", "123300.335000", "123300.338000", "123300.359000", "123300.362000", "123300.365000", "123300.367000", "123300.370000", "123300.372000", "123300.375000", "123300.377000", "123340.140000", "123340.143000", "123340.146000", "123340.149000", "123340.151000", "123340.154000", "123340.164000", "123340.166000", "123340.169000", "123340.172000", "123340.174000", "123340.177000", "123340.180000", "123340.182000", "123340.185000", "123340.187000", "123340.190000", "123340.193000", "123340.195000", "123340.198000", "123340.201000", "123340.203000", "123340.206000", "123340.208000", "123340.211000", "123340.214000", "123340.216000", "123340.219000", "123340.222000", "123340.224000", "123340.227000", "123340.229000", "123340.232000", "123340.235000"],
      "InstanceNumber": [1, 2, 3, 4, 5, 6, 7, 8, 9, 10, 11, 12, 13, 14, 15, 16, 17, 18, 19, 20, 21, 22, 23, 24, 25, 26, 27, 28, 29, 30, 31, 32, 33, 34, 35, 36, 37, 38, 39, 40, 41, 42, 43, 44, 45, 46, 47, 48, 49, 50, 51, 52, 53, 54, 55, 56, 57, 58, 59, 60, 61, 62, 63, 64, 65, 66, 67, 68, 69, 70, 71, 72, 73, 74, 75, 76, 77, 78, 79, 80, 81, 82, 83, 84, 85, 86, 87, 88, 89, 90, 91, 92, 93, 94, 95, 96, 97, 98, 99, 100, 101, 102, 103, 104, 105, 106, 107, 108, 109, 110, 111, 112, 113, 114, 115, 116, 117, 118, 119, 120, 121, 122, 123, 124, 125],
      "LargestImagePixelValue": [3110, 2976, 2922, 2943, 2876, 2886, 2889, 2811, 2833, 2827, 2887, 2914, 2900, 2874, 2931, 2852, 2927, 2850, 2814, 2820, 2832, 2816, 2875, 2851, 2931, 2912, 2987, 2967, 2959, 2942, 2891, 2885, 2792, 2811, 2818, 2894, 2894, 2906, 2883, 2824, 2814, 2802, 2750, 2796, 2762, 2754, 2798, 2772, 2768, 2750, 2660, 2635, 2644, 2693, 2701, 2656, 2754, 2789, 2814, 2820, 2783, 2792, 2788, 2816, 2778, 2704, 2806, 2809, 2836, 2875, 2874, 2904, 2905, 2951, 2949, 2922, 2878, 2843, 2753, 2754, 2789, 2772, 2825, 2845, 2880, 2862, 2869, 2916, 2923, 2921, 2926, 2949, 2887, 2870, 2878, 2836, 2746, 2741, 2719, 2643, 2700, 2730, 2775, 2760, 2771, 2742, 2730, 2748, 2723, 2645, 2706, 2760, 2788, 2852, 2867, 2860, 2804, 2714, 2677, 2780, 2833, 2888, 2925, 2904, 2895],
      "WindowCenter": [673.0, 670.0, 668.0, 667.0, 666.0, 665.0, 665.0, 664.0, 664.0, 664.0, 665.0, 665.0, 665.0, 664.0, 665.0, 664.0, 664.0, 664.0, 663.0, 663.0, 664.0, 664.0, 664.0, 664.0, 664.0, 665.0, 666.0, 666.0, 665.0, 665.0, 664.0, 663.0, 662.0, 663.0, 664.0, 664.0, 665.0, 664.0, 664.0, 663.0, 663.0, 663.0, 663.0, 663.0, 663.0, 662.0, 663.0, 663.0, 662.0, 661.0, 661.0, 660.0, 660.0, 662.0, 662.0, 661.0, 663.0, 662.0, 663.0, 662.0, 662.0, 662.0, 661.0, 661.0, 661.0, 661.0, 662.0, 663.0, 663.0, 663.0, 664.0, 664.0, 665.0, 666.0, 666.0, 665.0, 664.0, 663.0, 662.0, 662.0, 662.0, 662.0, 662.0, 663.0, 663.0, 664.0, 663.0, 664.0, 664.0, 664.0, 665.0, 664.0, 665.0, 665.0, 664.0, 664.0, 662.0, 661.0, 661.0, 660.0, 661.0, 662.0, 662.0, 662.0, 662.0, 662.0, 663.0, 662.0, 661.0, 660.0, 661.0, 662.0, 664.0, 664.0, 664.0, 663.0, 661.0, 660.0, 660.0, 661.0, 663.0, 665.0, 664.0, 663.0, 662.0],
      "WindowWidth": [1456.0, 1447.0, 1441.0, 1440.0, 1437.0, 1435.0, 1434.0, 1431.0, 1432.0, 1433.0, 1434.0, 1434.0, 1433.0, 1432.0, 1433.0, 1431.0, 1432.0, 1430.0, 1429.0, 1430.0, 1431.0, 1431.0, 1432.0, 1431.0, 1432.0, 1433.0, 1435.0, 1435.0, 1434.0, 1433.0, 1430.0, 1429.0, 1428.0, 1428.0, 1431.0, 1432.0, 1433.0, 1432.0, 1430.0, 1430.0, 1430.0, 1429.0, 1429.0, 1429.0, 1429.0, 1428.0, 1428.0, 1429.0, 1427.0, 1425.0, 1424.0, 1423.0, 1424.0, 1427.0, 1427.0, 1426.0, 1428.0, 1428.0, 1428.0, 1427.0, 1427.0, 1426.0, 1425.0, 1425.0, 1425.0, 1424.0, 1426.0, 1428.0, 1428.0, 1429.0, 1431.0, 1432.0, 1434.0, 1436.0, 1435.0, 1434.0, 1430.0, 1429.0, 1427.0, 1427.0, 1428.0, 1426.0, 1427.0, 1429.0, 1429.0, 1430.0, 1429.0, 1431.0, 1432.0, 1432.0, 1433.0, 1432.0, 1433.0, 1433.0, 1432.0, 1430.0, 1427.0, 1425.0, 1425.0, 1423.0, 1425.0, 1426.0, 1426.0, 1426.0, 1425.0, 1426.0, 1428.0, 1426.0, 1425.0, 1423.0, 1425.0, 1428.0, 1430.0, 1431.0, 1431.0, 1429.0, 1425.0, 1423.0, 1421.0, 1425.0, 1428.0, 1433.0, 1432.0, 1429.0, 1427.0]
    },
    "slices": {}
  }
}