{
  "AcquisitionMatrixPE": 88,
  "AcquisitionNumber": 1,
  "AcquisitionTime": "12:46:22.820000",
  "BandwidthPerPixelPhaseEncode": 19.592,
  "BaseResolution": 88,
  "BodyPartExamined": "BRAIN",
  "ConsistencyInfo": "N4_VE11C_LATEST_20160120",
  "ConversionSoftware": "dcm2niix",
  "ConversionSoftwareVersion": "v1.0.20190902",
  "DerivedVendorReportedEchoSpacing": 0.000580014,
  "DeviceSerialNumber": "67050",
  "DwellTime": 2.6e-06,
  "EchoTime": 0.033,
  "EchoTrainLength": 88,
  "EffectiveEchoSpacing": 0.000580014,
  "FlipAngle": 62,
  "ImageOrientationPatientDICOM": [0.999162, 0.0322067, 0.0252737, -0.0277346, 0.986599, -0.16079],
  "ImageType": [
    "ORIGINAL",
    "PRIMARY",
    "M",
    "ND",
    "MOSAIC"
],
  "ImagingFrequency": 123.251,
  "InPlanePhaseEncodingDirectionDICOM": "COL",
  "InstitutionAddress": "Olive_Street_60_Providence_RI_US_02912",
  "InstitutionName": "BROWN_UNIVERSITY_MRF",
  "InstitutionalDepartmentName": "Department",
  "MRAcquisitionType": "2D",
  "MagneticFieldStrength": 3,
  "Manufacturer": "Siemens",
  "ManufacturersModelName": "Prisma_fit",
  "Modality": "MR",
  "MultibandAccelerationFactor": 4,
  "PartialFourier": 1,
  "PatientPosition": "HFS",
  "PercentPhaseFOV": 100,
  "PhaseEncodingDirection": "j-",
  "PhaseEncodingSteps": 88,
  "PhaseResolution": 1,
  "PixelBandwidth": 2185,
  "ProcedureStepDescription": "ASHENHAV_1222",
  "ProtocolName": "func-bold_task-RDMcolor_run-06",
  "PulseSequenceDetails": "%SiemensSeq%_ep2d_bold",
  "ReceiveCoilActiveElements": "HC1-7",
  "ReceiveCoilName": "HeadNeck_64",
  "ReconMatrixPE": 88,
  "RefLinesPE": 8,
  "RepetitionTime": 1.2,
  "SAR": 0.0518502,
  "ScanOptions": "FS",
  "ScanningSequence": "EP",
  "SequenceName": "_epfid2d1_88",
  "SequenceVariant": "SK",
  "SeriesDescription": "func-bold_task-RDMcolor_run-06",
  "SeriesNumber": 18,
  "ShimSetting": [1767, -9057, 4450, 426, -56, -141, -82, 20],
  "SliceThickness": 2.4,
  "SliceTiming": [0.5525, 0, 0.63, 0.08, 0.7075, 0.1575, 0.7875, 0.2375, 0.865, 0.315, 0.945, 0.395, 1.0225, 0.4725, 1.1025, 0.5525, 0, 0.63, 0.08, 0.7075, 0.1575, 0.7875, 0.2375, 0.865, 0.315, 0.945, 0.395, 1.0225, 0.4725, 1.1025, 0.5525, 0, 0.63, 0.08, 0.7075, 0.1575, 0.7875, 0.2375, 0.865, 0.315, 0.945, 0.395, 1.0225, 0.4725, 1.1025, 0.5525, 0, 0.63, 0.08, 0.7075, 0.1575, 0.7875, 0.2375, 0.865, 0.315, 0.945, 0.395, 1.0225, 0.4725, 1.1025],
  "SoftwareVersions": "syngo_MR_E11",
  "SpacingBetweenSlices": 2.4,
  "StationName": "AWP67050",
  "TaskName": "RDMcolor",
  "TotalReadoutTime": 0.0504612,
  "TxRefAmp": 218.178,
  "dcmmeta_affine": [
    [-2.395717144012451, -0.06649994850158691, 0.07227249443531036, 112.29190826416016],
    [-0.07722286134958267, 2.3655951023101807, -0.3838900029659271, -84.8451919555664],
    [0.060599494725465775, 0.38553038239479065, 2.3679959774017334, -72.6089859008789],
    [0.0, 0.0, 0.0, 1.0]
],
  "dcmmeta_reorient_transform": [
    [0.0, -1.0, 0.0, 87.0],
    [1.0, 0.0, 0.0, 0.0],
    [0.0, 0.0, 1.0, 0.0],
    [0.0, 0.0, 0.0, 1.0]
],
  "dcmmeta_shape": [88, 88, 60, 392],
  "dcmmeta_slice_dim": 2,
  "dcmmeta_version": 0.6,
  "global": {
    "const": {
      "AcquisitionMatrix": [88, 0, 0, 88],
      "AngioFlag": "N",
      "BitsAllocated": 16,
      "BitsStored": 12,
      "BodyPartExamined": "BRAIN",
      "Columns": 704,
      "DeidentificationMethodCodeSequence": [
        {
          "CodeMeaning": "XNAT DicomEdit 6 Script",
          "CodeValue": "3",
          "CodingSchemeDesignator": "XNAT",
          "CodingSchemeVersion": "1.0"}
],
      "EchoNumbers": 1,
      "EchoTime": 33.0,
      "EchoTrainLength": 88,
      "FlipAngle": 62.0,
      "HighBit": 11,
      "ImageOrientationPatient": [0.99916163255886, 0.03220669045964, 0.02527372374532, -0.0277345769912, 0.98659890153255, -0.1607899273396],
      "ImagePositionPatient": [-823.90528339132, -873.34950338313, 61.010875300192],
      "ImageType": [
        "ORIGINAL",
        "PRIMARY",
        "M",
        "ND",
        "MOSAIC"
],
      "ImagedNucleus": "1H",
      "ImagingFrequency": 123.250522,
      "InPlanePhaseEncodingDirection": "COL",
      "MRAcquisitionType": "2D",
      "MagneticFieldStrength": 3.0,
      "Manufacturer": "SIEMENS",
      "ManufacturerModelName": "Prisma_fit",
      "Modality": "MR",
      "NumberOfAverages": 1.0,
      "NumberOfPhaseEncodingSteps": 88,
      "PercentPhaseFieldOfView": 100.0,
      "PercentSampling": 100.0,
      "PerformedProcedureStepStartTime": "112439.776000",
      "PhotometricInterpretation": "MONOCHROME2",
      "PixelBandwidth": 2185.0,
      "PixelRepresentation": 0,
      "PixelSpacing": [2.3977272510529, 2.3977272510529],
      "ProtocolName": "func-bold_task-RDMcolor_run-06",
      "RepetitionTime": 1200.0,
      "Rows": 704,
      "SAR": 0.05185021594023,
      "SamplesPerPixel": 1,
      "ScanOptions": "FS",
      "ScanningSequence": "EP",
      "SequenceName": "*epfid2d1_88",
      "SequenceVariant": "SK",
      "SeriesDescription": "func-bold_task-RDMcolor_run-06",
      "SeriesNumber": 18,
      "SeriesTime": "124700.276000",
      "SliceLocation": -54.68789509372,
      "SliceThickness": 2.4000000953674,
      "SmallestImagePixelValue": 0,
      "SoftwareVersions": "syngo MR E11",
      "SpacingBetweenSlices": 2.3999999383085,
      "SpecificCharacterSet": "ISO_IR 100",
      "StudyID": "1",
      "StudyTime": "112439.701000",
      "TransmitCoilName": "Body",
      "VariableFlipAngleFlag": "N",
      "WindowCenterWidthExplanation": "Algo1",
      "dBdt": 0.0},
    "slices": {}
  },
  "time": {
    "samples": {
      "AcquisitionNumber": [1, 2, 3, 4, 5, 6, 7, 8, 9, 10, 11, 12, 13, 14, 15, 16, 17, 18, 19, 20, 21, 22, 23, 24, 25, 26, 27, 28, 29, 30, 31, 32, 33, 34, 35, 36, 37, 38, 39, 40, 41, 42, 43, 44, 45, 46, 47, 48, 49, 50, 51, 52, 53, 54, 55, 56, 57, 58, 59, 60, 61, 62, 63, 64, 65, 66, 67, 68, 69, 70, 71, 72, 73, 74, 75, 76, 77, 78, 79, 80, 81, 82, 83, 84, 85, 86, 87, 88, 89, 90, 91, 92, 93, 94, 95, 96, 97, 98, 99, 100, 101, 102, 103, 104, 105, 106, 107, 108, 109, 110, 111, 112, 113, 114, 115, 116, 117, 118, 119, 120, 121, 122, 123, 124, 125, 126, 127, 128, 129, 130, 131, 132, 133, 134, 135, 136, 137, 138, 139, 140, 141, 142, 143, 144, 145, 146, 147, 148, 149, 150, 151, 152, 153, 154, 155, 156, 157, 158, 159, 160, 161, 162, 163, 164, 165, 166, 167, 168, 169, 170, 171, 172, 173, 174, 175, 176, 177, 178, 179, 180, 181, 182, 183, 184, 185, 186, 187, 188, 189, 190, 191, 192, 193, 194, 195, 196, 197, 198, 199, 200, 201, 202, 203, 204, 205, 206, 207, 208, 209, 210, 211, 212, 213, 214, 215, 216, 217, 218, 219, 220, 221, 222, 223, 224, 225, 226, 227, 228, 229, 230, 231, 232, 233, 234, 235, 236, 237, 238, 239, 240, 241, 242, 243, 244, 245, 246, 247, 248, 249, 250, 251, 252, 253, 254, 255, 256, 257, 258, 259, 260, 261, 262, 263, 264, 265, 266, 267, 268, 269, 270, 271, 272, 273, 274, 275, 276, 277, 278, 279, 280, 281, 282, 283, 284, 285, 286, 287, 288, 289, 290, 291, 292, 293, 294, 295, 296, 297, 298, 299, 300, 301, 302, 303, 304, 305, 306, 307, 308, 309, 310, 311, 312, 313, 314, 315, 316, 317, 318, 319, 320, 321, 322, 323, 324, 325, 326, 327, 328, 329, 330, 331, 332, 333, 334, 335, 336, 337, 338, 339, 340, 341, 342, 343, 344, 345, 346, 347, 348, 349, 350, 351, 352, 353, 354, 355, 356, 357, 358, 359, 360, 361, 362, 363, 364, 365, 366, 367, 368, 369, 370, 371, 372, 373, 374, 375, 376, 377, 378, 379, 380, 381, 382, 383, 384, 385, 386, 387, 388, 389, 390, 391, 392],
      "AcquisitionTime": ["124622.820000", "124624.020000", "124625.220000", "124626.420000", "124627.620000", "124628.820000", "124630.020000", "124631.220000", "124632.420000", "124633.620000", "124634.820000", "124636.020000", "124637.220000", "124638.420000", "124639.620000", "124640.820000", "124642.020000", "124643.220000", "124644.420000", "124645.620000", "124646.820000", "124648.020000", "124649.220000", "124650.420000", "124651.620000", "124652.820000", "124654.020000", "124655.220000", "124656.420000", "124657.620000", "124658.820000", "124700.020000", "124701.220000", "124702.420000", "124703.620000", "124704.820000", "124706.020000", "124707.220000", "124708.420000", "124709.620000", "124710.820000", "124712.020000", "124713.220000", "124714.420000", "124715.620000", "124716.820000", "124718.020000", "124719.220000", "124720.420000", "124721.620000", "124722.820000", "124724.020000", "124725.220000", "124726.420000", "124727.620000", "124728.820000", "124730.020000", "124731.220000", "124732.420000", "124733.620000", "124734.820000", "124736.020000", "124737.220000", "124738.420000", "124739.620000", "124740.820000", "124742.020000", "124743.220000", "124744.420000", "124745.620000", "124746.820000", "124748.020000", "124749.220000", "124750.420000", "124751.620000", "124752.820000", "124754.020000", "124755.220000", "124756.420000", "124757.620000", "124758.820000", "124800.020000", "124801.220000", "124802.420000", "124803.620000", "124804.820000", "124806.020000", "124807.220000", "124808.420000", "124809.620000", "124810.820000", "124812.020000", "124813.220000", "124814.420000", "124815.620000", "124816.820000", "124818.020000", "124819.220000", "124820.420000", "124821.620000", "124822.820000", "124824.020000", "124825.220000", "124826.420000", "124827.620000", "124828.820000", "124830.020000", "124831.220000", "124832.420000", "124833.620000", "124834.820000", "124836.020000", "124837.220000", "124838.420000", "124839.620000", "124840.820000", "124842.020000", "124843.220000", "124844.420000", "124845.620000", "124846.820000", "124848.020000", "124849.220000", "124850.420000", "124851.620000", "124852.820000", "124854.020000", "124855.220000", "124856.420000", "124857.620000", "124858.820000", "124900.020000", "124901.220000", "124902.420000", "124903.620000", "124904.820000", "124906.020000", "124907.220000", "124908.420000", "124909.620000", "124910.820000", "124912.020000", "124913.220000", "124914.420000", "124915.620000", "124916.820000", "124918.020000", "124919.220000", "124920.420000", "124921.620000", "124922.820000", "124924.020000", "124925.220000", "124926.420000", "124927.620000", "124928.820000", "124930.020000", "124931.220000", "124932.420000", "124933.620000", "124934.820000", "124936.020000", "124937.220000", "124938.420000", "124939.620000", "124940.820000", "124942.020000", "124943.220000", "124944.420000", "124945.620000", "124946.820000", "124948.020000", "124949.220000", "124950.420000", "124951.620000", "124952.820000", "124954.020000", "124955.220000", "124956.420000", "124957.620000", "124958.820000", "125000.020000", "125001.220000", "125002.420000", "125003.620000", "125004.820000", "125006.020000", "125007.220000", "125008.420000", "125009.620000", "125010.820000", "125012.020000", "125013.220000", "125014.420000", "125015.620000", "125016.820000", "125018.020000", "125019.220000", "125020.420000", "125021.620000", "125022.820000", "125024.020000", "125025.220000", "125026.420000", "125027.620000", "125028.820000", "125030.020000", "125031.220000", "125032.420000", "125033.620000", "125034.820000", "125036.020000", "125037.220000", "125038.420000", "125039.620000", "125040.820000", "125042.020000", "125043.220000", "125044.420000", "125045.620000", "125046.820000", "125048.020000", "125049.220000", "125050.420000", "125051.620000", "125052.820000", "125054.020000", "125055.220000", "125056.420000", "125057.620000", "125058.820000", "125100.020000", "125101.220000", "125102.420000", "125103.620000", "125104.820000", "125106.020000", "125107.220000", "125108.420000", "125109.620000", "125110.820000", "125112.020000", "125113.220000", "125114.420000", "125115.620000", "125116.820000", "125118.020000", "125119.220000", "125120.420000", "125121.620000", "125122.820000", "125124.020000", "125125.220000", "125126.420000", "125127.620000", "125128.820000", "125130.020000", "125131.220000", "125132.420000", "125133.620000", "125134.820000", "125136.020000", "125137.220000", "125138.420000", "125139.620000", "125140.820000", "125142.020000", "125143.220000", "125144.420000", "125145.620000", "125146.820000", "125148.020000", "125149.220000", "125150.420000", "125151.620000", "125152.820000", "125154.020000", "125155.220000", "125156.420000", "125157.620000", "125158.820000", "125200.020000", "125201.220000", "125202.420000", "125203.620000", "125204.820000", "125206.020000", "125207.220000", "125208.420000", "125209.620000", "125210.820000", "125212.020000", "125213.220000", "125214.420000", "125215.620000", "125216.820000", "125218.020000", "125219.220000", "125220.420000", "125221.620000", "125222.820000", "125224.020000", "125225.220000", "125226.420000", "125227.620000", "125228.820000", "125230.020000", "125231.220000", "125232.420000", "125233.620000", "125234.820000", "125236.020000", "125237.220000", "125238.420000", "125239.620000", "125240.820000", "125242.020000", "125243.220000", "125244.420000", "125245.620000", "125246.820000", "125248.020000", "125249.220000", "125250.420000", "125251.620000", "125252.820000", "125254.020000", "125255.220000", "125256.420000", "125257.620000", "125258.820000", "125300.020000", "125301.220000", "125302.420000", "125303.620000", "125304.820000", "125306.020000", "125307.220000", "125308.420000", "125309.620000", "125310.820000", "125312.020000", "125313.220000", "125314.420000", "125315.620000", "125316.820000", "125318.020000", "125319.220000", "125320.420000", "125321.620000", "125322.820000", "125324.020000", "125325.220000", "125326.420000", "125327.620000", "125328.820000", "125330.020000", "125331.220000", "125332.420000", "125333.620000", "125334.820000", "125336.020000", "125337.220000", "125338.420000", "125339.620000", "125340.820000", "125342.020000", "125343.220000", "125344.420000", "125345.620000", "125346.820000", "125348.020000", "125349.220000", "125350.420000", "125351.620000", "125352.820000", "125354.020000", "125355.220000", "125356.420000", "125357.620000", "125358.820000", "125400.020000", "125401.220000", "125402.420000", "125403.620000", "125404.820000", "125406.020000", "125407.220000", "125408.420000", "125409.620000", "125410.820000", "125412.020000"],
      "ContentTime": ["124700.279000", "124700.283000", "124700.286000", "124700.289000", "124700.291000", "124700.295000", "124700.298000", "124700.300000", "124700.303000", "124700.306000", "124700.308000", "124700.311000", "124700.313000", "124700.316000", "124700.319000", "124700.321000", "124700.324000", "124700.326000", "124700.329000", "124700.331000", "124700.334000", "124700.337000", "124700.339000", "124700.342000", "124700.344000", "124700.347000", "124700.350000", "124700.352000", "124700.355000", "124700.358000", "124720.276000", "124720.279000", "124720.286000", "124720.289000", "124720.292000", "124720.294000", "124720.297000", "124720.299000", "124720.302000", "124720.305000", "124720.307000", "124720.310000", "124720.312000", "124720.315000", "124720.317000", "124720.320000", "124720.323000", "124800.274000", "124800.277000", "124800.280000", "124800.283000", "124800.286000", "124800.289000", "124800.291000", "124800.294000", "124800.296000", "124800.299000", "124800.302000", "124800.304000", "124800.307000", "124800.309000", "124800.312000", "124800.315000", "124800.317000", "124800.320000", "124800.322000", "124800.325000", "124800.328000", "124800.330000", "124800.333000", "124800.335000", "124800.338000", "124800.340000", "124800.343000", "124800.346000", "124800.348000", "124800.351000", "124800.353000", "124800.356000", "124800.359000", "124840.275000", "124840.277000", "124840.280000", "124840.283000", "124840.285000", "124840.288000", "124840.291000", "124840.293000", "124840.296000", "124840.299000", "124840.301000", "124840.319000", "124840.322000", "124840.324000", "124840.327000", "124840.329000", "124840.332000", "124840.334000", "124840.337000", "124840.340000", "124840.342000", "124840.345000", "124840.347000", "124840.350000", "124840.353000", "124840.355000", "124840.358000", "124840.360000", "124840.363000", "124840.366000", "124840.368000", "124840.371000", "124840.373000", "124840.376000", "124920.275000", "124920.277000", "124920.280000", "124920.283000", "124920.285000", "124920.288000", "124920.290000", "124920.293000", "124920.296000", "124920.298000", "124920.301000", "124920.304000", "124920.306000", "124920.309000", "124920.311000", "124920.314000", "124920.317000", "124920.319000", "124920.322000", "124920.324000", "124920.327000", "124920.330000", "124920.332000", "124920.335000", "124920.339000", "124920.341000", "124920.344000", "124920.346000", "124920.358000", "124920.361000", "124920.363000", "124920.366000", "124920.369000", "125000.276000", "125000.279000", "125000.282000", "125000.284000", "125000.287000", "125000.290000", "125000.292000", "125000.295000", "125000.298000", "125000.300000", "125000.303000", "125000.305000", "125000.308000", "125000.311000", "125000.313000", "125000.316000", "125000.319000", "125000.321000", "125000.324000", "125000.326000", "125000.329000", "125000.332000", "125000.334000", "125000.337000", "125000.339000", "125000.342000", "125000.345000", "125000.348000", "125000.350000", "125000.353000", "125000.356000", "125000.359000", "125000.361000", "125040.275000", "125040.277000", "125040.280000", "125040.283000", "125040.286000", "125040.288000", "125040.291000", "125040.293000", "125040.296000", "125040.299000", "125040.301000", "125040.304000", "125040.306000", "125040.309000", "125040.312000", "125040.314000", "125040.317000", "125040.320000", "125040.322000", "125040.325000", "125040.327000", "125040.330000", "125040.333000", "125040.335000", "125040.338000", "125040.341000", "125040.343000", "125040.346000", "125040.348000", "125040.351000", "125040.354000", "125040.356000", "125040.359000", "125040.361000", "125120.275000", "125120.277000", "125120.280000", "125120.283000", "125120.285000", "125120.288000", "125120.291000", "125120.293000", "125120.296000", "125120.298000", "125120.301000", "125120.304000", "125120.306000", "125120.309000", "125120.312000", "125120.314000", "125120.317000", "125120.319000", "125120.322000", "125120.325000", "125120.327000", "125120.330000", "125120.333000", "125120.337000", "125120.339000", "125120.342000", "125120.345000", "125120.347000", "125120.350000", "125120.352000", "125120.355000", "125120.358000", "125120.360000", "125200.275000", "125200.278000", "125200.281000", "125200.284000", "125200.286000", "125200.289000", "125200.291000", "125200.294000", "125200.297000", "125200.299000", "125200.302000", "125200.305000", "125200.307000", "125200.310000", "125200.312000", "125200.315000", "125200.318000", "125200.320000", "125200.323000", "125200.326000", "125200.328000", "125200.331000", "125200.334000", "125200.337000", "125200.339000", "125200.342000", "125200.344000", "125200.347000", "125200.349000", "125200.352000", "125200.355000", "125200.357000", "125200.360000", "125240.275000", "125240.278000", "125240.280000", "125240.283000", "125240.286000", "125240.288000", "125240.291000", "125240.293000", "125240.314000", "125240.316000", "125240.319000", "125240.322000", "125240.324000", "125240.327000", "125240.330000", "125240.332000", "125240.335000", "125240.337000", "125240.340000", "125240.343000", "125240.345000", "125240.348000", "125240.350000", "125240.353000", "125240.356000", "125240.358000", "125240.361000", "125240.363000", "125240.366000", "125240.369000", "125240.371000", "125240.374000", "125240.376000", "125240.379000", "125320.275000", "125320.278000", "125320.280000", "125320.283000", "125320.285000", "125320.288000", "125320.291000", "125320.293000", "125320.296000", "125320.299000", "125320.301000", "125320.304000", "125320.307000", "125320.309000", "125320.312000", "125320.315000", "125320.317000", "125320.320000", "125320.322000", "125320.325000", "125320.328000", "125320.330000", "125320.333000", "125320.337000", "125320.339000", "125320.342000", "125320.345000", "125320.347000", "125320.350000", "125320.353000", "125320.355000", "125320.358000", "125320.360000", "125400.274000", "125400.277000", "125400.280000", "125400.283000", "125400.285000", "125400.288000", "125400.291000", "125400.293000", "125400.296000", "125400.299000", "125400.302000", "125400.305000", "125400.307000", "125400.310000", "125400.313000", "125400.315000", "125400.318000", "125400.321000", "125400.323000", "125400.326000", "125400.329000", "125400.331000", "125400.334000", "125400.336000", "125400.339000", "125400.342000", "125400.344000", "125400.347000", "125400.350000", "125400.352000", "125400.355000", "125400.357000", "125400.360000", "125413.580000", "125413.583000", "125413.586000", "125413.589000", "125413.592000", "125413.595000", "125413.597000", "125413.600000", "125413.603000", "125413.605000", "125413.608000", "125413.611000"],
      "InstanceCreationTime": ["124700.279000", "124700.283000", "124700.286000", "124700.289000", "124700.291000", "124700.295000", "124700.298000", "124700.300000", "124700.303000", "124700.306000", "124700.308000", "124700.311000", "124700.313000", "124700.316000", "124700.319000", "124700.321000", "124700.324000", "124700.326000", "124700.329000", "124700.331000", "124700.334000", "124700.337000", "124700.339000", "124700.342000", "124700.344000", "124700.347000", "124700.350000", "124700.352000", "124700.355000", "124700.358000", "124720.276000", "124720.279000", "124720.286000", "124720.289000", "124720.292000", "124720.294000", "124720.297000", "124720.299000", "124720.302000", "124720.305000", "124720.307000", "124720.310000", "124720.312000", "124720.315000", "124720.317000", "124720.320000", "124720.323000", "124800.274000", "124800.277000", "124800.280000", "124800.283000", "124800.286000", "124800.289000", "124800.291000", "124800.294000", "124800.296000", "124800.299000", "124800.302000", "124800.304000", "124800.307000", "124800.309000", "124800.312000", "124800.315000", "124800.317000", "124800.320000", "124800.322000", "124800.325000", "124800.328000", "124800.330000", "124800.333000", "124800.335000", "124800.338000", "124800.340000", "124800.343000", "124800.346000", "124800.348000", "124800.351000", "124800.353000", "124800.356000", "124800.359000", "124840.275000", "124840.277000", "124840.280000", "124840.283000", "124840.285000", "124840.288000", "124840.291000", "124840.293000", "124840.296000", "124840.299000", "124840.301000", "124840.319000", "124840.322000", "124840.324000", "124840.327000", "124840.329000", "124840.332000", "124840.334000", "124840.337000", "124840.340000", "124840.342000", "124840.345000", "124840.347000", "124840.350000", "124840.353000", "124840.355000", "124840.358000", "124840.360000", "124840.363000", "124840.366000", "124840.368000", "124840.371000", "124840.373000", "124840.376000", "124920.275000", "124920.277000", "124920.280000", "124920.283000", "124920.285000", "124920.288000", "124920.290000", "124920.293000", "124920.296000", "124920.298000", "124920.301000", "124920.304000", "124920.306000", "124920.309000", "124920.311000", "124920.314000", "124920.317000", "124920.319000", "124920.322000", "124920.324000", "124920.327000", "124920.330000", "124920.332000", "124920.335000", "124920.339000", "124920.341000", "124920.344000", "124920.346000", "124920.358000", "124920.361000", "124920.363000", "124920.366000", "124920.369000", "125000.276000", "125000.279000", "125000.282000", "125000.284000", "125000.287000", "125000.290000", "125000.292000", "125000.295000", "125000.298000", "125000.300000", "125000.303000", "125000.305000", "125000.308000", "125000.311000", "125000.313000", "125000.316000", "125000.319000", "125000.321000", "125000.324000", "125000.326000", "125000.329000", "125000.332000", "125000.334000", "125000.337000", "125000.339000", "125000.342000", "125000.345000", "125000.348000", "125000.350000", "125000.353000", "125000.356000", "125000.359000", "125000.361000", "125040.275000", "125040.277000", "125040.280000", "125040.283000", "125040.286000", "125040.288000", "125040.291000", "125040.293000", "125040.296000", "125040.299000", "125040.301000", "125040.304000", "125040.306000", "125040.309000", "125040.312000", "125040.314000", "125040.317000", "125040.320000", "125040.322000", "125040.325000", "125040.327000", "125040.330000", "125040.333000", "125040.335000", "125040.338000", "125040.341000", "125040.343000", "125040.346000", "125040.348000", "125040.351000", "125040.354000", "125040.356000", "125040.359000", "125040.361000", "125120.275000", "125120.277000", "125120.280000", "125120.283000", "125120.285000", "125120.288000", "125120.291000", "125120.293000", "125120.296000", "125120.298000", "125120.301000", "125120.304000", "125120.306000", "125120.309000", "125120.312000", "125120.314000", "125120.317000", "125120.319000", "125120.322000", "125120.325000", "125120.327000", "125120.330000", "125120.333000", "125120.337000", "125120.339000", "125120.342000", "125120.345000", "125120.347000", "125120.350000", "125120.352000", "125120.355000", "125120.358000", "125120.360000", "125200.275000", "125200.278000", "125200.281000", "125200.284000", "125200.286000", "125200.289000", "125200.291000", "125200.294000", "125200.297000", "125200.299000", "125200.302000", "125200.305000", "125200.307000", "125200.310000", "125200.312000", "125200.315000", "125200.318000", "125200.320000", "125200.323000", "125200.326000", "125200.328000", "125200.331000", "125200.334000", "125200.337000", "125200.339000", "125200.342000", "125200.344000", "125200.347000", "125200.349000", "125200.352000", "125200.355000", "125200.357000", "125200.360000", "125240.275000", "125240.278000", "125240.280000", "125240.283000", "125240.286000", "125240.288000", "125240.291000", "125240.293000", "125240.314000", "125240.316000", "125240.319000", "125240.322000", "125240.324000", "125240.327000", "125240.330000", "125240.332000", "125240.335000", "125240.337000", "125240.340000", "125240.343000", "125240.345000", "125240.348000", "125240.350000", "125240.353000", "125240.356000", "125240.358000", "125240.361000", "125240.363000", "125240.366000", "125240.369000", "125240.371000", "125240.374000", "125240.376000", "125240.379000", "125320.275000", "125320.278000", "125320.280000", "125320.283000", "125320.285000", "125320.288000", "125320.291000", "125320.293000", "125320.296000", "125320.299000", "125320.301000", "125320.304000", "125320.307000", "125320.309000", "125320.312000", "125320.315000", "125320.317000", "125320.320000", "125320.322000", "125320.325000", "125320.328000", "125320.330000", "125320.333000", "125320.337000", "125320.339000", "125320.342000", "125320.345000", "125320.347000", "125320.350000", "125320.353000", "125320.355000", "125320.358000", "125320.360000", "125400.274000", "125400.277000", "125400.280000", "125400.283000", "125400.285000", "125400.288000", "125400.291000", "125400.293000", "125400.296000", "125400.299000", "125400.302000", "125400.305000", "125400.307000", "125400.310000", "125400.313000", "125400.315000", "125400.318000", "125400.321000", "125400.323000", "125400.326000", "125400.329000", "125400.331000", "125400.334000", "125400.336000", "125400.339000", "125400.342000", "125400.344000", "125400.347000", "125400.350000", "125400.352000", "125400.355000", "125400.357000", "125400.360000", "125413.580000", "125413.583000", "125413.586000", "125413.589000", "125413.592000", "125413.595000", "125413.597000", "125413.600000", "125413.603000", "125413.605000", "125413.608000", "125413.611000"],
      "InstanceNumber": [1, 2, 3, 4, 5, 6, 7, 8, 9, 10, 11, 12, 13, 14, 15, 16, 17, 18, 19, 20, 21, 22, 23, 24, 25, 26, 27, 28, 29, 30, 31, 32, 33, 34, 35, 36, 37, 38, 39, 40, 41, 42, 43, 44, 45, 46, 47, 48, 49, 50, 51, 52, 53, 54, 55, 56, 57, 58, 59, 60, 61, 62, 63, 64, 65, 66, 67, 68, 69, 70, 71, 72, 73, 74, 75, 76, 77, 78, 79, 80, 81, 82, 83, 84, 85, 86, 87, 88, 89, 90, 91, 92, 93, 94, 95, 96, 97, 98, 99, 100, 101, 102, 103, 104, 105, 106, 107, 108, 109, 110, 111, 112, 113, 114, 115, 116, 117, 118, 119, 120, 121, 122, 123, 124, 125, 126, 127, 128, 129, 130, 131, 132, 133, 134, 135, 136, 137, 138, 139, 140, 141, 142, 143, 144, 145, 146, 147, 148, 149, 150, 151, 152, 153, 154, 155, 156, 157, 158, 159, 160, 161, 162, 163, 164, 165, 166, 167, 168, 169, 170, 171, 172, 173, 174, 175, 176, 177, 178, 179, 180, 181, 182, 183, 184, 185, 186, 187, 188, 189, 190, 191, 192, 193, 194, 195, 196, 197, 198, 199, 200, 201, 202, 203, 204, 205, 206, 207, 208, 209, 210, 211, 212, 213, 214, 215, 216, 217, 218, 219, 220, 221, 222, 223, 224, 225, 226, 227, 228, 229, 230, 231, 232, 233, 234, 235, 236, 237, 238, 239, 240, 241, 242, 243, 244, 245, 246, 247, 248, 249, 250, 251, 252, 253, 254, 255, 256, 257, 258, 259, 260, 261, 262, 263, 264, 265, 266, 267, 268, 269, 270, 271, 272, 273, 274, 275, 276, 277, 278, 279, 280, 281, 282, 283, 284, 285, 286, 287, 288, 289, 290, 291, 292, 293, 294, 295, 296, 297, 298, 299, 300, 301, 302, 303, 304, 305, 306, 307, 308, 309, 310, 311, 312, 313, 314, 315, 316, 317, 318, 319, 320, 321, 322, 323, 324, 325, 326, 327, 328, 329, 330, 331, 332, 333, 334, 335, 336, 337, 338, 339, 340, 341, 342, 343, 344, 345, 346, 347, 348, 349, 350, 351, 352, 353, 354, 355, 356, 357, 358, 359, 360, 361, 362, 363, 364, 365, 366, 367, 368, 369, 370, 371, 372, 373, 374, 375, 376, 377, 378, 379, 380, 381, 382, 383, 384, 385, 386, 387, 388, 389, 390, 391, 392],
