{
  "AcquisitionMatrixPE": 88,
  "AcquisitionNumber": 1,
  "AcquisitionTime": "13:00:37.237500",
  "BandwidthPerPixelPhaseEncode": 19.592,
  "BaseResolution": 88,
  "BodyPartExamined": "BRAIN",
  "ConsistencyInfo": "N4_VE11C_LATEST_20160120",
  "ConversionSoftware": "dcm2niix",
  "ConversionSoftwareVersion": "v1.0.20190902",
  "DerivedVendorReportedEchoSpacing": 0.000580014,
  "DeviceSerialNumber": "67050",
  "DwellTime": 2.6e-06,
  "EchoTime": 0.033,
  "EchoTrainLength": 88,
  "EffectiveEchoSpacing": 0.000580014,
  "FlipAngle": 62,
  "ImageOrientationPatientDICOM": [0.999162, 0.0322067, 0.0252737, -0.0277346, 0.986599, -0.16079],
  "ImageType": [
    "ORIGINAL",
    "PRIMARY",
    "M",
    "ND",
    "MOSAIC"
],
  "ImagingFrequency": 123.251,
  "InPlanePhaseEncodingDirectionDICOM": "COL",
  "InstitutionAddress": "Olive_Street_60_Providence_RI_US_02912",
  "InstitutionName": "BROWN_UNIVERSITY_MRF",
  "InstitutionalDepartmentName": "Department",
  "MRAcquisitionType": "2D",
  "MagneticFieldStrength": 3,
  "Manufacturer": "Siemens",
  "ManufacturersModelName": "Prisma_fit",
  "Modality": "MR",
  "MultibandAccelerationFactor": 4,
  "PartialFourier": 1,
  "PatientPosition": "HFS",
  "PercentPhaseFOV": 100,
  "PhaseEncodingDirection": "j-",
  "PhaseEncodingSteps": 88,
  "PhaseResolution": 1,
  "PixelBandwidth": 2185,
  "ProcedureStepDescription": "ASHENHAV_1222",
  "ProtocolName": "func-bold_task-RDMlocalizer_run-02",
  "PulseSequenceDetails": "%SiemensSeq%_ep2d_bold",
  "ReceiveCoilActiveElements": "HC1-7",
  "ReceiveCoilName": "HeadNeck_64",
  "ReconMatrixPE": 88,
  "RefLinesPE": 8,
  "RepetitionTime": 1.2,
  "SAR": 0.0515966,
  "ScanOptions": "FS",
  "ScanningSequence": "EP",
  "SequenceName": "_epfid2d1_88",
  "SequenceVariant": "SK",
  "SeriesDescription": "func-bold_task-RDMlocalizer_run-02",
  "SeriesNumber": 20,
  "ShimSetting": [1767, -9057, 4450, 426, -56, -141, -82, 20],
  "SliceThickness": 2.4,
  "SliceTiming": [0.55, 0, 0.6275, 0.0775, 0.7075, 0.1575, 0.785, 0.235, 0.865, 0.315, 0.9425, 0.3925, 1.0225, 0.4725, 1.1, 0.55, 0, 0.6275, 0.0775, 0.7075, 0.1575, 0.785, 0.235, 0.865, 0.315, 0.9425, 0.3925, 1.0225, 0.4725, 1.1, 0.55, 0, 0.6275, 0.0775, 0.7075, 0.1575, 0.785, 0.235, 0.865, 0.315, 0.9425, 0.3925, 1.0225, 0.4725, 1.1, 0.55, 0, 0.6275, 0.0775, 0.7075, 0.1575, 0.785, 0.235, 0.865, 0.315, 0.9425, 0.3925, 1.0225, 0.4725, 1.1],
  "SoftwareVersions": "syngo_MR_E11",
  "SpacingBetweenSlices": 2.4,
  "StationName": "AWP67050",
  "TaskName": "RDMlocalizer",
  "TotalReadoutTime": 0.0504612,
  "TxRefAmp": 218.178,
  "dcmmeta_affine": [
    [-2.395717144012451, -0.06649994850158691, 0.07227249443531036, 112.29190826416016],
    [-0.07722286134958267, 2.3655951023101807, -0.3838900029659271, -84.8451919555664],
    [0.060599494725465775, 0.38553038239479065, 2.3679959774017334, -72.6089859008789],
    [0.0, 0.0, 0.0, 1.0]
],
  "dcmmeta_reorient_transform": [
    [0.0, -1.0, 0.0, 87.0],
    [1.0, 0.0, 0.0, 0.0],
    [0.0, 0.0, 1.0, 0.0],
    [0.0, 0.0, 0.0, 1.0]
],
  "dcmmeta_shape": [88, 88, 60, 195],
  "dcmmeta_slice_dim": 2,
  "dcmmeta_version": 0.6,
  "global": {
    "const": {
      "AcquisitionMatrix": [88, 0, 0, 88],
      "AngioFlag": "N",
      "BitsAllocated": 16,
      "BitsStored": 12,
      "BodyPartExamined": "BRAIN",
      "Columns": 704,
      "DeidentificationMethodCodeSequence": [
        {
          "CodeMeaning": "XNAT DicomEdit 6 Script",
          "CodeValue": "3",
          "CodingSchemeDesignator": "XNAT",
          "CodingSchemeVersion": "1.0"}
],
      "EchoNumbers": 1,
      "EchoTime": 33.0,
      "EchoTrainLength": 88,
      "FlipAngle": 62.0,
      "HighBit": 11,
      "ImageOrientationPatient": [0.99916163255886, 0.03220669045964, 0.02527372374532, -0.0277345769912, 0.98659890153255, -0.1607899273396],
      "ImagePositionPatient": [-823.90528339132, -873.34950338313, 61.010875300192],
      "ImageType": [
        "ORIGINAL",
        "PRIMARY",
        "M",
        "ND",
        "MOSAIC"
],
      "ImagedNucleus": "1H",
      "ImagingFrequency": 123.250522,
      "InPlanePhaseEncodingDirection": "COL",
      "MRAcquisitionType": "2D",
      "MagneticFieldStrength": 3.0,
      "Manufacturer": "SIEMENS",
      "ManufacturerModelName": "Prisma_fit",
      "Modality": "MR",
      "NumberOfAverages": 1.0,
      "NumberOfPhaseEncodingSteps": 88,
      "PercentPhaseFieldOfView": 100.0,
      "PercentSampling": 100.0,
      "PerformedProcedureStepStartTime": "112439.776000",
      "PhotometricInterpretation": "MONOCHROME2",
      "PixelBandwidth": 2185.0,
      "PixelRepresentation": 0,
      "PixelSpacing": [2.3977272510529, 2.3977272510529],
      "ProtocolName": "func-bold_task-RDMlocalizer_run-02",
      "RepetitionTime": 1200.0,
      "Rows": 704,
      "SAR": 0.05159661666825,
      "SamplesPerPixel": 1,
      "ScanOptions": "FS",
      "ScanningSequence": "EP",
      "SequenceName": "*epfid2d1_88",
      "SequenceVariant": "SK",
      "SeriesDescription": "func-bold_task-RDMlocalizer_run-02",
      "SeriesNumber": 20,
      "SeriesTime": "130119.012000",
      "SliceLocation": -54.68789509372,
      "SliceThickness": 2.4000000953674,
      "SmallestImagePixelValue": 0,
      "SoftwareVersions": "syngo MR E11",
      "SpacingBetweenSlices": 2.3999999383085,
      "SpecificCharacterSet": "ISO_IR 100",
      "StudyID": "1",
      "StudyTime": "112439.701000",
      "TransmitCoilName": "Body",
      "VariableFlipAngleFlag": "N",
      "WindowCenterWidthExplanation": "Algo1",
      "dBdt": 0.0},
    "slices": {}
  },
  "time": {
    "samples": {
      "AcquisitionNumber": [1, 2, 3, 4, 5, 6, 7, 8, 9, 10, 11, 12, 13, 14, 15, 16, 17, 18, 19, 20, 21, 22, 23, 24, 25, 26, 27, 28, 29, 30, 31, 32, 33, 34, 35, 36, 37, 38, 39, 40, 41, 42, 43, 44, 45, 46, 47, 48, 49, 50, 51, 52, 53, 54, 55, 56, 57, 58, 59, 60, 61, 62, 63, 64, 65, 66, 67, 68, 69, 70, 71, 72, 73, 74, 75, 76, 77, 78, 79, 80, 81, 82, 83, 84, 85, 86, 87, 88, 89, 90, 91, 92, 93, 94, 95, 96, 97, 98, 99, 100, 101, 102, 103, 104, 105, 106, 107, 108, 109, 110, 111, 112, 113, 114, 115, 116, 117, 118, 119, 120, 121, 122, 123, 124, 125, 126, 127, 128, 129, 130, 131, 132, 133, 134, 135, 136, 137, 138, 139, 140, 141, 142, 143, 144, 145, 146, 147, 148, 149, 150, 151, 152, 153, 154, 155, 156, 157, 158, 159, 160, 161, 162, 163, 164, 165, 166, 167, 168, 169, 170, 171, 172, 173, 174, 175, 176, 177, 178, 179, 180, 181, 182, 183, 184, 185, 186, 187, 188, 189, 190, 191, 192, 193, 194, 195],
      "AcquisitionTime": ["130037.237500", "130038.437500", "130039.637500", "130040.837500", "130042.037500", "130043.237500", "130044.437500", "130045.637500", "130046.837500", "130048.037500", "130049.237500", "130050.437500", "130051.637500", "130052.837500", "130054.037500", "130055.237500", "130056.437500", "130057.637500", "130058.837500", "130100.037500", "130101.237500", "130102.437500", "130103.637500", "130104.837500", "130106.037500", "130107.237500", "130108.437500", "130109.637500", "130110.837500", "130112.037500", "130113.237500", "130114.437500", "130115.637500", "130116.837500", "130118.037500", "130119.237500", "130120.437500", "130121.637500", "130122.837500", "130124.037500", "130125.237500", "130126.437500", "130127.637500", "130128.837500", "130130.037500", "130131.237500", "130132.437500", "130133.637500", "130134.837500", "130136.037500", "130137.237500", "130138.437500", "130139.637500", "130140.837500", "130142.037500", "130143.237500", "130144.437500", "130145.637500", "130146.837500", "130148.037500", "130149.237500", "130150.437500", "130151.637500", "130152.837500", "130154.037500", "130155.237500", "130156.437500", "130157.637500", "130158.837500", "130200.037500", "130201.237500", "130202.437500", "130203.637500", "130204.837500", "130206.037500", "130207.237500", "130208.437500", "130209.637500", "130210.837500", "130212.037500", "130213.237500", "130214.437500", "130215.637500", "130216.837500", "130218.037500", "130219.237500", "130220.437500", "130221.637500", "130222.837500", "130224.037500", "130225.237500", "130226.437500", "130227.637500", "130228.837500", "130230.037500", "130231.237500", "130232.437500", "130233.637500", "130234.837500", "130236.037500", "130237.237500", "130238.437500", "130239.637500", "130240.837500", "130242.037500", "130243.237500", "130244.437500", "130245.637500", "130246.837500", "130248.037500", "130249.237500", "130250.437500", "130251.637500", "130252.837500", "130254.037500", "130255.237500", "130256.437500", "130257.637500", "130258.837500", "130300.037500", "130301.237500", "130302.437500", "130303.637500", "130304.837500", "130306.037500", "130307.237500", "130308.437500", "130309.637500", "130310.837500", "130312.037500", "130313.237500", "130314.437500", "130315.637500", "130316.837500", "130318.037500", "130319.237500", "130320.437500", "130321.637500", "130322.837500", "130324.037500", "130325.237500", "130326.437500", "130327.637500", "130328.837500", "130330.037500", "130331.237500", "130332.437500", "130333.637500", "130334.837500", "130336.037500", "130337.237500", "130338.437500", "130339.637500", "130340.837500", "130342.037500", "130343.237500", "130344.437500", "130345.637500", "130346.837500", "130348.037500", "130349.237500", "130350.437500", "130351.637500", "130352.837500", "130354.037500", "130355.237500", "130356.437500", "130357.637500", "130358.837500", "130400.037500", "130401.237500", "130402.437500", "130403.637500", "130404.837500", "130406.037500", "130407.237500", "130408.437500", "130409.637500", "130410.837500", "130412.037500", "130413.237500", "130414.437500", "130415.637500", "130416.837500", "130418.037500", "130419.237500", "130420.437500", "130421.637500", "130422.837500", "130424.037500", "130425.237500", "130426.437500", "130427.637500", "130428.837500", "130430.037500"],
      "ContentTime": ["130119.015000", "130119.019000", "130119.021000", "130119.024000", "130119.026000", "130119.029000", "130119.031000", "130119.034000", "130119.037000", "130119.039000", "130119.042000", "130119.044000", "130119.047000", "130119.050000", "130119.052000", "130119.055000", "130119.057000", "130119.060000", "130119.063000", "130119.065000", "130119.068000", "130119.071000", "130119.073000", "130119.076000", "130119.078000", "130119.082000", "130119.085000", "130119.096000", "130119.105000", "130119.108000", "130119.110000", "130119.113000", "130119.115000", "130119.118000", "130159.009000", "130159.012000", "130159.015000", "130159.018000", "130159.022000", "130159.037000", "130159.040000", "130159.043000", "130159.045000", "130159.048000", "130159.050000", "130159.053000", "130159.055000", "130159.058000", "130159.061000", "130159.064000", "130159.066000", "130159.069000", "130159.072000", "130159.074000", "130159.077000", "130159.079000", "130159.082000", "130159.085000", "130159.087000", "130159.090000", "130159.092000", "130159.095000", "130159.097000", "130159.103000", "130159.106000", "130159.108000", "130159.111000", "130159.114000", "130239.010000", "130239.012000", "130239.015000", "130239.018000", "130239.020000", "130239.023000", "130239.025000", "130239.028000", "130239.030000", "130239.033000", "130239.036000", "130239.038000", "130239.041000", "130239.043000", "130239.046000", "130239.049000", "130239.051000", "130239.054000", "130239.056000", "130239.059000", "130239.061000", "130239.064000", "130239.067000", "130239.078000", "130239.081000", "130239.084000", "130239.086000", "130239.089000", "130239.091000", "130239.094000", "130239.097000", "130239.099000", "130239.102000", "130319.010000", "130319.012000", "130319.015000", "130319.018000", "130319.020000", "130319.023000", "130319.026000", "130319.028000", "130319.031000", "130319.033000", "130319.036000", "130319.039000", "130319.041000", "130319.044000", "130319.046000", "130319.049000", "130319.052000", "130319.054000", "130319.057000", "130319.059000", "130319.062000", "130319.064000", "130319.067000", "130319.070000", "130319.072000", "130319.075000", "130319.077000", "130319.080000", "130319.083000", "130319.086000", "130319.089000", "130319.092000", "130319.095000", "130359.011000", "130359.014000", "130359.016000", "130359.019000", "130359.021000", "130359.024000", "130359.027000", "130359.029000", "130359.032000", "130359.035000", "130359.037000", "130359.040000", "130359.042000", "130359.045000", "130359.048000", "130359.051000", "130359.053000", "130359.056000", "130359.058000", "130359.061000", "130359.064000", "130359.066000", "130359.069000", "130359.072000", "130359.074000", "130359.077000", "130359.079000", "130359.082000", "130359.084000", "130359.087000", "130359.090000", "130359.092000", "130359.095000", "130359.097000", "130431.116000", "130431.119000", "130431.122000", "130431.125000", "130431.135000", "130431.138000", "130431.140000", "130431.144000", "130431.147000", "130431.150000", "130431.152000", "130431.155000", "130431.158000", "130431.160000", "130431.163000", "130431.166000", "130431.168000", "130431.171000", "130431.174000", "130431.176000", "130431.179000", "130431.182000", "130431.185000", "130431.187000", "130431.190000", "130431.195000", "130431.198000"],
      "InstanceCreationTime": ["130119.015000", "130119.019000", "130119.021000", "130119.024000", "130119.026000", "130119.029000", "130119.031000", "130119.034000", "130119.037000", "130119.039000", "130119.042000", "130119.044000", "130119.047000", "130119.050000", "130119.052000", "130119.055000", "130119.057000", "130119.060000", "130119.063000", "130119.065000", "130119.068000", "130119.071000", "130119.073000", "130119.076000", "130119.078000", "130119.082000", "130119.085000", "130119.096000", "130119.105000", "130119.108000", "130119.110000", "130119.113000", "130119.115000", "130119.118000", "130159.009000", "130159.012000", "130159.015000", "130159.018000", "130159.022000", "130159.037000", "130159.040000", "130159.043000", "130159.045000", "130159.048000", "130159.050000", "130159.053000", "130159.055000", "130159.058000", "130159.061000", "130159.064000", "130159.066000", "130159.069000", "130159.072000", "130159.074000", "130159.077000", "130159.079000", "130159.082000", "130159.085000", "130159.087000", "130159.090000", "130159.092000", "130159.095000", "130159.097000", "130159.103000", "130159.106000", "130159.108000", "130159.111000", "130159.114000", "130239.010000", "130239.012000", "130239.015000", "130239.018000", "130239.020000", "130239.023000", "130239.025000", "130239.028000", "130239.030000", "130239.033000", "130239.036000", "130239.038000", "130239.041000", "130239.043000", "130239.046000", "130239.049000", "130239.051000", "130239.054000", "130239.056000", "130239.059000", "130239.061000", "130239.064000", "130239.067000", "130239.078000", "130239.081000", "130239.084000", "130239.086000", "130239.089000", "130239.091000", "130239.094000", "130239.097000", "130239.099000", "130239.102000", "130319.010000", "130319.012000", "130319.015000", "130319.018000", "130319.020000", "130319.023000", "130319.026000", "130319.028000", "130319.031000", "130319.033000", "130319.036000", "130319.039000", "130319.041000", "130319.044000", "130319.046000", "130319.049000", "130319.052000", "130319.054000", "130319.057000", "130319.059000", "130319.062000", "130319.064000", "130319.067000", "130319.070000", "130319.072000", "130319.075000", "130319.077000", "130319.080000", "130319.083000", "130319.086000", "130319.089000", "130319.092000", "130319.095000", "130359.011000", "130359.014000", "130359.016000", "130359.019000", "130359.021000", "130359.024000", "130359.027000", "130359.029000", "130359.032000", "130359.035000", "130359.037000", "130359.040000", "130359.042000", "130359.045000", "130359.048000", "130359.051000", "130359.053000", "130359.056000", "130359.058000", "130359.061000", "130359.064000", "130359.066000", "130359.069000", "130359.072000", "130359.074000", "130359.077000", "130359.079000", "130359.082000", "130359.084000", "130359.087000", "130359.090000", "130359.092000", "130359.095000", "130359.097000", "130431.116000", "130431.119000", "130431.122000", "130431.125000", "130431.135000", "130431.138000", "130431.140000", "130431.144000", "130431.147000", "130431.150000", "130431.152000", "130431.155000", "130431.158000", "130431.160000", "130431.163000", "130431.166000", "130431.168000", "130431.171000", "130431.174000", "130431.176000", "130431.179000", "130431.182000", "130431.185000", "130431.187000", "130431.190000", "130431.195000", "130431.198000"],
      "InstanceNumber": [1, 2, 3, 4, 5, 6, 7, 8, 9, 10, 11, 12, 13, 14, 15, 16, 17, 18, 19, 20, 21, 22, 23, 24, 25, 26, 27, 28, 29, 30, 31, 32, 33, 34, 35, 36, 37, 38, 39, 40, 41, 42, 43, 44, 45, 46, 47, 48, 49, 50, 51, 52, 53, 54, 55, 56, 57, 58, 59, 60, 61, 62, 63, 64, 65, 66, 67, 68, 69, 70, 71, 72, 73, 74, 75, 76, 77, 78, 79, 80, 81, 82, 83, 84, 85, 86, 87, 88, 89, 90, 91, 92, 93, 94, 95, 96, 97, 98, 99, 100, 101, 102, 103, 104, 105, 106, 107, 108, 109, 110, 111, 112, 113, 114, 115, 116, 117, 118, 119, 120, 121, 122, 123, 124, 125, 126, 127, 128, 129, 130, 131, 132, 133, 134, 135, 136, 137, 138, 139, 140, 141, 142, 143, 144, 145, 146, 147, 148, 149, 150, 151, 152, 153, 154, 155, 156, 157, 158, 159, 160, 161, 162, 163, 164, 165, 166, 167, 168, 169, 170, 171, 172, 173, 174, 175, 176, 177, 178, 179, 180, 181, 182, 183, 184, 185, 186, 187, 188, 189, 190, 191, 192, 193, 194, 195],
      "LargestImagePixelValue": [3077, 3069, 2995, 2957, 2914, 2880, 2942, 2921, 3010, 2970, 2956, 2938, 2921, 2927, 3002, 3017, 3095, 3085, 2995, 3056, 3001, 3087, 3140, 3175, 3146, 3215, 3127, 3068, 3019, 2922, 2956, 2887, 2908, 2827, 2816, 2795, 2776, 2726, 2757, 2806, 2896, 3039, 2994, 3081, 3019, 3072, 3003, 3048, 3067, 3080, 2979, 3045, 2950, 3058, 3072, 3164, 3156, 3209, 3206, 3216, 3168, 3149, 3157, 3088, 3138, 3086, 3127, 3055, 3159, 3130, 3121, 3045, 3134, 3073, 3156, 3057, 3090, 3082, 3118, 3083, 3025, 3048, 3034, 3074, 3053, 3100, 3110, 3017, 3058, 2936, 3011, 2956, 2971, 2978, 2941, 3014, 2925, 2986, 3093, 3073, 3108, 3104, 2997, 3061, 2965, 2971, 3038, 3025, 2995, 3008, 3052, 3020, 3049, 2983, 3051, 3029, 3056, 2997, 2970, 3001, 2962, 2960, 3017, 2991, 3129, 3126, 3143, 3137, 3103, 3084, 3073, 3124, 3163, 3060, 3114, 3065, 3050, 3103, 3111, 3176, 3097, 3142, 3115, 3023, 3051, 3020, 3089, 3073, 3078, 3109, 3028, 3080, 3063, 2995, 3056, 3064, 3071, 3156, 3106, 3184, 3149, 3160, 3132, 3135, 3102, 3036, 2952, 2921, 2902, 2900, 2933, 2950, 2906, 2832, 2847, 2852, 2967, 2942, 3037, 3038, 2963, 3077, 3060, 3111, 3172, 3172, 3218, 3183, 3130, 3182, 3120, 3124, 3150, 3150, 3101],
      "WindowCenter": [671.0, 669.0, 667.0, 664.0, 663.0, 662.0, 663.0, 663.0, 664.0, 663.0, 662.0, 661.0, 661.0, 662.0, 663.0, 664.0, 666.0, 665.0, 663.0, 663.0, 664.0, 665.0, 667.0, 668.0, 668.0, 667.0, 665.0, 663.0, 661.0, 659.0, 659.0, 659.0, 659.0, 658.0, 657.0, 656.0, 655.0, 654.0, 656.0, 658.0, 659.0, 661.0, 661.0, 662.0, 661.0, 661.0, 661.0, 662.0, 663.0, 663.0, 662.0, 662.0, 662.0, 663.0, 663.0, 664.0, 664.0, 665.0, 665.0, 666.0, 666.0, 665.0, 665.0, 665.0, 665.0, 664.0, 665.0, 665.0, 666.0, 665.0, 665.0, 665.0, 665.0, 664.0, 665.0, 664.0, 665.0, 664.0, 664.0, 664.0, 663.0, 663.0, 663.0, 663.0, 664.0, 664.0, 665.0, 663.0, 663.0, 662.0, 663.0, 662.0, 662.0, 663.0, 662.0, 663.0, 663.0, 663.0, 664.0, 664.0, 664.0, 664.0, 662.0, 663.0, 661.0, 662.0, 663.0, 662.0, 662.0, 663.0, 664.0, 663.0, 663.0, 662.0, 663.0, 662.0, 662.0, 661.0, 661.0, 661.0, 661.0, 661.0, 662.0, 663.0, 665.0, 666.0, 666.0, 664.0, 663.0, 663.0, 664.0, 665.0, 665.0, 664.0, 664.0, 663.0, 664.0, 665.0, 665.0, 665.0, 664.0, 665.0, 664.0, 663.0, 664.0, 664.0, 664.0, 663.0, 664.0, 664.0, 663.0, 663.0, 663.0, 663.0, 663.0, 663.0, 664.0, 664.0, 664.0, 665.0, 665.0, 665.0, 666.0, 665.0, 664.0, 662.0, 661.0, 660.0, 660.0, 661.0, 661.0, 660.0, 658.0, 657.0, 657.0, 657.0, 659.0, 659.0, 661.0, 661.0, 661.0, 663.0, 664.0, 666.0, 666.0, 666.0, 665.0, 664.0, 664.0, 665.0, 664.0, 665.0, 665.0, 664.0, 663.0],
      "WindowWidth": [1450.0, 1443.0, 1438.0, 1432.0, 1428.0, 1426.0, 1428.0, 1429.0, 1430.0, 1428.0, 1426.0, 1424.0, 1424.0, 1426.0, 1429.0, 1431.0, 1434.0, 1432.0, 1428.0, 1429.0, 1430.0, 1433.0, 1437.0, 1440.0, 1440.0, 1437.0, 1431.0, 1427.0, 1423.0, 1418.0, 1418.0, 1418.0, 1419.0, 1417.0, 1415.0, 1411.0, 1408.0, 1407.0, 1411.0, 1416.0, 1419.0, 1423.0, 1423.0, 1425.0, 1422.0, 1424.0, 1424.0, 1426.0, 1427.0, 1427.0, 1424.0, 1426.0, 1426.0, 1428.0, 1429.0, 1431.0, 1431.0, 1431.0, 1433.0, 1435.0, 1435.0, 1432.0, 1433.0, 1433.0, 1433.0, 1430.0, 1432.0, 1433.0, 1436.0, 1434.0, 1434.0, 1433.0, 1434.0, 1431.0, 1433.0, 1431.0, 1432.0, 1430.0, 1431.0, 1430.0, 1429.0, 1428.0, 1427.0, 1428.0, 1429.0, 1431.0, 1431.0, 1428.0, 1428.0, 1425.0, 1427.0, 1425.0, 1426.0, 1427.0, 1426.0, 1428.0, 1429.0, 1429.0, 1430.0, 1429.0, 1430.0, 1429.0, 1426.0, 1426.0, 1423.0, 1424.0, 1427.0, 1426.0, 1426.0, 1428.0, 1429.0, 1427.0, 1427.0, 1426.0, 1427.0, 1424.0, 1424.0, 1424.0, 1422.0, 1422.0, 1422.0, 1423.0, 1425.0, 1428.0, 1432.0, 1434.0, 1435.0, 1431.0, 1428.0, 1429.0, 1431.0, 1432.0, 1433.0, 1431.0, 1430.0, 1428.0, 1429.0, 1432.0, 1431.0, 1432.0, 1430.0, 1431.0, 1430.0, 1427.0, 1431.0, 1429.0, 1429.0, 1429.0, 1430.0, 1430.0, 1429.0, 1429.0, 1429.0, 1427.0, 1427.0, 1428.0, 1429.0, 1431.0, 1430.0, 1432.0, 1431.0, 1433.0, 1434.0, 1433.0, 1430.0, 1426.0, 1423.0, 1421.0, 1421.0, 1423.0, 1423.0, 1420.0, 1415.0, 1413.0, 1414.0, 1414.0, 1417.0, 1419.0, 1422.0, 1422.0, 1422.0, 1426.0, 1430.0, 1433.0, 1435.0, 1433.0, 1431.0, 1429.0, 1428.0, 1430.0, 1430.0, 1431.0, 1431.0, 1429.0, 1426.0]
    },
    "slices": {}
  }
}