{
  "AcquisitionMatrixPE": 88,
  "AcquisitionNumber": 1,
  "AcquisitionTime": "11:57:53.875000",
  "BandwidthPerPixelPhaseEncode": 19.592,
  "BaseResolution": 88,
  "BodyPartExamined": "BRAIN",
  "ConsistencyInfo": "N4_VE11C_LATEST_20160120",
  "ConversionSoftware": "dcm2niix",
  "ConversionSoftwareVersion": "v1.0.20190902",
  "DerivedVendorReportedEchoSpacing": 0.000580014,
  "DeviceSerialNumber": "67050",
  "DwellTime": 2.6e-06,
  "EchoTime": 0.033,
  "EchoTrainLength": 88,
  "EffectiveEchoSpacing": 0.000580014,
  "FlipAngle": 62,
  "ImageOrientationPatientDICOM": [0.999162, 0.0322067, 0.0252737, -0.0277346, 0.986599, -0.16079],
  "ImageType": [
    "ORIGINAL",
    "PRIMARY",
    "M",
    "ND",
    "MOSAIC"
],
  "ImagingFrequency": 123.251,
  "InPlanePhaseEncodingDirectionDICOM": "COL",
  "InstitutionAddress": "Olive_Street_60_Providence_RI_US_02912",
  "InstitutionName": "BROWN_UNIVERSITY_MRF",
  "InstitutionalDepartmentName": "Department",
  "MRAcquisitionType": "2D",
  "MagneticFieldStrength": 3,
  "Manufacturer": "Siemens",
  "ManufacturersModelName": "Prisma_fit",
  "Modality": "MR",
  "MultibandAccelerationFactor": 4,
  "PartialFourier": 1,
  "PatientPosition": "HFS",
  "PercentPhaseFOV": 100,
  "PhaseEncodingDirection": "j-",
  "PhaseEncodingSteps": 88,
  "PhaseResolution": 1,
  "PixelBandwidth": 2185,
  "ProcedureStepDescription": "ASHENHAV_1222",
  "ProtocolName": "func-bold_task-RDMcolor_run-02",
  "PulseSequenceDetails": "%SiemensSeq%_ep2d_bold",
  "ReceiveCoilActiveElements": "HC1-7",
  "ReceiveCoilName": "HeadNeck_64",
  "ReconMatrixPE": 88,
  "RefLinesPE": 8,
  "RepetitionTime": 1.2,
  "SAR": 0.0518502,
  "ScanOptions": "FS",
  "ScanningSequence": "EP",
  "SequenceName": "_epfid2d1_88",
  "SequenceVariant": "SK",
  "SeriesDescription": "func-bold_task-RDMcolor_run-02",
  "SeriesNumber": 10,
  "ShimSetting": [1767, -9057, 4450, 426, -56, -141, -82, 20],
  "SliceThickness": 2.4,
  "SliceTiming": [0.55, 0, 0.6275, 0.0775, 0.7075, 0.1575, 0.785, 0.235, 0.865, 0.3125, 0.9425, 0.3925, 1.0225, 0.47, 1.1, 0.55, 0, 0.6275, 0.0775, 0.7075, 0.1575, 0.785, 0.235, 0.865, 0.3125, 0.9425, 0.3925, 1.0225, 0.47, 1.1, 0.55, 0, 0.6275, 0.0775, 0.7075, 0.1575, 0.785, 0.235, 0.865, 0.3125, 0.9425, 0.3925, 1.0225, 0.47, 1.1, 0.55, 0, 0.6275, 0.0775, 0.7075, 0.1575, 0.785, 0.235, 0.865, 0.3125, 0.9425, 0.3925, 1.0225, 0.47, 1.1],
  "SoftwareVersions": "syngo_MR_E11",
  "SpacingBetweenSlices": 2.4,
  "StationName": "AWP67050",
  "TaskName": "RDMcolor",
  "TotalReadoutTime": 0.0504612,
  "TxRefAmp": 218.178,
  "dcmmeta_affine": [
    [-2.395717144012451, -0.06649994850158691, 0.07227249443531036, 112.29190826416016],
    [-0.07722286134958267, 2.3655951023101807, -0.3838900029659271, -84.8451919555664],
    [0.060599494725465775, 0.38553038239479065, 2.3679959774017334, -72.6089859008789],
    [0.0, 0.0, 0.0, 1.0]
],
  "dcmmeta_reorient_transform": [
    [0.0, -1.0, 0.0, 87.0],
    [1.0, 0.0, 0.0, 0.0],
    [0.0, 0.0, 1.0, 0.0],
    [0.0, 0.0, 0.0, 1.0]
],
  "dcmmeta_shape": [88, 88, 60, 392],
  "dcmmeta_slice_dim": 2,
  "dcmmeta_version": 0.6,
  "global": {
    "const": {
      "AcquisitionMatrix": [88, 0, 0, 88],
      "AngioFlag": "N",
      "BitsAllocated": 16,
      "BitsStored": 12,
      "BodyPartExamined": "BRAIN",
      "Columns": 704,
      "DeidentificationMethodCodeSequence": [
        {
          "CodeMeaning": "XNAT DicomEdit 6 Script",
          "CodeValue": "3",
          "CodingSchemeDesignator": "XNAT",
          "CodingSchemeVersion": "1.0"}
],
      "EchoNumbers": 1,
      "EchoTime": 33.0,
      "EchoTrainLength": 88,
      "FlipAngle": 62.0,
      "HighBit": 11,
      "ImageOrientationPatient": [0.99916163255886, 0.03220669045964, 0.02527372374532, -0.0277345769912, 0.98659890153255, -0.1607899273396],
      "ImagePositionPatient": [-823.90528339132, -873.34950338313, 61.010875300192],
      "ImageType": [
        "ORIGINAL",
        "PRIMARY",
        "M",
        "ND",
        "MOSAIC"
],
      "ImagedNucleus": "1H",
      "ImagingFrequency": 123.250515,
      "InPlanePhaseEncodingDirection": "COL",
      "MRAcquisitionType": "2D",
      "MagneticFieldStrength": 3.0,
      "Manufacturer": "SIEMENS",
      "ManufacturerModelName": "Prisma_fit",
      "Modality": "MR",
      "NumberOfAverages": 1.0,
      "NumberOfPhaseEncodingSteps": 88,
      "PercentPhaseFieldOfView": 100.0,
      "PercentSampling": 100.0,
      "PerformedProcedureStepStartTime": "112439.776000",
      "PhotometricInterpretation": "MONOCHROME2",
      "PixelBandwidth": 2185.0,
      "PixelRepresentation": 0,
      "PixelSpacing": [2.3977272510529, 2.3977272510529],
      "ProtocolName": "func-bold_task-RDMcolor_run-02",
      "RepetitionTime": 1200.0,
      "Rows": 704,
      "SAR": 0.05185021594023,
      "SamplesPerPixel": 1,
      "ScanOptions": "FS",
      "ScanningSequence": "EP",
      "SequenceName": "*epfid2d1_88",
      "SequenceVariant": "SK",
      "SeriesDescription": "func-bold_task-RDMcolor_run-02",
      "SeriesNumber": 10,
      "SeriesTime": "115800.432000",
      "SliceLocation": -54.68789509372,
      "SliceThickness": 2.4000000953674,
      "SmallestImagePixelValue": 0,
      "SoftwareVersions": "syngo MR E11",
      "SpacingBetweenSlices": 2.3999999383085,
      "SpecificCharacterSet": "ISO_IR 100",
      "StudyID": "1",
      "StudyTime": "112439.701000",
      "TransmitCoilName": "Body",
      "VariableFlipAngleFlag": "N",
      "WindowCenterWidthExplanation": "Algo1",
      "dBdt": 0.0},
    "slices": {}
  },
  "time": {
    "samples": {
      "AcquisitionNumber": [1, 2, 3, 4, 5, 6, 7, 8, 9, 10, 11, 12, 13, 14, 15, 16, 17, 18, 19, 20, 21, 22, 23, 24, 25, 26, 27, 28, 29, 30, 31, 32, 33, 34, 35, 36, 37, 38, 39, 40, 41, 42, 43, 44, 45, 46, 47, 48, 49, 50, 51, 52, 53, 54, 55, 56, 57, 58, 59, 60, 61, 62, 63, 64, 65, 66, 67, 68, 69, 70, 71, 72, 73, 74, 75, 76, 77, 78, 79, 80, 81, 82, 83, 84, 85, 86, 87, 88, 89, 90, 91, 92, 93, 94, 95, 96, 97, 98, 99, 100, 101, 102, 103, 104, 105, 106, 107, 108, 109, 110, 111, 112, 113, 114, 115, 116, 117, 118, 119, 120, 121, 122, 123, 124, 125, 126, 127, 128, 129, 130, 131, 132, 133, 134, 135, 136, 137, 138, 139, 140, 141, 142, 143, 144, 145, 146, 147, 148, 149, 150, 151, 152, 153, 154, 155, 156, 157, 158, 159, 160, 161, 162, 163, 164, 165, 166, 167, 168, 169, 170, 171, 172, 173, 174, 175, 176, 177, 178, 179, 180, 181, 182, 183, 184, 185, 186, 187, 188, 189, 190, 191, 192, 193, 194, 195, 196, 197, 198, 199, 200, 201, 202, 203, 204, 205, 206, 207, 208, 209, 210, 211, 212, 213, 214, 215, 216, 217, 218, 219, 220, 221, 222, 223, 224, 225, 226, 227, 228, 229, 230, 231, 232, 233, 234, 235, 236, 237, 238, 239, 240, 241, 242, 243, 244, 245, 246, 247, 248, 249, 250, 251, 252, 253, 254, 255, 256, 257, 258, 259, 260, 261, 262, 263, 264, 265, 266, 267, 268, 269, 270, 271, 272, 273, 274, 275, 276, 277, 278, 279, 280, 281, 282, 283, 284, 285, 286, 287, 288, 289, 290, 291, 292, 293, 294, 295, 296, 297, 298, 299, 300, 301, 302, 303, 304, 305, 306, 307, 308, 309, 310, 311, 312, 313, 314, 315, 316, 317, 318, 319, 320, 321, 322, 323, 324, 325, 326, 327, 328, 329, 330, 331, 332, 333, 334, 335, 336, 337, 338, 339, 340, 341, 342, 343, 344, 345, 346, 347, 348, 349, 350, 351, 352, 353, 354, 355, 356, 357, 358, 359, 360, 361, 362, 363, 364, 365, 366, 367, 368, 369, 370, 371, 372, 373, 374, 375, 376, 377, 378, 379, 380, 381, 382, 383, 384, 385, 386, 387, 388, 389, 390, 391, 392],
      "AcquisitionTime": ["115753.875000", "115755.075000", "115756.275000", "115757.475000", "115758.675000", "115759.875000", "115801.075000", "115802.275000", "115803.475000", "115804.675000", "115805.875000", "115807.075000", "115808.275000", "115809.475000", "115810.675000", "115811.875000", "115813.075000", "115814.275000", "115815.475000", "115816.675000", "115817.875000", "115819.075000", "115820.275000", "115821.475000", "115822.675000", "115823.875000", "115825.075000", "115826.275000", "115827.475000", "115828.675000", "115829.875000", "115831.075000", "115832.275000", "115833.475000", "115834.675000", "115835.875000", "115837.075000", "115838.275000", "115839.475000", "115840.675000", "115841.875000", "115843.075000", "115844.275000", "115845.475000", "115846.675000", "115847.875000", "115849.075000", "115850.275000", "115851.475000", "115852.675000", "115853.875000", "115855.075000", "115856.275000", "115857.475000", "115858.675000", "115859.875000", "115901.075000", "115902.275000", "115903.475000", "115904.675000", "115905.875000", "115907.075000", "115908.275000", "115909.475000", "115910.675000", "115911.875000", "115913.075000", "115914.275000", "115915.475000", "115916.675000", "115917.875000", "115919.075000", "115920.275000", "115921.475000", "115922.675000", "115923.875000", "115925.075000", "115926.275000", "115927.475000", "115928.675000", "115929.875000", "115931.075000", "115932.275000", "115933.475000", "115934.675000", "115935.875000", "115937.075000", "115938.275000", "115939.475000", "115940.675000", "115941.875000", "115943.075000", "115944.275000", "115945.475000", "115946.675000", "115947.875000", "115949.075000", "115950.275000", "115951.475000", "115952.675000", "115953.875000", "115955.075000", "115956.275000", "115957.475000", "115958.675000", "115959.875000", "120001.075000", "120002.275000", "120003.475000", "120004.675000", "120005.875000", "120007.075000", "120008.275000", "120009.475000", "120010.675000", "120011.875000", "120013.075000", "120014.275000", "120015.475000", "120016.675000", "120017.875000", "120019.075000", "120020.275000", "120021.475000", "120022.675000", "120023.875000", "120025.075000", "120026.275000", "120027.475000", "120028.675000", "120029.875000", "120031.075000", "120032.275000", "120033.475000", "120034.675000", "120035.875000", "120037.075000", "120038.275000", "120039.475000", "120040.675000", "120041.875000", "120043.075000", "120044.275000", "120045.475000", "120046.675000", "120047.875000", "120049.075000", "120050.275000", "120051.475000", "120052.675000", "120053.875000", "120055.075000", "120056.275000", "120057.475000", "120058.675000", "120059.875000", "120101.075000", "120102.275000", "120103.475000", "120104.675000", "120105.875000", "120107.075000", "120108.275000", "120109.475000", "120110.675000", "120111.875000", "120113.075000", "120114.275000", "120115.475000", "120116.675000", "120117.875000", "120119.075000", "120120.275000", "120121.475000", "120122.675000", "120123.875000", "120125.075000", "120126.275000", "120127.475000", "120128.675000", "120129.875000", "120131.075000", "120132.275000", "120133.475000", "120134.675000", "120135.875000", "120137.075000", "120138.275000", "120139.475000", "120140.675000", "120141.875000", "120143.075000", "120144.275000", "120145.475000", "120146.675000", "120147.875000", "120149.075000", "120150.275000", "120151.475000", "120152.675000", "120153.875000", "120155.075000", "120156.275000", "120157.475000", "120158.675000", "120159.875000", "120201.075000", "120202.275000", "120203.475000", "120204.675000", "120205.875000", "120207.075000", "120208.275000", "120209.475000", "120210.675000", "120211.875000", "120213.075000", "120214.275000", "120215.475000", "120216.675000", "120217.875000", "120219.075000", "120220.275000", "120221.475000", "120222.675000", "120223.875000", "120225.075000", "120226.275000", "120227.475000", "120228.675000", "120229.875000", "120231.075000", "120232.275000", "120233.475000", "120234.675000", "120235.875000", "120237.075000", "120238.275000", "120239.475000", "120240.675000", "120241.875000", "120243.075000", "120244.275000", "120245.475000", "120246.675000", "120247.875000", "120249.075000", "120250.275000", "120251.475000", "120252.675000", "120253.875000", "120255.075000", "120256.275000", "120257.475000", "120258.675000", "120259.875000", "120301.075000", "120302.275000", "120303.475000", "120304.675000", "120305.875000", "120307.075000", "120308.275000", "120309.475000", "120310.675000", "120311.875000", "120313.075000", "120314.275000", "120315.475000", "120316.675000", "120317.875000", "120319.075000", "120320.275000", "120321.475000", "120322.675000", "120323.875000", "120325.075000", "120326.275000", "120327.475000", "120328.675000", "120329.875000", "120331.075000", "120332.275000", "120333.475000", "120334.675000", "120335.875000", "120337.075000", "120338.275000", "120339.475000", "120340.675000", "120341.875000", "120343.075000", "120344.275000", "120345.475000", "120346.675000", "120347.875000", "120349.075000", "120350.275000", "120351.475000", "120352.675000", "120353.875000", "120355.075000", "120356.275000", "120357.475000", "120358.675000", "120359.875000", "120401.075000", "120402.275000", "120403.475000", "120404.675000", "120405.875000", "120407.075000", "120408.275000", "120409.475000", "120410.675000", "120411.875000", "120413.075000", "120414.275000", "120415.475000", "120416.675000", "120417.875000", "120419.075000", "120420.275000", "120421.475000", "120422.675000", "120423.875000", "120425.075000", "120426.275000", "120427.475000", "120428.675000", "120429.875000", "120431.075000", "120432.275000", "120433.475000", "120434.675000", "120435.875000", "120437.075000", "120438.275000", "120439.475000", "120440.675000", "120441.875000", "120443.075000", "120444.275000", "120445.475000", "120446.675000", "120447.875000", "120449.075000", "120450.275000", "120451.475000", "120452.675000", "120453.875000", "120455.075000", "120456.275000", "120457.475000", "120458.675000", "120459.875000", "120501.075000", "120502.275000", "120503.475000", "120504.675000", "120505.875000", "120507.075000", "120508.275000", "120509.475000", "120510.675000", "120511.875000", "120513.075000", "120514.275000", "120515.475000", "120516.675000", "120517.875000", "120519.075000", "120520.275000", "120521.475000", "120522.675000", "120523.875000", "120525.075000", "120526.275000", "120527.475000", "120528.675000", "120529.875000", "120531.075000", "120532.275000", "120533.475000", "120534.675000", "120535.875000", "120537.075000", "120538.275000", "120539.475000", "120540.675000", "120541.875000", "120543.075000"],
      "ContentTime": ["115800.436000", "115800.439000", "115800.442000", "115800.469000", "115800.472000", "115840.432000", "115840.435000", "115840.438000", "115840.440000", "115840.443000", "115840.445000", "115840.448000", "115840.450000", "115840.453000", "115840.455000", "115840.458000", "115840.461000", "115840.463000", "115840.466000", "115840.468000", "115840.471000", "115840.474000", "115840.476000", "115840.489000", "115840.491000", "115840.494000", "115840.496000", "115840.499000", "115840.501000", "115840.504000", "115840.507000", "115840.509000", "115840.512000", "115840.514000", "115840.517000", "115840.520000", "115840.522000", "115840.525000", "115920.432000", "115920.434000", "115920.437000", "115920.440000", "115920.442000", "115920.445000", "115920.447000", "115920.450000", "115920.452000", "115920.455000", "115920.457000", "115920.460000", "115920.463000", "115920.465000", "115920.468000", "115920.470000", "115920.478000", "115920.480000", "115920.483000", "115920.485000", "115920.488000", "115920.490000", "115920.493000", "115920.495000", "115920.498000", "115920.500000", "115920.503000", "115920.506000", "115920.508000", "115920.511000", "115920.513000", "115920.516000", "115920.519000", "115920.521000", "120000.432000", "120000.434000", "120000.437000", "120000.440000", "120000.442000", "120000.445000", "120000.447000", "120000.450000", "120000.452000", "120000.455000", "120000.458000", "120000.460000", "120000.463000", "120000.465000", "120000.468000", "120000.470000", "120000.473000", "120000.475000", "120000.478000", "120000.481000", "120000.483000", "120000.486000", "120000.488000", "120000.498000", "120000.500000", "120000.503000", "120000.506000", "120000.508000", "120000.511000", "120000.513000", "120000.516000", "120000.518000", "120000.521000", "120040.431000", "120040.434000", "120040.437000", "120040.439000", "120040.442000", "120040.445000", "120040.447000", "120040.450000", "120040.452000", "120040.455000", "120040.457000", "120040.460000", "120040.463000", "120040.465000", "120040.468000", "120040.470000", "120040.473000", "120040.475000", "120040.478000", "120040.481000", "120040.483000", "120040.486000", "120040.488000", "120040.491000", "120040.493000", "120040.496000", "120040.499000", "120040.501000", "120040.504000", "120040.506000", "120040.509000", "120040.511000", "120040.514000", "120120.432000", "120120.435000", "120120.438000", "120120.440000", "120120.443000", "120120.446000", "120120.448000", "120120.451000", "120120.459000", "120120.461000", "120120.464000", "120120.466000", "120120.469000", "120120.472000", "120120.474000", "120120.477000", "120120.479000", "120120.482000", "120120.484000", "120120.487000", "120120.490000", "120120.492000", "120120.495000", "120120.497000", "120120.500000", "120120.502000", "120120.505000", "120120.507000", "120120.510000", "120120.513000", "120120.515000", "120120.518000", "120120.538000", "120120.540000", "120200.432000", "120200.434000", "120200.437000", "120200.440000", "120200.442000", "120200.445000", "120200.447000", "120200.450000", "120200.452000", "120200.455000", "120200.458000", "120200.460000", "120200.463000", "120200.465000", "120200.468000", "120200.470000", "120200.473000", "120200.475000", "120200.478000", "120200.481000", "120200.483000", "120200.486000", "120200.488000", "120200.491000", "120200.494000", "120200.496000", "120200.499000", "120200.501000", "120200.504000", "120200.507000", "120200.509000", "120200.512000", "120200.514000", "120240.432000", "120240.434000", "120240.437000", "120240.440000", "120240.442000", "120240.445000", "120240.447000", "120240.450000", "120240.452000", "120240.455000", "120240.458000", "120240.460000", "120240.463000", "120240.465000", "120240.468000", "120240.470000", "120240.473000", "120240.475000", "120240.478000", "120240.481000", "120240.492000", "120240.494000", "120240.497000", "120240.500000", "120240.502000", "120240.505000", "120240.507000", "120240.510000", "120240.513000", "120240.515000", "120240.518000", "120240.520000", "120240.523000", "120320.432000", "120320.435000", "120320.438000", "120320.440000", "120320.443000", "120320.446000", "120320.448000", "120320.451000", "120320.453000", "120320.456000", "120320.459000", "120320.461000", "120320.464000", "120320.466000", "120320.469000", "120320.471000", "120320.474000", "120320.477000", "120320.479000", "120320.482000", "120320.484000", "120320.487000", "120320.489000", "120320.492000", "120320.495000", "120320.497000", "120320.500000", "120320.502000", "120320.505000", "120320.508000", "120320.510000", "120320.513000", "120320.515000", "120320.518000", "120400.432000", "120400.434000", "120400.437000", "120400.440000", "120400.442000", "120400.445000", "120400.448000", "120400.450000", "120400.453000", "120400.456000", "120400.458000", "120400.461000", "120400.463000", "120400.466000", "120400.468000", "120400.471000", "120400.473000", "120400.476000", "120400.479000", "120400.481000", "120400.484000", "120400.487000", "120400.489000", "120400.492000", "120400.494000", "120400.497000", "120400.499000", "120400.502000", "120400.505000", "120400.507000", "120400.510000", "120400.512000", "120400.515000", "120440.431000", "120440.434000", "120440.437000", "120440.439000", "120440.442000", "120440.445000", "120440.447000", "120440.450000", "120440.452000", "120440.455000", "120440.458000", "120440.460000", "120440.463000", "120440.466000", "120440.468000", "120440.471000", "120440.474000", "120440.477000", "120440.479000", "120440.482000", "120440.484000", "120440.487000", "120440.490000", "120440.492000", "120440.495000", "120440.498000", "120440.500000", "120440.503000", "120440.505000", "120440.508000", "120440.511000", "120440.513000", "120440.516000", "120520.431000", "120520.434000", "120520.437000", "120520.439000", "120520.442000", "120520.445000", "120520.447000", "120520.450000", "120520.453000", "120520.455000", "120520.458000", "120520.460000", "120520.463000", "120520.466000", "120520.468000", "120520.485000", "120520.488000", "120520.490000", "120520.493000", "120520.495000", "120520.498000", "120520.500000", "120520.503000", "120520.506000", "120520.508000", "120520.511000", "120520.513000", "120520.516000", "120520.519000", "120520.521000", "120520.524000", "120520.526000", "120520.529000", "120520.532000", "120544.314000", "120544.317000", "120544.319000", "120544.322000", "120544.324000", "120544.327000", "120544.330000", "120544.333000", "120544.335000", "120544.338000", "120544.340000", "120544.343000", "120544.346000", "120544.348000", "120544.362000", "120544.365000", "120544.367000", "120544.370000", "120544.373000", "120544.376000"],
      "InstanceCreationTime": ["115800.436000", "115800.439000", "115800.442000", "115800.469000", "115800.472000", "115840.432000", "115840.435000", "115840.438000", "115840.440000", "115840.443000", "115840.445000", "115840.448000", "115840.450000", "115840.453000", "115840.455000", "115840.458000", "115840.461000", "115840.463000", "115840.466000", "115840.468000", "115840.471000", "115840.474000", "115840.476000", "115840.489000", "115840.491000", "115840.494000", "115840.496000", "115840.499000", "115840.501000", "115840.504000", "115840.507000", "115840.509000", "115840.512000", "115840.514000", "115840.517000", "115840.520000", "115840.522000", "115840.525000", "115920.432000", "115920.434000", "115920.437000", "115920.440000", "115920.442000", "115920.445000", "115920.447000", "115920.450000", "115920.452000", "115920.455000", "115920.457000", "115920.460000", "115920.463000", "115920.465000", "115920.468000", "115920.470000", "115920.478000", "115920.480000", "115920.483000", "115920.485000", "115920.488000", "115920.490000", "115920.493000", "115920.495000", "115920.498000", "115920.500000", "115920.503000", "115920.506000", "115920.508000", "115920.511000", "115920.513000", "115920.516000", "115920.519000", "115920.521000", "120000.432000", "120000.434000", "120000.437000", "120000.440000", "120000.442000", "120000.445000", "120000.447000", "120000.450000", "120000.452000", "120000.455000", "120000.458000", "120000.460000", "120000.463000", "120000.465000", "120000.468000", "120000.470000", "120000.473000", "120000.475000", "120000.478000", "120000.481000", "120000.483000", "120000.486000", "120000.488000", "120000.498000", "120000.500000", "120000.503000", "120000.506000", "120000.508000", "120000.511000", "120000.513000", "120000.516000", "120000.518000", "120000.521000", "120040.431000", "120040.434000", "120040.437000", "120040.439000", "120040.442000", "120040.445000", "120040.447000", "120040.450000", "120040.452000", "120040.455000", "120040.457000", "120040.460000", "120040.463000", "120040.465000", "120040.468000", "120040.470000", "120040.473000", "120040.475000", "120040.478000", "120040.481000", "120040.483000", "120040.486000", "120040.488000", "120040.491000", "120040.493000", "120040.496000", "120040.499000", "120040.501000", "120040.504000", "120040.506000", "120040.509000", "120040.511000", "120040.514000", "120120.432000", "120120.435000", "120120.438000", "120120.440000", "120120.443000", "120120.446000", "120120.448000", "120120.451000", "120120.459000", "120120.461000", "120120.464000", "120120.466000", "120120.469000", "120120.472000", "120120.474000", "120120.477000", "120120.479000", "120120.482000", "120120.484000", "120120.487000", "120120.490000", "120120.492000", "120120.495000", "120120.497000", "120120.500000", "120120.502000", "120120.505000", "120120.507000", "120120.510000", "120120.513000", "120120.515000", "120120.518000", "120120.538000", "120120.540000", "120200.432000", "120200.434000", "120200.437000", "120200.440000", "120200.442000", "120200.445000", "120200.447000", "120200.450000", "120200.452000", "120200.455000", "120200.458000", "120200.460000", "120200.463000", "120200.465000", "120200.468000", "120200.470000", "120200.473000", "120200.475000", "120200.478000", "120200.481000", "120200.483000", "120200.486000", "120200.488000", "120200.491000", "120200.494000", "120200.496000", "120200.499000", "120200.501000", "120200.504000", "120200.507000", "120200.509000", "120200.512000", "120200.514000", "120240.432000", "120240.434000", "120240.437000", "120240.440000", "120240.442000", "120240.445000", "120240.447000", "120240.450000", "120240.452000", "120240.455000", "120240.458000", "120240.460000", "120240.463000", "120240.465000", "120240.468000", "120240.470000", "120240.473000", "120240.475000", "120240.478000", "120240.481000", "120240.492000", "120240.494000", "120240.497000", "120240.500000", "120240.502000", "120240.505000", "120240.507000", "120240.510000", "120240.513000", "120240.515000", "120240.518000", "120240.520000", "120240.523000", "120320.432000", "120320.435000", "120320.438000", "120320.440000", "120320.443000", "120320.446000", "120320.448000", "120320.451000", "120320.453000", "120320.456000", "120320.459000", "120320.461000", "120320.464000", "120320.466000", "120320.469000", "120320.471000", "120320.474000", "120320.477000", "120320.479000", "120320.482000", "120320.484000", "120320.487000", "120320.489000", "120320.492000", "120320.495000", "120320.497000", "120320.500000", "120320.502000", "120320.505000", "120320.508000", "120320.510000", "120320.513000", "120320.515000", "120320.518000", "120400.432000", "120400.434000", "120400.437000", "120400.440000", "120400.442000", "120400.445000", "120400.448000", "120400.450000", "120400.453000", "120400.456000", "120400.458000", "120400.461000", "120400.463000", "120400.466000", "120400.468000", "120400.471000", "120400.473000", "120400.476000", "120400.479000", "120400.481000", "120400.484000", "120400.487000", "120400.489000", "120400.492000", "120400.494000", "120400.497000", "120400.499000", "120400.502000", "120400.505000", "120400.507000", "120400.510000", "120400.512000", "120400.515000", "120440.431000", "120440.434000", "120440.437000", "120440.439000", "120440.442000", "120440.445000", "120440.447000", "120440.450000", "120440.452000", "120440.455000", "120440.458000", "120440.460000", "120440.463000", "120440.466000", "120440.468000", "120440.471000", "120440.474000", "120440.477000", "120440.479000", "120440.482000", "120440.484000", "120440.487000", "120440.490000", "120440.492000", "120440.495000", "120440.498000", "120440.500000", "120440.503000", "120440.505000", "120440.508000", "120440.511000", "120440.513000", "120440.516000", "120520.431000", "120520.434000", "120520.437000", "120520.439000", "120520.442000", "120520.445000", "120520.447000", "120520.450000", "120520.453000", "120520.455000", "120520.458000", "120520.460000", "120520.463000", "120520.466000", "120520.468000", "120520.485000", "120520.488000", "120520.490000", "120520.493000", "120520.495000", "120520.498000", "120520.500000", "120520.503000", "120520.506000", "120520.508000", "120520.511000", "120520.513000", "120520.516000", "120520.519000", "120520.521000", "120520.524000", "120520.526000", "120520.529000", "120520.532000", "120544.314000", "120544.317000", "120544.319000", "120544.322000", "120544.324000", "120544.327000", "120544.330000", "120544.333000", "120544.335000", "120544.338000", "120544.340000", "120544.343000", "120544.346000", "120544.348000", "120544.362000", "120544.365000", "120544.367000", "120544.370000", "120544.373000", "120544.376000"],
      "InstanceNumber": [1, 2, 3, 4, 5, 6, 7, 8, 9, 10, 11, 12, 13, 14, 15, 16, 17, 18, 19, 20, 21, 22, 23, 24, 25, 26, 27, 28, 29, 30, 31, 32, 33, 34, 35, 36, 37, 38, 39, 40, 41, 42, 43, 44, 45, 46, 47, 48, 49, 50, 51, 52, 53, 54, 55, 56, 57, 58, 59, 60, 61, 62, 63, 64, 65, 66, 67, 68, 69, 70, 71, 72, 73, 74, 75, 76, 77, 78, 79, 80, 81, 82, 83, 84, 85, 86, 87, 88, 89, 90, 91, 92, 93, 94, 95, 96, 97, 98, 99, 100, 101, 102, 103, 104, 105, 106, 107, 108, 109, 110, 111, 112, 113, 114, 115, 116, 117, 118, 119, 120, 121, 122, 123, 124, 125, 126, 127, 128, 129, 130, 131, 132, 133, 134, 135, 136, 137, 138, 139, 140, 141, 142, 143, 144, 145, 146, 147, 148, 149, 150, 151, 152, 153, 154, 155, 156, 157, 158, 159, 160, 161, 162, 163, 164, 165, 166, 167, 168, 169, 170, 171, 172, 173, 174, 175, 176, 177, 178, 179, 180, 181, 182, 183, 184, 185, 186, 187, 188, 189, 190, 191, 192, 193, 194, 195, 196, 197, 198, 199, 200, 201, 202, 203, 204, 205, 206, 207, 208, 209, 210, 211, 212, 213, 214, 215, 216, 217, 218, 219, 220, 221, 222, 223, 224, 225, 226, 227, 228, 229, 230, 231, 232, 233, 234, 235, 236, 237, 238, 239, 240, 241, 242, 243, 244, 245, 246, 247, 248, 249, 250, 251, 252, 253, 254, 255, 256, 257, 258, 259, 260, 261, 262, 263, 264, 265, 266, 267, 268, 269, 270, 271, 272, 273, 274, 275, 276, 277, 278, 279, 280, 281, 282, 283, 284, 285, 286, 287, 288, 289, 290, 291, 292, 293, 294, 295, 296, 297, 298, 299, 300, 301, 302, 303, 304, 305, 306, 307, 308, 309, 310, 311, 312, 313, 314, 315, 316, 317, 318, 319, 320, 321, 322, 323, 324, 325, 326, 327, 328, 329, 330, 331, 332, 333, 334, 335, 336, 337, 338, 339, 340, 341, 342, 343, 344, 345, 346, 347, 348, 349, 350, 351, 352, 353, 354, 355, 356, 357, 358, 359, 360, 361, 362, 363, 364, 365, 366, 367, 368, 369, 370, 371, 372, 373, 374, 375, 376, 377, 378, 379, 380, 381, 382, 383, 384, 385, 386, 387, 388, 389, 390, 391, 392],
