{
  "AcquisitionMatrixPE": 88,
  "AcquisitionNumber": 1,
  "AcquisitionTime": "12:34:28.745000",
  "BandwidthPerPixelPhaseEncode": 19.592,
  "BaseResolution": 88,
  "BodyPartExamined": "BRAIN",
  "ConsistencyInfo": "N4_VE11C_LATEST_20160120",
  "ConversionSoftware": "dcm2niix",
  "ConversionSoftwareVersion": "v1.0.20190902",
  "DerivedVendorReportedEchoSpacing": 0.000580014,
  "DeviceSerialNumber": "67050",
  "DwellTime": 2.6e-06,
  "EchoTime": 0.033,
  "EchoTrainLength": 88,
  "EffectiveEchoSpacing": 0.000580014,
  "FlipAngle": 62,
  "ImageOrientationPatientDICOM": [0.999162, 0.0322067, 0.0252737, -0.0277346, 0.986599, -0.16079],
  "ImageType": [
    "ORIGINAL",
    "PRIMARY",
    "M",
    "ND",
    "MOSAIC"
],
  "ImagingFrequency": 123.251,
  "InPlanePhaseEncodingDirectionDICOM": "COL",
  "InstitutionAddress": "Olive_Street_60_Providence_RI_US_02912",
  "InstitutionName": "BROWN_UNIVERSITY_MRF",
  "InstitutionalDepartmentName": "Department",
  "MRAcquisitionType": "2D",
  "MagneticFieldStrength": 3,
  "Manufacturer": "Siemens",
  "ManufacturersModelName": "Prisma_fit",
  "Modality": "MR",
  "MultibandAccelerationFactor": 4,
  "PartialFourier": 1,
  "PatientPosition": "HFS",
  "PercentPhaseFOV": 100,
  "PhaseEncodingDirection": "j-",
  "PhaseEncodingSteps": 88,
  "PhaseResolution": 1,
  "PixelBandwidth": 2185,
  "ProcedureStepDescription": "ASHENHAV_1222",
  "ProtocolName": "func-bold_task-RDMcolor_run-05",
  "PulseSequenceDetails": "%SiemensSeq%_ep2d_bold",
  "ReceiveCoilActiveElements": "HC1-7",
  "ReceiveCoilName": "HeadNeck_64",
  "ReconMatrixPE": 88,
  "RefLinesPE": 8,
  "RepetitionTime": 1.2,
  "SAR": 0.0518502,
  "ScanOptions": "FS",
  "ScanningSequence": "EP",
  "SequenceName": "_epfid2d1_88",
  "SequenceVariant": "SK",
  "SeriesDescription": "func-bold_task-RDMcolor_run-05",
  "SeriesNumber": 16,
  "ShimSetting": [1767, -9057, 4450, 426, -56, -141, -82, 20],
  "SliceThickness": 2.4,
  "SliceTiming": [0.5525, 0, 0.63, 0.08, 0.7075, 0.1575, 0.7875, 0.2375, 0.865, 0.315, 0.945, 0.395, 1.0225, 0.4725, 1.1025, 0.5525, 0, 0.63, 0.08, 0.7075, 0.1575, 0.7875, 0.2375, 0.865, 0.315, 0.945, 0.395, 1.0225, 0.4725, 1.1025, 0.5525, 0, 0.63, 0.08, 0.7075, 0.1575, 0.7875, 0.2375, 0.865, 0.315, 0.945, 0.395, 1.0225, 0.4725, 1.1025, 0.5525, 0, 0.63, 0.08, 0.7075, 0.1575, 0.7875, 0.2375, 0.865, 0.315, 0.945, 0.395, 1.0225, 0.4725, 1.1025],
  "SoftwareVersions": "syngo_MR_E11",
  "SpacingBetweenSlices": 2.4,
  "StationName": "AWP67050",
  "TaskName": "RDMcolor",
  "TotalReadoutTime": 0.0504612,
  "TxRefAmp": 218.178,
  "dcmmeta_affine": [
    [-2.395717144012451, -0.06649994850158691, 0.07227249443531036, 112.29190826416016],
    [-0.07722286134958267, 2.3655951023101807, -0.3838900029659271, -84.8451919555664],
    [0.060599494725465775, 0.38553038239479065, 2.3679959774017334, -72.6089859008789],
    [0.0, 0.0, 0.0, 1.0]
],
  "dcmmeta_reorient_transform": [
    [0.0, -1.0, 0.0, 87.0],
    [1.0, 0.0, 0.0, 0.0],
    [0.0, 0.0, 1.0, 0.0],
    [0.0, 0.0, 0.0, 1.0]
],
  "dcmmeta_shape": [88, 88, 60, 392],
  "dcmmeta_slice_dim": 2,
  "dcmmeta_version": 0.6,
  "global": {
    "const": {
      "AcquisitionMatrix": [88, 0, 0, 88],
      "AngioFlag": "N",
      "BitsAllocated": 16,
      "BitsStored": 12,
      "BodyPartExamined": "BRAIN",
      "Columns": 704,
      "DeidentificationMethodCodeSequence": [
        {
          "CodeMeaning": "XNAT DicomEdit 6 Script",
          "CodeValue": "3",
          "CodingSchemeDesignator": "XNAT",
          "CodingSchemeVersion": "1.0"}
],
      "EchoNumbers": 1,
      "EchoTime": 33.0,
      "EchoTrainLength": 88,
      "FlipAngle": 62.0,
      "HighBit": 11,
      "ImageOrientationPatient": [0.99916163255886, 0.03220669045964, 0.02527372374532, -0.0277345769912, 0.98659890153255, -0.1607899273396],
      "ImagePositionPatient": [-823.90528339132, -873.34950338313, 61.010875300192],
      "ImageType": [
        "ORIGINAL",
        "PRIMARY",
        "M",
        "ND",
        "MOSAIC"
],
      "ImagedNucleus": "1H",
      "ImagingFrequency": 123.250523,
      "InPlanePhaseEncodingDirection": "COL",
      "MRAcquisitionType": "2D",
      "MagneticFieldStrength": 3.0,
      "Manufacturer": "SIEMENS",
      "ManufacturerModelName": "Prisma_fit",
      "Modality": "MR",
      "NumberOfAverages": 1.0,
      "NumberOfPhaseEncodingSteps": 88,
      "PercentPhaseFieldOfView": 100.0,
      "PercentSampling": 100.0,
      "PerformedProcedureStepStartTime": "112439.776000",
      "PhotometricInterpretation": "MONOCHROME2",
      "PixelBandwidth": 2185.0,
      "PixelRepresentation": 0,
      "PixelSpacing": [2.3977272510529, 2.3977272510529],
      "ProtocolName": "func-bold_task-RDMcolor_run-05",
      "RepetitionTime": 1200.0,
      "Rows": 704,
      "SAR": 0.05185021594023,
      "SamplesPerPixel": 1,
      "ScanOptions": "FS",
      "ScanningSequence": "EP",
      "SequenceName": "*epfid2d1_88",
      "SequenceVariant": "SK",
      "SeriesDescription": "func-bold_task-RDMcolor_run-05",
      "SeriesNumber": 16,
      "SeriesTime": "123500.432000",
      "SliceLocation": -54.68789509372,
      "SliceThickness": 2.4000000953674,
      "SmallestImagePixelValue": 0,
      "SoftwareVersions": "syngo MR E11",
      "SpacingBetweenSlices": 2.3999999383085,
      "SpecificCharacterSet": "ISO_IR 100",
      "StudyID": "1",
      "StudyTime": "112439.701000",
      "TransmitCoilName": "Body",
      "VariableFlipAngleFlag": "N",
      "WindowCenterWidthExplanation": "Algo1",
      "dBdt": 0.0},
    "slices": {}
  },
  "time": {
    "samples": {
      "AcquisitionNumber": [1, 2, 3, 4, 5, 6, 7, 8, 9, 10, 11, 12, 13, 14, 15, 16, 17, 18, 19, 20, 21, 22, 23, 24, 25, 26, 27, 28, 29, 30, 31, 32, 33, 34, 35, 36, 37, 38, 39, 40, 41, 42, 43, 44, 45, 46, 47, 48, 49, 50, 51, 52, 53, 54, 55, 56, 57, 58, 59, 60, 61, 62, 63, 64, 65, 66, 67, 68, 69, 70, 71, 72, 73, 74, 75, 76, 77, 78, 79, 80, 81, 82, 83, 84, 85, 86, 87, 88, 89, 90, 91, 92, 93, 94, 95, 96, 97, 98, 99, 100, 101, 102, 103, 104, 105, 106, 107, 108, 109, 110, 111, 112, 113, 114, 115, 116, 117, 118, 119, 120, 121, 122, 123, 124, 125, 126, 127, 128, 129, 130, 131, 132, 133, 134, 135, 136, 137, 138, 139, 140, 141, 142, 143, 144, 145, 146, 147, 148, 149, 150, 151, 152, 153, 154, 155, 156, 157, 158, 159, 160, 161, 162, 163, 164, 165, 166, 167, 168, 169, 170, 171, 172, 173, 174, 175, 176, 177, 178, 179, 180, 181, 182, 183, 184, 185, 186, 187, 188, 189, 190, 191, 192, 193, 194, 195, 196, 197, 198, 199, 200, 201, 202, 203, 204, 205, 206, 207, 208, 209, 210, 211, 212, 213, 214, 215, 216, 217, 218, 219, 220, 221, 222, 223, 224, 225, 226, 227, 228, 229, 230, 231, 232, 233, 234, 235, 236, 237, 238, 239, 240, 241, 242, 243, 244, 245, 246, 247, 248, 249, 250, 251, 252, 253, 254, 255, 256, 257, 258, 259, 260, 261, 262, 263, 264, 265, 266, 267, 268, 269, 270, 271, 272, 273, 274, 275, 276, 277, 278, 279, 280, 281, 282, 283, 284, 285, 286, 287, 288, 289, 290, 291, 292, 293, 294, 295, 296, 297, 298, 299, 300, 301, 302, 303, 304, 305, 306, 307, 308, 309, 310, 311, 312, 313, 314, 315, 316, 317, 318, 319, 320, 321, 322, 323, 324, 325, 326, 327, 328, 329, 330, 331, 332, 333, 334, 335, 336, 337, 338, 339, 340, 341, 342, 343, 344, 345, 346, 347, 348, 349, 350, 351, 352, 353, 354, 355, 356, 357, 358, 359, 360, 361, 362, 363, 364, 365, 366, 367, 368, 369, 370, 371, 372, 373, 374, 375, 376, 377, 378, 379, 380, 381, 382, 383, 384, 385, 386, 387, 388, 389, 390, 391, 392],
      "AcquisitionTime": ["123428.745000", "123429.945000", "123431.145000", "123432.345000", "123433.545000", "123434.745000", "123435.945000", "123437.145000", "123438.345000", "123439.545000", "123440.745000", "123441.945000", "123443.145000", "123444.345000", "123445.545000", "123446.745000", "123447.945000", "123449.145000", "123450.345000", "123451.545000", "123452.745000", "123453.945000", "123455.145000", "123456.345000", "123457.545000", "123458.745000", "123459.945000", "123501.145000", "123502.345000", "123503.545000", "123504.745000", "123505.945000", "123507.145000", "123508.345000", "123509.545000", "123510.745000", "123511.945000", "123513.145000", "123514.345000", "123515.545000", "123516.745000", "123517.945000", "123519.145000", "123520.345000", "123521.545000", "123522.745000", "123523.945000", "123525.145000", "123526.345000", "123527.545000", "123528.745000", "123529.945000", "123531.145000", "123532.345000", "123533.545000", "123534.745000", "123535.945000", "123537.145000", "123538.345000", "123539.545000", "123540.745000", "123541.945000", "123543.145000", "123544.345000", "123545.545000", "123546.745000", "123547.945000", "123549.145000", "123550.345000", "123551.545000", "123552.745000", "123553.945000", "123555.145000", "123556.345000", "123557.545000", "123558.745000", "123559.945000", "123601.145000", "123602.345000", "123603.545000", "123604.745000", "123605.945000", "123607.145000", "123608.345000", "123609.545000", "123610.745000", "123611.945000", "123613.145000", "123614.345000", "123615.545000", "123616.745000", "123617.945000", "123619.145000", "123620.345000", "123621.545000", "123622.745000", "123623.945000", "123625.145000", "123626.345000", "123627.545000", "123628.745000", "123629.945000", "123631.145000", "123632.345000", "123633.545000", "123634.745000", "123635.945000", "123637.145000", "123638.345000", "123639.545000", "123640.745000", "123641.945000", "123643.145000", "123644.345000", "123645.545000", "123646.745000", "123647.945000", "123649.145000", "123650.345000", "123651.545000", "123652.745000", "123653.945000", "123655.145000", "123656.345000", "123657.545000", "123658.745000", "123659.945000", "123701.145000", "123702.345000", "123703.545000", "123704.745000", "123705.945000", "123707.145000", "123708.345000", "123709.545000", "123710.745000", "123711.945000", "123713.145000", "123714.345000", "123715.545000", "123716.745000", "123717.945000", "123719.145000", "123720.345000", "123721.545000", "123722.745000", "123723.945000", "123725.145000", "123726.345000", "123727.545000", "123728.745000", "123729.945000", "123731.145000", "123732.345000", "123733.545000", "123734.745000", "123735.945000", "123737.145000", "123738.345000", "123739.545000", "123740.745000", "123741.945000", "123743.145000", "123744.345000", "123745.545000", "123746.745000", "123747.945000", "123749.145000", "123750.345000", "123751.545000", "123752.745000", "123753.945000", "123755.145000", "123756.345000", "123757.545000", "123758.745000", "123759.945000", "123801.145000", "123802.345000", "123803.545000", "123804.745000", "123805.945000", "123807.145000", "123808.345000", "123809.545000", "123810.745000", "123811.945000", "123813.145000", "123814.345000", "123815.545000", "123816.745000", "123817.945000", "123819.145000", "123820.345000", "123821.545000", "123822.745000", "123823.945000", "123825.145000", "123826.345000", "123827.545000", "123828.745000", "123829.945000", "123831.145000", "123832.345000", "123833.545000", "123834.745000", "123835.945000", "123837.145000", "123838.345000", "123839.545000", "123840.745000", "123841.945000", "123843.145000", "123844.345000", "123845.545000", "123846.745000", "123847.945000", "123849.145000", "123850.345000", "123851.545000", "123852.745000", "123853.945000", "123855.145000", "123856.345000", "123857.545000", "123858.745000", "123859.945000", "123901.145000", "123902.345000", "123903.545000", "123904.745000", "123905.945000", "123907.145000", "123908.345000", "123909.545000", "123910.745000", "123911.945000", "123913.145000", "123914.345000", "123915.545000", "123916.745000", "123917.945000", "123919.145000", "123920.345000", "123921.545000", "123922.745000", "123923.945000", "123925.145000", "123926.345000", "123927.545000", "123928.745000", "123929.945000", "123931.145000", "123932.345000", "123933.545000", "123934.745000", "123935.945000", "123937.145000", "123938.345000", "123939.545000", "123940.745000", "123941.945000", "123943.145000", "123944.345000", "123945.545000", "123946.745000", "123947.945000", "123949.145000", "123950.345000", "123951.545000", "123952.745000", "123953.945000", "123955.145000", "123956.345000", "123957.545000", "123958.745000", "123959.945000", "124001.145000", "124002.345000", "124003.545000", "124004.745000", "124005.945000", "124007.145000", "124008.345000", "124009.545000", "124010.745000", "124011.945000", "124013.145000", "124014.345000", "124015.545000", "124016.745000", "124017.945000", "124019.145000", "124020.345000", "124021.545000", "124022.745000", "124023.945000", "124025.145000", "124026.345000", "124027.545000", "124028.745000", "124029.945000", "124031.145000", "124032.345000", "124033.545000", "124034.745000", "124035.945000", "124037.145000", "124038.345000", "124039.545000", "124040.745000", "124041.945000", "124043.145000", "124044.345000", "124045.545000", "124046.745000", "124047.945000", "124049.145000", "124050.345000", "124051.545000", "124052.745000", "124053.945000", "124055.145000", "124056.345000", "124057.545000", "124058.745000", "124059.945000", "124101.145000", "124102.345000", "124103.545000", "124104.745000", "124105.945000", "124107.145000", "124108.345000", "124109.545000", "124110.745000", "124111.945000", "124113.145000", "124114.345000", "124115.545000", "124116.745000", "124117.945000", "124119.145000", "124120.345000", "124121.545000", "124122.745000", "124123.945000", "124125.145000", "124126.345000", "124127.545000", "124128.745000", "124129.945000", "124131.145000", "124132.345000", "124133.545000", "124134.745000", "124135.945000", "124137.145000", "124138.345000", "124139.545000", "124140.745000", "124141.945000", "124143.145000", "124144.345000", "124145.545000", "124146.745000", "124147.945000", "124149.145000", "124150.345000", "124151.545000", "124152.745000", "124153.945000", "124155.145000", "124156.345000", "124157.545000", "124158.745000", "124159.945000", "124201.145000", "124202.345000", "124203.545000", "124204.745000", "124205.945000", "124207.145000", "124208.345000", "124209.545000", "124210.745000", "124211.945000", "124213.145000", "124214.345000", "124215.545000", "124216.745000", "124217.945000"],
      "ContentTime": ["123500.436000", "123500.446000", "123500.448000", "123500.451000", "123500.453000", "123500.456000", "123500.459000", "123500.461000", "123500.469000", "123500.476000", "123500.478000", "123500.481000", "123500.483000", "123500.486000", "123500.489000", "123500.491000", "123500.494000", "123500.496000", "123500.499000", "123500.501000", "123500.504000", "123500.507000", "123500.509000", "123500.512000", "123500.514000", "123500.517000", "123540.433000", "123540.435000", "123540.438000", "123540.440000", "123540.443000", "123540.446000", "123540.448000", "123540.451000", "123540.453000", "123540.456000", "123540.458000", "123540.461000", "123540.464000", "123540.476000", "123540.478000", "123540.481000", "123540.483000", "123540.486000", "123540.488000", "123540.491000", "123540.493000", "123540.496000", "123540.499000", "123540.501000", "123540.504000", "123540.506000", "123540.521000", "123540.524000", "123540.527000", "123540.529000", "123540.532000", "123540.534000", "123540.537000", "123620.432000", "123620.435000", "123620.437000", "123620.440000", "123620.442000", "123620.445000", "123620.448000", "123620.450000", "123620.453000", "123620.455000", "123620.458000", "123620.460000", "123620.463000", "123620.466000", "123620.468000", "123620.471000", "123620.473000", "123620.476000", "123620.478000", "123620.481000", "123620.483000", "123620.486000", "123620.489000", "123620.491000", "123620.494000", "123620.497000", "123620.499000", "123620.502000", "123620.509000", "123620.512000", "123620.514000", "123620.517000", "123620.520000", "123700.432000", "123700.443000", "123700.446000", "123700.448000", "123700.454000", "123700.457000", "123700.459000", "123700.462000", "123700.465000", "123700.467000", "123700.470000", "123700.472000", "123700.475000", "123700.478000", "123700.480000", "123700.483000", "123700.485000", "123700.488000", "123700.490000", "123700.493000", "123700.496000", "123700.498000", "123700.501000", "123700.503000", "123700.506000", "123700.508000", "123700.511000", "123700.514000", "123700.516000", "123700.519000", "123700.521000", "123700.524000", "123700.526000", "123700.529000", "123720.432000", "123720.434000", "123720.437000", "123720.440000", "123720.442000", "123720.445000", "123720.447000", "123720.450000", "123720.453000", "123720.455000", "123720.458000", "123720.460000", "123720.463000", "123720.465000", "123720.468000", "123720.471000", "123800.432000", "123800.435000", "123800.438000", "123800.441000", "123800.443000", "123800.446000", "123800.448000", "123800.451000", "123800.454000", "123800.456000", "123800.459000", "123800.461000", "123800.464000", "123800.466000", "123800.469000", "123800.472000", "123800.474000", "123800.477000", "123800.479000", "123800.482000", "123800.485000", "123800.487000", "123800.490000", "123800.492000", "123800.495000", "123800.497000", "123800.500000", "123800.503000", "123800.505000", "123800.508000", "123800.510000", "123800.513000", "123800.515000", "123800.518000", "123840.432000", "123840.434000", "123840.437000", "123840.440000", "123840.443000", "123840.445000", "123840.448000", "123840.450000", "123840.453000", "123840.456000", "123840.458000", "123840.461000", "123840.463000", "123840.466000", "123840.469000", "123840.471000", "123840.474000", "123840.477000", "123840.479000", "123840.482000", "123840.484000", "123840.487000", "123840.490000", "123840.493000", "123840.495000", "123840.498000", "123840.500000", "123840.503000", "123840.506000", "123840.508000", "123840.511000", "123840.513000", "123840.516000", "123920.432000", "123920.434000", "123920.437000", "123920.440000", "123920.442000", "123920.445000", "123920.447000", "123920.450000", "123920.453000", "123920.455000", "123920.458000", "123920.460000", "123920.463000", "123920.465000", "123920.468000", "123920.471000", "123920.473000", "123920.476000", "123920.478000", "123920.481000", "123920.483000", "123920.486000", "123920.489000", "123920.491000", "123920.494000", "123920.496000", "123920.499000", "123920.502000", "123920.504000", "123920.507000", "123920.509000", "123920.512000", "123920.515000", "124000.432000", "124000.434000", "124000.437000", "124000.440000", "124000.442000", "124000.445000", "124000.448000", "124000.464000", "124000.467000", "124000.469000", "124000.472000", "124000.475000", "124000.477000", "124000.480000", "124000.483000", "124000.485000", "124000.488000", "124000.490000", "124000.493000", "124000.496000", "124000.499000", "124000.501000", "124000.504000", "124000.506000", "124000.509000", "124000.511000", "124000.514000", "124000.517000", "124000.519000", "124000.522000", "124000.525000", "124000.527000", "124000.530000", "124000.533000", "124040.433000", "124040.435000", "124040.438000", "124040.441000", "124040.443000", "124040.446000", "124040.449000", "124040.451000", "124040.454000", "124040.456000", "124040.459000", "124040.462000", "124040.464000", "124040.467000", "124040.470000", "124040.473000", "124040.475000", "124040.478000", "124040.480000", "124040.483000", "124040.486000", "124040.488000", "124040.491000", "124040.493000", "124040.496000", "124040.499000", "124040.501000", "124040.504000", "124040.506000", "124040.509000", "124040.512000", "124040.514000", "124040.517000", "124120.432000", "124120.435000", "124120.437000", "124120.440000", "124120.442000", "124120.445000", "124120.448000", "124120.451000", "124120.453000", "124120.456000", "124120.458000", "124120.461000", "124120.463000", "124120.466000", "124120.469000", "124120.471000", "124120.474000", "124120.477000", "124120.479000", "124120.482000", "124120.485000", "124120.487000", "124120.490000", "124120.493000", "124120.495000", "124120.498000", "124120.500000", "124120.503000", "124120.505000", "124120.508000", "124120.511000", "124120.513000", "124120.516000", "124200.432000", "124200.435000", "124200.437000", "124200.440000", "124200.442000", "124200.445000", "124200.448000", "124200.450000", "124200.453000", "124200.456000", "124200.458000", "124200.461000", "124200.464000", "124200.466000", "124200.469000", "124200.472000", "124200.474000", "124200.477000", "124200.480000", "124200.482000", "124200.485000", "124200.487000", "124200.490000", "124200.493000", "124200.495000", "124200.498000", "124200.501000", "124200.503000", "124200.506000", "124200.508000", "124200.511000", "124200.514000", "124200.516000", "124200.519000", "124219.673000", "124219.676000", "124219.679000", "124219.682000", "124219.685000", "124219.688000", "124219.690000", "124219.693000", "124219.696000", "124219.700000", "124219.702000", "124219.705000", "124219.708000", "124219.710000", "124219.713000", "124219.716000"],
      "InstanceCreationTime": ["123500.436000", "123500.446000", "123500.448000", "123500.451000", "123500.453000", "123500.456000", "123500.459000", "123500.461000", "123500.469000", "123500.476000", "123500.478000", "123500.481000", "123500.483000", "123500.486000", "123500.489000", "123500.491000", "123500.494000", "123500.496000", "123500.499000", "123500.501000", "123500.504000", "123500.507000", "123500.509000", "123500.512000", "123500.514000", "123500.517000", "123540.433000", "123540.435000", "123540.438000", "123540.440000", "123540.443000", "123540.446000", "123540.448000", "123540.451000", "123540.453000", "123540.456000", "123540.458000", "123540.461000", "123540.464000", "123540.476000", "123540.478000", "123540.481000", "123540.483000", "123540.486000", "123540.488000", "123540.491000", "123540.493000", "123540.496000", "123540.499000", "123540.501000", "123540.504000", "123540.506000", "123540.521000", "123540.524000", "123540.527000", "123540.529000", "123540.532000", "123540.534000", "123540.537000", "123620.432000", "123620.435000", "123620.437000", "123620.440000", "123620.442000", "123620.445000", "123620.448000", "123620.450000", "123620.453000", "123620.455000", "123620.458000", "123620.460000", "123620.463000", "123620.466000", "123620.468000", "123620.471000", "123620.473000", "123620.476000", "123620.478000", "123620.481000", "123620.483000", "123620.486000", "123620.489000", "123620.491000", "123620.494000", "123620.497000", "123620.499000", "123620.502000", "123620.509000", "123620.512000", "123620.514000", "123620.517000", "123620.520000", "123700.432000", "123700.443000", "123700.446000", "123700.448000", "123700.454000", "123700.457000", "123700.459000", "123700.462000", "123700.465000", "123700.467000", "123700.470000", "123700.472000", "123700.475000", "123700.478000", "123700.480000", "123700.483000", "123700.485000", "123700.488000", "123700.490000", "123700.493000", "123700.496000", "123700.498000", "123700.501000", "123700.503000", "123700.506000", "123700.508000", "123700.511000", "123700.514000", "123700.516000", "123700.519000", "123700.521000", "123700.524000", "123700.526000", "123700.529000", "123720.432000", "123720.434000", "123720.437000", "123720.440000", "123720.442000", "123720.445000", "123720.447000", "123720.450000", "123720.453000", "123720.455000", "123720.458000", "123720.460000", "123720.463000", "123720.465000", "123720.468000", "123720.471000", "123800.432000", "123800.435000", "123800.438000", "123800.441000", "123800.443000", "123800.446000", "123800.448000", "123800.451000", "123800.454000", "123800.456000", "123800.459000", "123800.461000", "123800.464000", "123800.466000", "123800.469000", "123800.472000", "123800.474000", "123800.477000", "123800.479000", "123800.482000", "123800.485000", "123800.487000", "123800.490000", "123800.492000", "123800.495000", "123800.497000", "123800.500000", "123800.503000", "123800.505000", "123800.508000", "123800.510000", "123800.513000", "123800.515000", "123800.518000", "123840.432000", "123840.434000", "123840.437000", "123840.440000", "123840.443000", "123840.445000", "123840.448000", "123840.450000", "123840.453000", "123840.456000", "123840.458000", "123840.461000", "123840.463000", "123840.466000", "123840.469000", "123840.471000", "123840.474000", "123840.477000", "123840.479000", "123840.482000", "123840.484000", "123840.487000", "123840.490000", "123840.493000", "123840.495000", "123840.498000", "123840.500000", "123840.503000", "123840.506000", "123840.508000", "123840.511000", "123840.513000", "123840.516000", "123920.432000", "123920.434000", "123920.437000", "123920.440000", "123920.442000", "123920.445000", "123920.447000", "123920.450000", "123920.453000", "123920.455000", "123920.458000", "123920.460000", "123920.463000", "123920.465000", "123920.468000", "123920.471000", "123920.473000", "123920.476000", "123920.478000", "123920.481000", "123920.483000", "123920.486000", "123920.489000", "123920.491000", "123920.494000", "123920.496000", "123920.499000", "123920.502000", "123920.504000", "123920.507000", "123920.509000", "123920.512000", "123920.515000", "124000.432000", "124000.434000", "124000.437000", "124000.440000", "124000.442000", "124000.445000", "124000.448000", "124000.464000", "124000.467000", "124000.469000", "124000.472000", "124000.475000", "124000.477000", "124000.480000", "124000.483000", "124000.485000", "124000.488000", "124000.490000", "124000.493000", "124000.496000", "124000.499000", "124000.501000", "124000.504000", "124000.506000", "124000.509000", "124000.511000", "124000.514000", "124000.517000", "124000.519000", "124000.522000", "124000.525000", "124000.527000", "124000.530000", "124000.533000", "124040.433000", "124040.435000", "124040.438000", "124040.441000", "124040.443000", "124040.446000", "124040.449000", "124040.451000", "124040.454000", "124040.456000", "124040.459000", "124040.462000", "124040.464000", "124040.467000", "124040.470000", "124040.473000", "124040.475000", "124040.478000", "124040.480000", "124040.483000", "124040.486000", "124040.488000", "124040.491000", "124040.493000", "124040.496000", "124040.499000", "124040.501000", "124040.504000", "124040.506000", "124040.509000", "124040.512000", "124040.514000", "124040.517000", "124120.432000", "124120.435000", "124120.437000", "124120.440000", "124120.442000", "124120.445000", "124120.448000", "124120.451000", "124120.453000", "124120.456000", "124120.458000", "124120.461000", "124120.463000", "124120.466000", "124120.469000", "124120.471000", "124120.474000", "124120.477000", "124120.479000", "124120.482000", "124120.485000", "124120.487000", "124120.490000", "124120.493000", "124120.495000", "124120.498000", "124120.500000", "124120.503000", "124120.505000", "124120.508000", "124120.511000", "124120.513000", "124120.516000", "124200.432000", "124200.435000", "124200.437000", "124200.440000", "124200.442000", "124200.445000", "124200.448000", "124200.450000", "124200.453000", "124200.456000", "124200.458000", "124200.461000", "124200.464000", "124200.466000", "124200.469000", "124200.472000", "124200.474000", "124200.477000", "124200.480000", "124200.482000", "124200.485000", "124200.487000", "124200.490000", "124200.493000", "124200.495000", "124200.498000", "124200.501000", "124200.503000", "124200.506000", "124200.508000", "124200.511000", "124200.514000", "124200.516000", "124200.519000", "124219.673000", "124219.676000", "124219.679000", "124219.682000", "124219.685000", "124219.688000", "124219.690000", "124219.693000", "124219.696000", "124219.700000", "124219.702000", "124219.705000", "124219.708000", "124219.710000", "124219.713000", "124219.716000"],
      "InstanceNumber": [1, 2, 3, 4, 5, 6, 7, 8, 9, 10, 11, 12, 13, 14, 15, 16, 17, 18, 19, 20, 21, 22, 23, 24, 25, 26, 27, 28, 29, 30, 31, 32, 33, 34, 35, 36, 37, 38, 39, 40, 41, 42, 43, 44, 45, 46, 47, 48, 49, 50, 51, 52, 53, 54, 55, 56, 57, 58, 59, 60, 61, 62, 63, 64, 65, 66, 67, 68, 69, 70, 71, 72, 73, 74, 75, 76, 77, 78, 79, 80, 81, 82, 83, 84, 85, 86, 87, 88, 89, 90, 91, 92, 93, 94, 95, 96, 97, 98, 99, 100, 101, 102, 103, 104, 105, 106, 107, 108, 109, 110, 111, 112, 113, 114, 115, 116, 117, 118, 119, 120, 121, 122, 123, 124, 125, 126, 127, 128, 129, 130, 131, 132, 133, 134, 135, 136, 137, 138, 139, 140, 141, 142, 143, 144, 145, 146, 147, 148, 149, 150, 151, 152, 153, 154, 155, 156, 157, 158, 159, 160, 161, 162, 163, 164, 165, 166, 167, 168, 169, 170, 171, 172, 173, 174, 175, 176, 177, 178, 179, 180, 181, 182, 183, 184, 185, 186, 187, 188, 189, 190, 191, 192, 193, 194, 195, 196, 197, 198, 199, 200, 201, 202, 203, 204, 205, 206, 207, 208, 209, 210, 211, 212, 213, 214, 215, 216, 217, 218, 219, 220, 221, 222, 223, 224, 225, 226, 227, 228, 229, 230, 231, 232, 233, 234, 235, 236, 237, 238, 239, 240, 241, 242, 243, 244, 245, 246, 247, 248, 249, 250, 251, 252, 253, 254, 255, 256, 257, 258, 259, 260, 261, 262, 263, 264, 265, 266, 267, 268, 269, 270, 271, 272, 273, 274, 275, 276, 277, 278, 279, 280, 281, 282, 283, 284, 285, 286, 287, 288, 289, 290, 291, 292, 293, 294, 295, 296, 297, 298, 299, 300, 301, 302, 303, 304, 305, 306, 307, 308, 309, 310, 311, 312, 313, 314, 315, 316, 317, 318, 319, 320, 321, 322, 323, 324, 325, 326, 327, 328, 329, 330, 331, 332, 333, 334, 335, 336, 337, 338, 339, 340, 341, 342, 343, 344, 345, 346, 347, 348, 349, 350, 351, 352, 353, 354, 355, 356, 357, 358, 359, 360, 361, 362, 363, 364, 365, 366, 367, 368, 369, 370, 371, 372, 373, 374, 375, 376, 377, 378, 379, 380, 381, 382, 383, 384, 385, 386, 387, 388, 389, 390, 391, 392],
