{
  "AcquisitionMatrixPE": 88,
  "AcquisitionNumber": 1,
  "AcquisitionTime": "12:06:51.840000",
  "BandwidthPerPixelPhaseEncode": 19.592,
  "BaseResolution": 88,
  "BodyPartExamined": "BRAIN",
  "ConsistencyInfo": "N4_VE11C_LATEST_20160120",
  "ConversionSoftware": "dcm2niix",
  "ConversionSoftwareVersion": "v1.0.20190902",
  "DerivedVendorReportedEchoSpacing": 0.000580014,
  "DeviceSerialNumber": "67050",
  "DwellTime": 2.6e-06,
  "EchoTime": 0.033,
  "EchoTrainLength": 88,
  "EffectiveEchoSpacing": 0.000580014,
  "FlipAngle": 62,
  "ImageOrientationPatientDICOM": [0.999162, 0.0322067, 0.0252737, -0.0277346, 0.986599, -0.16079],
  "ImageType": [
    "ORIGINAL",
    "PRIMARY",
    "M",
    "ND",
    "MOSAIC"
],
  "ImagingFrequency": 123.251,
  "InPlanePhaseEncodingDirectionDICOM": "COL",
  "InstitutionAddress": "Olive_Street_60_Providence_RI_US_02912",
  "InstitutionName": "BROWN_UNIVERSITY_MRF",
  "InstitutionalDepartmentName": "Department",
  "MRAcquisitionType": "2D",
  "MagneticFieldStrength": 3,
  "Manufacturer": "Siemens",
  "ManufacturersModelName": "Prisma_fit",
  "Modality": "MR",
  "MultibandAccelerationFactor": 4,
  "PartialFourier": 1,
  "PatientPosition": "HFS",
  "PercentPhaseFOV": 100,
  "PhaseEncodingDirection": "j-",
  "PhaseEncodingSteps": 88,
  "PhaseResolution": 1,
  "PixelBandwidth": 2185,
  "ProcedureStepDescription": "ASHENHAV_1222",
  "ProtocolName": "func-bold_task-RDMmotion_run-03",
  "PulseSequenceDetails": "%SiemensSeq%_ep2d_bold",
  "ReceiveCoilActiveElements": "HC1-7",
  "ReceiveCoilName": "HeadNeck_64",
  "ReconMatrixPE": 88,
  "RefLinesPE": 8,
  "RepetitionTime": 1.2,
  "SAR": 0.0513239,
  "ScanOptions": "FS",
  "ScanningSequence": "EP",
  "SequenceName": "_epfid2d1_88",
  "SequenceVariant": "SK",
  "SeriesDescription": "func-bold_task-RDMmotion_run-03",
  "SeriesNumber": 11,
  "ShimSetting": [1767, -9057, 4450, 426, -56, -141, -82, 20],
  "SliceThickness": 2.4,
  "SliceTiming": [0.5525, 0, 0.63, 0.08, 0.71, 0.1575, 0.7875, 0.2375, 0.865, 0.315, 0.945, 0.395, 1.0225, 0.4725, 1.1025, 0.5525, 0, 0.63, 0.08, 0.71, 0.1575, 0.7875, 0.2375, 0.865, 0.315, 0.945, 0.395, 1.0225, 0.4725, 1.1025, 0.5525, 0, 0.63, 0.08, 0.71, 0.1575, 0.7875, 0.2375, 0.865, 0.315, 0.945, 0.395, 1.0225, 0.4725, 1.1025, 0.5525, 0, 0.63, 0.08, 0.71, 0.1575, 0.7875, 0.2375, 0.865, 0.315, 0.945, 0.395, 1.0225, 0.4725, 1.1025],
  "SoftwareVersions": "syngo_MR_E11",
  "SpacingBetweenSlices": 2.4,
  "StationName": "AWP67050",
  "TaskName": "RDMmotion",
  "TotalReadoutTime": 0.0504612,
  "TxRefAmp": 218.178,
  "dcmmeta_affine": [
    [-2.395717144012451, -0.06649994850158691, 0.07227249443531036, 112.29190826416016],
    [-0.07722286134958267, 2.3655951023101807, -0.3838900029659271, -84.8451919555664],
    [0.060599494725465775, 0.38553038239479065, 2.3679959774017334, -72.6089859008789],
    [0.0, 0.0, 0.0, 1.0]
],
  "dcmmeta_reorient_transform": [
    [0.0, -1.0, 0.0, 87.0],
    [1.0, 0.0, 0.0, 0.0],
    [0.0, 0.0, 1.0, 0.0],
    [0.0, 0.0, 0.0, 1.0]
],
  "dcmmeta_shape": [88, 88, 60, 125],
  "dcmmeta_slice_dim": 2,
  "dcmmeta_version": 0.6,
  "global": {
    "const": {
      "AcquisitionMatrix": [88, 0, 0, 88],
      "AngioFlag": "N",
      "BitsAllocated": 16,
      "BitsStored": 12,
      "BodyPartExamined": "BRAIN",
      "Columns": 704,
      "DeidentificationMethodCodeSequence": [
        {
          "CodeMeaning": "XNAT DicomEdit 6 Script",
          "CodeValue": "3",
          "CodingSchemeDesignator": "XNAT",
          "CodingSchemeVersion": "1.0"}
],
      "EchoNumbers": 1,
      "EchoTime": 33.0,
      "EchoTrainLength": 88,
      "FlipAngle": 62.0,
      "HighBit": 11,
      "ImageOrientationPatient": [0.99916163255886, 0.03220669045964, 0.02527372374532, -0.0277345769912, 0.98659890153255, -0.1607899273396],
      "ImagePositionPatient": [-823.90528339132, -873.34950338313, 61.010875300192],
      "ImageType": [
        "ORIGINAL",
        "PRIMARY",
        "M",
        "ND",
        "MOSAIC"
],
      "ImagedNucleus": "1H",
      "ImagingFrequency": 123.250518,
      "InPlanePhaseEncodingDirection": "COL",
      "MRAcquisitionType": "2D",
      "MagneticFieldStrength": 3.0,
      "Manufacturer": "SIEMENS",
      "ManufacturerModelName": "Prisma_fit",
      "Modality": "MR",
      "NumberOfAverages": 1.0,
      "NumberOfPhaseEncodingSteps": 88,
      "PercentPhaseFieldOfView": 100.0,
      "PercentSampling": 100.0,
      "PerformedProcedureStepStartTime": "112439.776000",
      "PhotometricInterpretation": "MONOCHROME2",
      "PixelBandwidth": 2185.0,
      "PixelRepresentation": 0,
      "PixelSpacing": [2.3977272510529, 2.3977272510529],
      "ProtocolName": "func-bold_task-RDMmotion_run-03",
      "RepetitionTime": 1200.0,
      "Rows": 704,
      "SAR": 0.05132391624365,
      "SamplesPerPixel": 1,
      "ScanOptions": "FS",
      "ScanningSequence": "EP",
      "SequenceName": "*epfid2d1_88",
      "SequenceVariant": "SK",
      "SeriesDescription": "func-bold_task-RDMmotion_run-03",
      "SeriesNumber": 11,
      "SeriesTime": "120719.011000",
      "SliceLocation": -54.68789509372,
      "SliceThickness": 2.4000000953674,
      "SmallestImagePixelValue": 0,
      "SoftwareVersions": "syngo MR E11",
      "SpacingBetweenSlices": 2.3999999383085,
      "SpecificCharacterSet": "ISO_IR 100",
      "StudyID": "1",
      "StudyTime": "112439.701000",
      "TransmitCoilName": "Body",
      "VariableFlipAngleFlag": "N",
      "WindowCenterWidthExplanation": "Algo1",
      "dBdt": 0.0},
    "slices": {}
  },
  "time": {
    "samples": {
      "AcquisitionNumber": [1, 2, 3, 4, 5, 6, 7, 8, 9, 10, 11, 12, 13, 14, 15, 16, 17, 18, 19, 20, 21, 22, 23, 24, 25, 26, 27, 28, 29, 30, 31, 32, 33, 34, 35, 36, 37, 38, 39, 40, 41, 42, 43, 44, 45, 46, 47, 48, 49, 50, 51, 52, 53, 54, 55, 56, 57, 58, 59, 60, 61, 62, 63, 64, 65, 66, 67, 68, 69, 70, 71, 72, 73, 74, 75, 76, 77, 78, 79, 80, 81, 82, 83, 84, 85, 86, 87, 88, 89, 90, 91, 92, 93, 94, 95, 96, 97, 98, 99, 100, 101, 102, 103, 104, 105, 106, 107, 108, 109, 110, 111, 112, 113, 114, 115, 116, 117, 118, 119, 120, 121, 122, 123, 124, 125],
      "AcquisitionTime": ["120651.840000", "120653.040000", "120654.240000", "120655.440000", "120656.640000", "120657.840000", "120659.040000", "120700.240000", "120701.440000", "120702.640000", "120703.840000", "120705.040000", "120706.240000", "120707.440000", "120708.640000", "120709.840000", "120711.040000", "120712.240000", "120713.440000", "120714.640000", "120715.840000", "120717.040000", "120718.240000", "120719.440000", "120720.640000", "120721.840000", "120723.040000", "120724.240000", "120725.440000", "120726.640000", "120727.840000", "120729.040000", "120730.240000", "120731.440000", "120732.640000", "120733.840000", "120735.040000", "120736.240000", "120737.440000", "120738.640000", "120739.840000", "120741.040000", "120742.240000", "120743.440000", "120744.640000", "120745.840000", "120747.040000", "120748.240000", "120749.440000", "120750.640000", "120751.840000", "120753.040000", "120754.240000", "120755.440000", "120756.640000", "120757.840000", "120759.040000", "120800.240000", "120801.440000", "120802.640000", "120803.840000", "120805.040000", "120806.240000", "120807.440000", "120808.640000", "120809.840000", "120811.040000", "120812.240000", "120813.440000", "120814.640000", "120815.840000", "120817.040000", "120818.240000", "120819.440000", "120820.640000", "120821.840000", "120823.040000", "120824.240000", "120825.440000", "120826.640000", "120827.840000", "120829.040000", "120830.240000", "120831.440000", "120832.640000", "120833.840000", "120835.040000", "120836.240000", "120837.440000", "120838.640000", "120839.840000", "120841.040000", "120842.240000", "120843.440000", "120844.640000", "120845.840000", "120847.040000", "120848.240000", "120849.440000", "120850.640000", "120851.840000", "120853.040000", "120854.240000", "120855.440000", "120856.640000", "120857.840000", "120859.040000", "120900.240000", "120901.440000", "120902.640000", "120903.840000", "120905.040000", "120906.240000", "120907.440000", "120908.640000", "120909.840000", "120911.040000", "120912.240000", "120913.440000", "120914.640000", "120915.840000", "120917.040000", "120918.240000", "120919.440000", "120920.640000"],
      "ContentTime": ["120719.014000", "120719.017000", "120719.020000", "120719.022000", "120719.030000", "120719.033000", "120719.036000", "120719.038000", "120719.041000", "120719.043000", "120719.046000", "120719.052000", "120719.055000", "120719.057000", "120719.060000", "120719.063000", "120719.065000", "120719.068000", "120719.070000", "120719.073000", "120719.075000", "120719.078000", "120759.010000", "120759.012000", "120759.015000", "120759.017000", "120759.020000", "120759.023000", "120759.025000", "120759.028000", "120759.030000", "120759.033000", "120759.035000", "120759.038000", "120759.041000", "120759.043000", "120759.046000", "120759.048000", "120759.051000", "120759.053000", "120759.056000", "120759.058000", "120759.061000", "120759.064000", "120759.067000", "120759.069000", "120759.072000", "120759.074000", "120759.077000", "120759.079000", "120759.082000", "120759.084000", "120759.087000", "120759.097000", "120759.099000", "120839.010000", "120839.013000", "120839.016000", "120839.019000", "120839.021000", "120839.024000", "120839.027000", "120839.029000", "120839.032000", "120839.034000", "120839.037000", "120839.040000", "120839.042000", "120839.045000", "120839.048000", "120839.050000", "120839.053000", "120839.055000", "120839.058000", "120839.061000", "120839.063000", "120839.066000", "120839.069000", "120839.071000", "120839.074000", "120839.077000", "120839.079000", "120839.082000", "120839.085000", "120839.087000", "120839.090000", "120839.092000", "120839.095000", "120919.009000", "120919.012000", "120919.015000", "120919.018000", "120919.020000", "120919.023000", "120919.026000", "120919.028000", "120919.031000", "120919.034000", "120919.036000", "120919.039000", "120919.041000", "120919.048000", "120919.051000", "120919.053000", "120919.056000", "120919.058000", "120919.061000", "120919.063000", "120919.066000", "120919.068000", "120919.071000", "120919.074000", "120919.076000", "120919.079000", "120919.081000", "120919.084000", "120919.086000", "120919.089000", "120919.092000", "120919.094000", "120919.097000", "120919.099000", "120922.436000", "120922.438000", "120922.441000"],
      "InstanceCreationTime": ["120719.014000", "120719.017000", "120719.020000", "120719.022000", "120719.030000", "120719.033000", "120719.036000", "120719.038000", "120719.041000", "120719.043000", "120719.046000", "120719.052000", "120719.055000", "120719.057000", "120719.060000", "120719.063000", "120719.065000", "120719.068000", "120719.070000", "120719.073000", "120719.075000", "120719.078000", "120759.010000", "120759.012000", "120759.015000", "120759.017000", "120759.020000", "120759.023000", "120759.025000", "120759.028000", "120759.030000", "120759.033000", "120759.035000", "120759.038000", "120759.041000", "120759.043000", "120759.046000", "120759.048000", "120759.051000", "120759.053000", "120759.056000", "120759.058000", "120759.061000", "120759.064000", "120759.067000", "120759.069000", "120759.072000", "120759.074000", "120759.077000", "120759.079000", "120759.082000", "120759.084000", "120759.087000", "120759.097000", "120759.099000", "120839.010000", "120839.013000", "120839.016000", "120839.019000", "120839.021000", "120839.024000", "120839.027000", "120839.029000", "120839.032000", "120839.034000", "120839.037000", "120839.040000", "120839.042000", "120839.045000", "120839.048000", "120839.050000", "120839.053000", "120839.055000", "120839.058000", "120839.061000", "120839.063000", "120839.066000", "120839.069000", "120839.071000", "120839.074000", "120839.077000", "120839.079000", "120839.082000", "120839.085000", "120839.087000", "120839.090000", "120839.092000", "120839.095000", "120919.009000", "120919.012000", "120919.015000", "120919.018000", "120919.020000", "120919.023000", "120919.026000", "120919.028000", "120919.031000", "120919.034000", "120919.036000", "120919.039000", "120919.041000", "120919.048000", "120919.051000", "120919.053000", "120919.056000", "120919.058000", "120919.061000", "120919.063000", "120919.066000", "120919.068000", "120919.071000", "120919.074000", "120919.076000", "120919.079000", "120919.081000", "120919.084000", "120919.086000", "120919.089000", "120919.092000", "120919.094000", "120919.097000", "120919.099000", "120922.436000", "120922.438000", "120922.441000"],
      "InstanceNumber": [1, 2, 3, 4, 5, 6, 7, 8, 9, 10, 11, 12, 13, 14, 15, 16, 17, 18, 19, 20, 21, 22, 23, 24, 25, 26, 27, 28, 29, 30, 31, 32, 33, 34, 35, 36, 37, 38, 39, 40, 41, 42, 43, 44, 45, 46, 47, 48, 49, 50, 51, 52, 53, 54, 55, 56, 57, 58, 59, 60, 61, 62, 63, 64, 65, 66, 67, 68, 69, 70, 71, 72, 73, 74, 75, 76, 77, 78, 79, 80, 81, 82, 83, 84, 85, 86, 87, 88, 89, 90, 91, 92, 93, 94, 95, 96, 97, 98, 99, 100, 101, 102, 103, 104, 105, 106, 107, 108, 109, 110, 111, 112, 113, 114, 115, 116, 117, 118, 119, 120, 121, 122, 123, 124, 125],
      "LargestImagePixelValue": [3284, 3136, 3040, 3105, 3054, 3075, 3160, 3112, 3145, 3076, 2992, 2984, 2902, 2902, 2913, 2972, 2989, 2993, 3004, 3009, 2986, 2999, 2912, 2947, 2925, 2973, 3034, 3033, 3076, 3054, 3004, 2990, 3014, 3009, 2991, 2996, 2956, 2959, 2936, 2911, 2896, 2955, 3002, 2996, 2932, 2987, 3002, 2973, 2948, 3009, 3039, 3037, 3098, 3097, 3104, 3139, 3096, 3009, 3057, 3018, 3023, 2997, 3072, 3027, 3032, 3125, 3044, 3019, 3007, 2938, 2911, 2929, 2920, 2996, 2994, 2950, 2964, 2944, 2962, 2899, 2872, 2869, 2863, 2916, 2934, 2930, 2797, 2750, 2813, 2780, 2894, 2899, 2816, 2937, 2902, 3014, 3031, 2964, 2925, 2894, 2846, 2825, 2906, 2953, 2915, 2849, 2911, 2884, 2802, 2836, 2880, 2903, 2957, 3107, 3052, 3000, 2995, 2965, 3006, 2930, 3004, 3040, 3023, 3098, 3098],
      "WindowCenter": [676.0, 671.0, 669.0, 670.0, 669.0, 669.0, 669.0, 670.0, 670.0, 668.0, 665.0, 664.0, 663.0, 663.0, 663.0, 664.0, 664.0, 664.0, 664.0, 665.0, 664.0, 664.0, 663.0, 663.0, 663.0, 665.0, 667.0, 667.0, 667.0, 667.0, 666.0, 665.0, 665.0, 665.0, 665.0, 665.0, 665.0, 665.0, 664.0, 664.0, 664.0, 664.0, 665.0, 665.0, 664.0, 665.0, 666.0, 665.0, 665.0, 665.0, 666.0, 666.0, 667.0, 668.0, 668.0, 667.0, 666.0, 665.0, 665.0, 665.0, 664.0, 664.0, 665.0, 665.0, 666.0, 668.0, 667.0, 666.0, 665.0, 664.0, 664.0, 664.0, 665.0, 666.0, 666.0, 665.0, 665.0, 665.0, 664.0, 663.0, 663.0, 663.0, 663.0, 664.0, 664.0, 663.0, 662.0, 661.0, 662.0, 662.0, 663.0, 663.0, 662.0, 664.0, 664.0, 666.0, 666.0, 665.0, 664.0, 664.0, 663.0, 664.0, 664.0, 665.0, 664.0, 663.0, 664.0, 664.0, 663.0, 664.0, 666.0, 665.0, 666.0, 668.0, 666.0, 664.0, 664.0, 662.0, 662.0, 662.0, 664.0, 666.0, 665.0, 666.0, 666.0],
      "WindowWidth": [1462.0, 1449.0, 1443.0, 1445.0, 1443.0, 1444.0, 1444.0, 1445.0, 1445.0, 1441.0, 1435.0, 1430.0, 1428.0, 1428.0, 1429.0, 1431.0, 1432.0, 1432.0, 1431.0, 1432.0, 1430.0, 1431.0, 1428.0, 1429.0, 1429.0, 1433.0, 1437.0, 1437.0, 1438.0, 1437.0, 1435.0, 1434.0, 1434.0, 1434.0, 1433.0, 1433.0, 1434.0, 1432.0, 1431.0, 1431.0, 1430.0, 1432.0, 1433.0, 1433.0, 1432.0, 1434.0, 1435.0, 1433.0, 1433.0, 1433.0, 1435.0, 1436.0, 1439.0, 1439.0, 1440.0, 1438.0, 1436.0, 1432.0, 1434.0, 1433.0, 1432.0, 1431.0, 1432.0, 1434.0, 1436.0, 1439.0, 1438.0, 1435.0, 1434.0, 1432.0, 1430.0, 1432.0, 1433.0, 1434.0, 1435.0, 1433.0, 1432.0, 1432.0, 1432.0, 1428.0, 1428.0, 1429.0, 1429.0, 1431.0, 1430.0, 1428.0, 1425.0, 1424.0, 1426.0, 1426.0, 1428.0, 1428.0, 1426.0, 1431.0, 1432.0, 1436.0, 1437.0, 1433.0, 1430.0, 1430.0, 1429.0, 1430.0, 1432.0, 1432.0, 1432.0, 1429.0, 1430.0, 1430.0, 1429.0, 1432.0, 1435.0, 1434.0, 1435.0, 1439.0, 1435.0, 1431.0, 1430.0, 1427.0, 1427.0, 1427.0, 1431.0, 1435.0, 1434.0, 1436.0, 1434.0]
    },
    "slices": {}
  }
}