{
  "AcquisitionMatrixPE": 88,
  "AcquisitionNumber": 1,
  "AcquisitionTime": "11:45:56.692500",
  "BandwidthPerPixelPhaseEncode": 19.592,
  "BaseResolution": 88,
  "BodyPartExamined": "BRAIN",
  "ConsistencyInfo": "N4_VE11C_LATEST_20160120",
  "ConversionSoftware": "dcm2niix",
  "ConversionSoftwareVersion": "v1.0.20190902",
  "DerivedVendorReportedEchoSpacing": 0.000580014,
  "DeviceSerialNumber": "67050",
  "DwellTime": 2.6e-06,
  "EchoTime": 0.033,
  "EchoTrainLength": 88,
  "EffectiveEchoSpacing": 0.000580014,
  "FlipAngle": 62,
  "ImageOrientationPatientDICOM": [0.999162, 0.0322067, 0.0252737, -0.0277346, 0.986599, -0.16079],
  "ImageType": [
    "ORIGINAL",
    "PRIMARY",
    "M",
    "ND",
    "MOSAIC"
],
  "ImagingFrequency": 123.251,
  "InPlanePhaseEncodingDirectionDICOM": "COL",
  "InstitutionAddress": "Olive_Street_60_Providence_RI_US_02912",
  "InstitutionName": "BROWN_UNIVERSITY_MRF",
  "InstitutionalDepartmentName": "Department",
  "MRAcquisitionType": "2D",
  "MagneticFieldStrength": 3,
  "Manufacturer": "Siemens",
  "ManufacturersModelName": "Prisma_fit",
  "Modality": "MR",
  "MultibandAccelerationFactor": 4,
  "PartialFourier": 1,
  "PatientPosition": "HFS",
  "PercentPhaseFOV": 100,
  "PhaseEncodingDirection": "j-",
  "PhaseEncodingSteps": 88,
  "PhaseResolution": 1,
  "PixelBandwidth": 2185,
  "ProcedureStepDescription": "ASHENHAV_1222",
  "ProtocolName": "func-bold_task-RDMcolor_run-01",
  "PulseSequenceDetails": "%SiemensSeq%_ep2d_bold",
  "ReceiveCoilActiveElements": "HC1-7",
  "ReceiveCoilName": "HeadNeck_64",
  "ReconMatrixPE": 88,
  "RefLinesPE": 8,
  "RepetitionTime": 1.2,
  "SAR": 0.0518502,
  "ScanOptions": "FS",
  "ScanningSequence": "EP",
  "SequenceName": "_epfid2d1_88",
  "SequenceVariant": "SK",
  "SeriesDescription": "func-bold_task-RDMcolor_run-01",
  "SeriesNumber": 8,
  "ShimSetting": [1767, -9057, 4450, 426, -56, -141, -82, 20],
  "SliceThickness": 2.4,
  "SliceTiming": [0.55, 0, 0.6275, 0.0775, 0.7075, 0.1575, 0.785, 0.235, 0.865, 0.3125, 0.9425, 0.3925, 1.0225, 0.47, 1.1, 0.55, 0, 0.6275, 0.0775, 0.7075, 0.1575, 0.785, 0.235, 0.865, 0.3125, 0.9425, 0.3925, 1.0225, 0.47, 1.1, 0.55, 0, 0.6275, 0.0775, 0.7075, 0.1575, 0.785, 0.235, 0.865, 0.3125, 0.9425, 0.3925, 1.0225, 0.47, 1.1, 0.55, 0, 0.6275, 0.0775, 0.7075, 0.1575, 0.785, 0.235, 0.865, 0.3125, 0.9425, 0.3925, 1.0225, 0.47, 1.1],
  "SoftwareVersions": "syngo_MR_E11",
  "SpacingBetweenSlices": 2.4,
  "StationName": "AWP67050",
  "TaskName": "RDMcolor",
  "TotalReadoutTime": 0.0504612,
  "TxRefAmp": 218.178,
  "dcmmeta_affine": [
    [-2.395717144012451, -0.06649994850158691, 0.07227249443531036, 112.29190826416016],
    [-0.07722286134958267, 2.3655951023101807, -0.3838900029659271, -84.8451919555664],
    [0.060599494725465775, 0.38553038239479065, 2.3679959774017334, -72.6089859008789],
    [0.0, 0.0, 0.0, 1.0]
],
  "dcmmeta_reorient_transform": [
    [0.0, -1.0, 0.0, 87.0],
    [1.0, 0.0, 0.0, 0.0],
    [0.0, 0.0, 1.0, 0.0],
    [0.0, 0.0, 0.0, 1.0]
],
  "dcmmeta_shape": [88, 88, 60, 392],
  "dcmmeta_slice_dim": 2,
  "dcmmeta_version": 0.6,
  "global": {
    "const": {
      "AcquisitionMatrix": [88, 0, 0, 88],
      "AngioFlag": "N",
      "BitsAllocated": 16,
      "BitsStored": 12,
      "BodyPartExamined": "BRAIN",
      "Columns": 704,
      "DeidentificationMethodCodeSequence": [
        {
          "CodeMeaning": "XNAT DicomEdit 6 Script",
          "CodeValue": "3",
          "CodingSchemeDesignator": "XNAT",
          "CodingSchemeVersion": "1.0"}
],
      "EchoNumbers": 1,
      "EchoTime": 33.0,
      "EchoTrainLength": 88,
      "FlipAngle": 62.0,
      "HighBit": 11,
      "ImageOrientationPatient": [0.99916163255886, 0.03220669045964, 0.02527372374532, -0.0277345769912, 0.98659890153255, -0.1607899273396],
      "ImagePositionPatient": [-823.90528339132, -873.34950338313, 61.010875300192],
      "ImageType": [
        "ORIGINAL",
        "PRIMARY",
        "M",
        "ND",
        "MOSAIC"
],
      "ImagedNucleus": "1H",
      "ImagingFrequency": 123.250513,
      "InPlanePhaseEncodingDirection": "COL",
      "MRAcquisitionType": "2D",
      "MagneticFieldStrength": 3.0,
      "Manufacturer": "SIEMENS",
      "ManufacturerModelName": "Prisma_fit",
      "Modality": "MR",
      "NumberOfAverages": 1.0,
      "NumberOfPhaseEncodingSteps": 88,
      "PercentPhaseFieldOfView": 100.0,
      "PercentSampling": 100.0,
      "PerformedProcedureStepStartTime": "112439.776000",
      "PhotometricInterpretation": "MONOCHROME2",
      "PixelBandwidth": 2185.0,
      "PixelRepresentation": 0,
      "PixelSpacing": [2.3977272510529, 2.3977272510529],
      "ProtocolName": "func-bold_task-RDMcolor_run-01",
      "RepetitionTime": 1200.0,
      "Rows": 704,
      "SAR": 0.05185021594023,
      "SamplesPerPixel": 1,
      "ScanOptions": "FS",
      "ScanningSequence": "EP",
      "SequenceName": "*epfid2d1_88",
      "SequenceVariant": "SK",
      "SeriesDescription": "func-bold_task-RDMcolor_run-01",
      "SeriesNumber": 8,
      "SeriesTime": "114639.010000",
      "SliceLocation": -54.68789509372,
      "SliceThickness": 2.4000000953674,
      "SmallestImagePixelValue": 0,
      "SoftwareVersions": "syngo MR E11",
      "SpacingBetweenSlices": 2.3999999383085,
      "SpecificCharacterSet": "ISO_IR 100",
      "StudyID": "1",
      "StudyTime": "112439.701000",
      "TransmitCoilName": "Body",
      "VariableFlipAngleFlag": "N",
      "WindowCenterWidthExplanation": "Algo1",
      "dBdt": 0.0},
    "slices": {}
  },
  "time": {
    "samples": {
      "AcquisitionNumber": [1, 2, 3, 4, 5, 6, 7, 8, 9, 10, 11, 12, 13, 14, 15, 16, 17, 18, 19, 20, 21, 22, 23, 24, 25, 26, 27, 28, 29, 30, 31, 32, 33, 34, 35, 36, 37, 38, 39, 40, 41, 42, 43, 44, 45, 46, 47, 48, 49, 50, 51, 52, 53, 54, 55, 56, 57, 58, 59, 60, 61, 62, 63, 64, 65, 66, 67, 68, 69, 70, 71, 72, 73, 74, 75, 76, 77, 78, 79, 80, 81, 82, 83, 84, 85, 86, 87, 88, 89, 90, 91, 92, 93, 94, 95, 96, 97, 98, 99, 100, 101, 102, 103, 104, 105, 106, 107, 108, 109, 110, 111, 112, 113, 114, 115, 116, 117, 118, 119, 120, 121, 122, 123, 124, 125, 126, 127, 128, 129, 130, 131, 132, 133, 134, 135, 136, 137, 138, 139, 140, 141, 142, 143, 144, 145, 146, 147, 148, 149, 150, 151, 152, 153, 154, 155, 156, 157, 158, 159, 160, 161, 162, 163, 164, 165, 166, 167, 168, 169, 170, 171, 172, 173, 174, 175, 176, 177, 178, 179, 180, 181, 182, 183, 184, 185, 186, 187, 188, 189, 190, 191, 192, 193, 194, 195, 196, 197, 198, 199, 200, 201, 202, 203, 204, 205, 206, 207, 208, 209, 210, 211, 212, 213, 214, 215, 216, 217, 218, 219, 220, 221, 222, 223, 224, 225, 226, 227, 228, 229, 230, 231, 232, 233, 234, 235, 236, 237, 238, 239, 240, 241, 242, 243, 244, 245, 246, 247, 248, 249, 250, 251, 252, 253, 254, 255, 256, 257, 258, 259, 260, 261, 262, 263, 264, 265, 266, 267, 268, 269, 270, 271, 272, 273, 274, 275, 276, 277, 278, 279, 280, 281, 282, 283, 284, 285, 286, 287, 288, 289, 290, 291, 292, 293, 294, 295, 296, 297, 298, 299, 300, 301, 302, 303, 304, 305, 306, 307, 308, 309, 310, 311, 312, 313, 314, 315, 316, 317, 318, 319, 320, 321, 322, 323, 324, 325, 326, 327, 328, 329, 330, 331, 332, 333, 334, 335, 336, 337, 338, 339, 340, 341, 342, 343, 344, 345, 346, 347, 348, 349, 350, 351, 352, 353, 354, 355, 356, 357, 358, 359, 360, 361, 362, 363, 364, 365, 366, 367, 368, 369, 370, 371, 372, 373, 374, 375, 376, 377, 378, 379, 380, 381, 382, 383, 384, 385, 386, 387, 388, 389, 390, 391, 392],
      "AcquisitionTime": ["114556.692500", "114557.892500", "114559.092500", "114600.292500", "114601.492500", "114602.692500", "114603.892500", "114605.092500", "114606.292500", "114607.492500", "114608.692500", "114609.892500", "114611.092500", "114612.292500", "114613.492500", "114614.692500", "114615.892500", "114617.092500", "114618.292500", "114619.492500", "114620.692500", "114621.892500", "114623.092500", "114624.292500", "114625.492500", "114626.692500", "114627.892500", "114629.092500", "114630.292500", "114631.492500", "114632.692500", "114633.892500", "114635.092500", "114636.292500", "114637.492500", "114638.692500", "114639.892500", "114641.092500", "114642.292500", "114643.492500", "114644.692500", "114645.892500", "114647.092500", "114648.292500", "114649.492500", "114650.692500", "114651.892500", "114653.092500", "114654.292500", "114655.492500", "114656.692500", "114657.892500", "114659.092500", "114700.292500", "114701.492500", "114702.692500", "114703.892500", "114705.092500", "114706.292500", "114707.492500", "114708.692500", "114709.892500", "114711.092500", "114712.292500", "114713.492500", "114714.692500", "114715.892500", "114717.092500", "114718.292500", "114719.492500", "114720.692500", "114721.892500", "114723.092500", "114724.292500", "114725.492500", "114726.692500", "114727.892500", "114729.092500", "114730.292500", "114731.492500", "114732.692500", "114733.892500", "114735.092500", "114736.292500", "114737.492500", "114738.692500", "114739.892500", "114741.092500", "114742.292500", "114743.492500", "114744.692500", "114745.892500", "114747.092500", "114748.292500", "114749.492500", "114750.692500", "114751.892500", "114753.092500", "114754.292500", "114755.492500", "114756.692500", "114757.892500", "114759.092500", "114800.292500", "114801.492500", "114802.692500", "114803.892500", "114805.092500", "114806.292500", "114807.492500", "114808.692500", "114809.892500", "114811.092500", "114812.292500", "114813.492500", "114814.692500", "114815.892500", "114817.092500", "114818.292500", "114819.492500", "114820.692500", "114821.892500", "114823.092500", "114824.292500", "114825.492500", "114826.692500", "114827.892500", "114829.092500", "114830.292500", "114831.492500", "114832.692500", "114833.892500", "114835.092500", "114836.292500", "114837.492500", "114838.692500", "114839.892500", "114841.092500", "114842.292500", "114843.492500", "114844.692500", "114845.892500", "114847.092500", "114848.292500", "114849.492500", "114850.692500", "114851.892500", "114853.092500", "114854.292500", "114855.492500", "114856.692500", "114857.892500", "114859.092500", "114900.292500", "114901.492500", "114902.692500", "114903.892500", "114905.092500", "114906.292500", "114907.492500", "114908.692500", "114909.892500", "114911.092500", "114912.292500", "114913.492500", "114914.692500", "114915.892500", "114917.092500", "114918.292500", "114919.492500", "114920.692500", "114921.892500", "114923.092500", "114924.292500", "114925.492500", "114926.692500", "114927.892500", "114929.092500", "114930.292500", "114931.492500", "114932.692500", "114933.892500", "114935.092500", "114936.292500", "114937.492500", "114938.692500", "114939.892500", "114941.092500", "114942.292500", "114943.492500", "114944.692500", "114945.892500", "114947.092500", "114948.292500", "114949.492500", "114950.692500", "114951.892500", "114953.092500", "114954.292500", "114955.492500", "114956.692500", "114957.892500", "114959.092500", "115000.292500", "115001.492500", "115002.692500", "115003.892500", "115005.092500", "115006.292500", "115007.492500", "115008.692500", "115009.892500", "115011.092500", "115012.292500", "115013.492500", "115014.692500", "115015.892500", "115017.092500", "115018.292500", "115019.492500", "115020.692500", "115021.892500", "115023.092500", "115024.292500", "115025.492500", "115026.692500", "115027.892500", "115029.092500", "115030.292500", "115031.492500", "115032.692500", "115033.892500", "115035.092500", "115036.292500", "115037.492500", "115038.692500", "115039.892500", "115041.092500", "115042.292500", "115043.492500", "115044.692500", "115045.892500", "115047.092500", "115048.292500", "115049.492500", "115050.692500", "115051.892500", "115053.092500", "115054.292500", "115055.492500", "115056.692500", "115057.892500", "115059.092500", "115100.292500", "115101.492500", "115102.692500", "115103.892500", "115105.092500", "115106.292500", "115107.492500", "115108.692500", "115109.892500", "115111.092500", "115112.292500", "115113.492500", "115114.692500", "115115.892500", "115117.092500", "115118.292500", "115119.492500", "115120.692500", "115121.892500", "115123.092500", "115124.292500", "115125.492500", "115126.692500", "115127.892500", "115129.092500", "115130.292500", "115131.492500", "115132.692500", "115133.892500", "115135.092500", "115136.292500", "115137.492500", "115138.692500", "115139.892500", "115141.092500", "115142.292500", "115143.492500", "115144.692500", "115145.892500", "115147.092500", "115148.292500", "115149.492500", "115150.692500", "115151.892500", "115153.092500", "115154.292500", "115155.492500", "115156.692500", "115157.892500", "115159.092500", "115200.292500", "115201.492500", "115202.692500", "115203.892500", "115205.092500", "115206.292500", "115207.492500", "115208.692500", "115209.892500", "115211.092500", "115212.292500", "115213.492500", "115214.692500", "115215.892500", "115217.092500", "115218.292500", "115219.492500", "115220.692500", "115221.892500", "115223.092500", "115224.292500", "115225.492500", "115226.692500", "115227.892500", "115229.092500", "115230.292500", "115231.492500", "115232.692500", "115233.892500", "115235.092500", "115236.292500", "115237.492500", "115238.692500", "115239.892500", "115241.092500", "115242.292500", "115243.492500", "115244.692500", "115245.892500", "115247.092500", "115248.292500", "115249.492500", "115250.692500", "115251.892500", "115253.092500", "115254.292500", "115255.492500", "115256.692500", "115257.892500", "115259.092500", "115300.292500", "115301.492500", "115302.692500", "115303.892500", "115305.092500", "115306.292500", "115307.492500", "115308.692500", "115309.892500", "115311.092500", "115312.292500", "115313.492500", "115314.692500", "115315.892500", "115317.092500", "115318.292500", "115319.492500", "115320.692500", "115321.892500", "115323.092500", "115324.292500", "115325.492500", "115326.692500", "115327.892500", "115329.092500", "115330.292500", "115331.492500", "115332.692500", "115333.892500", "115335.092500", "115336.292500", "115337.492500", "115338.692500", "115339.892500", "115341.092500", "115342.292500", "115343.492500", "115344.692500", "115345.892500"],
      "ContentTime": ["114639.014000", "114639.017000", "114639.020000", "114639.023000", "114639.025000", "114639.028000", "114639.030000", "114639.033000", "114639.035000", "114639.038000", "114639.040000", "114639.043000", "114639.045000", "114639.048000", "114639.050000", "114639.053000", "114639.056000", "114639.061000", "114639.064000", "114639.067000", "114639.069000", "114639.072000", "114639.074000", "114639.082000", "114639.085000", "114639.087000", "114639.090000", "114639.093000", "114639.095000", "114639.098000", "114639.100000", "114639.103000", "114639.105000", "114639.108000", "114719.011000", "114719.013000", "114719.016000", "114719.018000", "114719.021000", "114719.024000", "114719.026000", "114719.029000", "114719.031000", "114719.034000", "114719.036000", "114719.039000", "114719.041000", "114719.044000", "114719.046000", "114719.049000", "114719.051000", "114719.054000", "114719.057000", "114719.068000", "114719.070000", "114719.073000", "114719.075000", "114719.096000", "114719.098000", "114719.101000", "114719.104000", "114719.106000", "114719.109000", "114719.111000", "114719.114000", "114719.117000", "114719.119000", "114719.122000", "114759.009000", "114759.012000", "114759.015000", "114759.026000", "114759.029000", "114759.031000", "114759.034000", "114759.037000", "114759.039000", "114759.042000", "114759.044000", "114759.047000", "114759.049000", "114759.052000", "114759.055000", "114759.057000", "114759.060000", "114759.062000", "114759.065000", "114759.067000", "114759.070000", "114759.073000", "114759.075000", "114759.078000", "114759.080000", "114759.083000", "114759.086000", "114759.088000", "114759.091000", "114759.093000", "114759.096000", "114759.098000", "114759.101000", "114839.009000", "114839.012000", "114839.015000", "114839.017000", "114839.020000", "114839.023000", "114839.025000", "114839.028000", "114839.031000", "114839.033000", "114839.036000", "114839.038000", "114839.041000", "114839.043000", "114839.046000", "114839.049000", "114839.051000", "114839.054000", "114839.057000", "114839.059000", "114839.062000", "114839.064000", "114839.067000", "114839.069000", "114839.072000", "114839.074000", "114839.077000", "114839.079000", "114839.082000", "114839.085000", "114839.106000", "114839.108000", "114839.111000", "114919.009000", "114919.012000", "114919.015000", "114919.018000", "114919.020000", "114919.023000", "114919.025000", "114919.028000", "114919.031000", "114919.033000", "114919.036000", "114919.038000", "114919.041000", "114919.044000", "114919.046000", "114919.049000", "114919.051000", "114919.054000", "114919.056000", "114919.059000", "114919.062000", "114919.064000", "114919.067000", "114919.070000", "114919.072000", "114919.075000", "114919.077000", "114919.080000", "114919.083000", "114919.085000", "114919.088000", "114919.090000", "114919.093000", "114919.095000", "114959.011000", "114959.013000", "114959.016000", "114959.025000", "114959.028000", "114959.030000", "114959.033000", "114959.036000", "114959.038000", "114959.041000", "114959.043000", "114959.046000", "114959.048000", "114959.051000", "114959.054000", "114959.056000", "114959.059000", "114959.061000", "114959.064000", "114959.067000", "114959.069000", "114959.072000", "114959.074000", "114959.077000", "114959.080000", "114959.082000", "114959.085000", "114959.087000", "114959.090000", "114959.093000", "114959.095000", "114959.098000", "114959.100000", "115039.010000", "115039.012000", "115039.015000", "115039.018000", "115039.020000", "115039.023000", "115039.026000", "115039.028000", "115039.031000", "115039.034000", "115039.036000", "115039.039000", "115039.041000", "115039.044000", "115039.046000", "115039.049000", "115039.052000", "115039.054000", "115039.062000", "115039.065000", "115039.067000", "115039.070000", "115039.073000", "115039.075000", "115039.078000", "115039.080000", "115039.083000", "115039.086000", "115039.088000", "115039.091000", "115039.094000", "115039.096000", "115039.099000", "115119.010000", "115119.013000", "115119.015000", "115119.018000", "115119.020000", "115119.023000", "115119.026000", "115119.028000", "115119.031000", "115119.034000", "115119.036000", "115119.039000", "115119.041000", "115119.044000", "115119.046000", "115119.049000", "115119.052000", "115119.055000", "115119.057000", "115119.060000", "115119.062000", "115119.065000", "115119.068000", "115119.070000", "115119.073000", "115119.075000", "115119.078000", "115119.081000", "115119.083000", "115119.086000", "115119.089000", "115119.091000", "115119.094000", "115119.096000", "115159.011000", "115159.014000", "115159.016000", "115159.019000", "115159.021000", "115159.024000", "115159.027000", "115159.029000", "115159.032000", "115159.035000", "115159.037000", "115159.040000", "115159.042000", "115159.045000", "115159.047000", "115159.050000", "115159.053000", "115159.055000", "115159.058000", "115159.061000", "115159.063000", "115159.066000", "115159.068000", "115159.071000", "115159.074000", "115159.076000", "115159.079000", "115159.081000", "115159.084000", "115159.087000", "115159.089000", "115159.092000", "115159.095000", "115239.010000", "115239.013000", "115239.015000", "115239.018000", "115239.021000", "115239.023000", "115239.026000", "115239.028000", "115239.031000", "115239.034000", "115239.036000", "115239.039000", "115239.042000", "115239.063000", "115239.065000", "115239.077000", "115239.080000", "115239.083000", "115239.085000", "115239.088000", "115239.090000", "115239.093000", "115239.096000", "115239.098000", "115239.101000", "115239.104000", "115239.106000", "115239.109000", "115239.111000", "115239.114000", "115239.117000", "115239.119000", "115239.122000", "115319.010000", "115319.012000", "115319.015000", "115319.018000", "115319.020000", "115319.023000", "115319.026000", "115319.028000", "115319.031000", "115319.033000", "115319.036000", "115319.039000", "115319.041000", "115319.044000", "115319.046000", "115319.050000", "115319.052000", "115319.055000", "115319.057000", "115319.065000", "115319.067000", "115319.070000", "115319.073000", "115319.075000", "115319.078000", "115319.080000", "115319.083000", "115319.086000", "115319.088000", "115319.091000", "115319.093000", "115319.096000", "115319.099000", "115319.101000", "115347.690000", "115347.693000", "115347.695000", "115347.698000", "115347.701000", "115347.703000", "115347.706000", "115347.709000", "115347.711000", "115347.714000", "115347.717000", "115347.719000", "115347.722000", "115347.725000", "115347.727000", "115347.730000", "115347.732000", "115347.735000", "115347.738000", "115347.740000", "115347.743000", "115347.745000", "115347.748000", "115347.751000"],
      "InstanceCreationTime": ["114639.014000", "114639.017000", "114639.020000", "114639.023000", "114639.025000", "114639.028000", "114639.030000", "114639.033000", "114639.035000", "114639.038000", "114639.040000", "114639.043000", "114639.045000", "114639.048000", "114639.050000", "114639.053000", "114639.056000", "114639.061000", "114639.064000", "114639.067000", "114639.069000", "114639.072000", "114639.074000", "114639.082000", "114639.085000", "114639.087000", "114639.090000", "114639.093000", "114639.095000", "114639.098000", "114639.100000", "114639.103000", "114639.105000", "114639.108000", "114719.011000", "114719.013000", "114719.016000", "114719.018000", "114719.021000", "114719.024000", "114719.026000", "114719.029000", "114719.031000", "114719.034000", "114719.036000", "114719.039000", "114719.041000", "114719.044000", "114719.046000", "114719.049000", "114719.051000", "114719.054000", "114719.057000", "114719.068000", "114719.070000", "114719.073000", "114719.075000", "114719.096000", "114719.098000", "114719.101000", "114719.104000", "114719.106000", "114719.109000", "114719.111000", "114719.114000", "114719.117000", "114719.119000", "114719.122000", "114759.009000", "114759.012000", "114759.015000", "114759.026000", "114759.029000", "114759.031000", "114759.034000", "114759.037000", "114759.039000", "114759.042000", "114759.044000", "114759.047000", "114759.049000", "114759.052000", "114759.055000", "114759.057000", "114759.060000", "114759.062000", "114759.065000", "114759.067000", "114759.070000", "114759.073000", "114759.075000", "114759.078000", "114759.080000", "114759.083000", "114759.086000", "114759.088000", "114759.091000", "114759.093000", "114759.096000", "114759.098000", "114759.101000", "114839.009000", "114839.012000", "114839.015000", "114839.017000", "114839.020000", "114839.023000", "114839.025000", "114839.028000", "114839.031000", "114839.033000", "114839.036000", "114839.038000", "114839.041000", "114839.043000", "114839.046000", "114839.049000", "114839.051000", "114839.054000", "114839.057000", "114839.059000", "114839.062000", "114839.064000", "114839.067000", "114839.069000", "114839.072000", "114839.074000", "114839.077000", "114839.079000", "114839.082000", "114839.085000", "114839.106000", "114839.108000", "114839.111000", "114919.009000", "114919.012000", "114919.015000", "114919.018000", "114919.020000", "114919.023000", "114919.025000", "114919.028000", "114919.031000", "114919.033000", "114919.036000", "114919.038000", "114919.041000", "114919.044000", "114919.046000", "114919.049000", "114919.051000", "114919.054000", "114919.056000", "114919.059000", "114919.062000", "114919.064000", "114919.067000", "114919.070000", "114919.072000", "114919.075000", "114919.077000", "114919.080000", "114919.083000", "114919.085000", "114919.088000", "114919.090000", "114919.093000", "114919.095000", "114959.011000", "114959.013000", "114959.016000", "114959.025000", "114959.028000", "114959.030000", "114959.033000", "114959.036000", "114959.038000", "114959.041000", "114959.043000", "114959.046000", "114959.048000", "114959.051000", "114959.054000", "114959.056000", "114959.059000", "114959.061000", "114959.064000", "114959.067000", "114959.069000", "114959.072000", "114959.074000", "114959.077000", "114959.080000", "114959.082000", "114959.085000", "114959.087000", "114959.090000", "114959.093000", "114959.095000", "114959.098000", "114959.100000", "115039.010000", "115039.012000", "115039.015000", "115039.018000", "115039.020000", "115039.023000", "115039.026000", "115039.028000", "115039.031000", "115039.034000", "115039.036000", "115039.039000", "115039.041000", "115039.044000", "115039.046000", "115039.049000", "115039.052000", "115039.054000", "115039.062000", "115039.065000", "115039.067000", "115039.070000", "115039.073000", "115039.075000", "115039.078000", "115039.080000", "115039.083000", "115039.086000", "115039.088000", "115039.091000", "115039.094000", "115039.096000", "115039.099000", "115119.010000", "115119.013000", "115119.015000", "115119.018000", "115119.020000", "115119.023000", "115119.026000", "115119.028000", "115119.031000", "115119.034000", "115119.036000", "115119.039000", "115119.041000", "115119.044000", "115119.046000", "115119.049000", "115119.052000", "115119.055000", "115119.057000", "115119.060000", "115119.062000", "115119.065000", "115119.068000", "115119.070000", "115119.073000", "115119.075000", "115119.078000", "115119.081000", "115119.083000", "115119.086000", "115119.089000", "115119.091000", "115119.094000", "115119.096000", "115159.011000", "115159.014000", "115159.016000", "115159.019000", "115159.021000", "115159.024000", "115159.027000", "115159.029000", "115159.032000", "115159.035000", "115159.037000", "115159.040000", "115159.042000", "115159.045000", "115159.047000", "115159.050000", "115159.053000", "115159.055000", "115159.058000", "115159.061000", "115159.063000", "115159.066000", "115159.068000", "115159.071000", "115159.074000", "115159.076000", "115159.079000", "115159.081000", "115159.084000", "115159.087000", "115159.089000", "115159.092000", "115159.095000", "115239.010000", "115239.013000", "115239.015000", "115239.018000", "115239.021000", "115239.023000", "115239.026000", "115239.028000", "115239.031000", "115239.034000", "115239.036000", "115239.039000", "115239.042000", "115239.063000", "115239.065000", "115239.077000", "115239.080000", "115239.083000", "115239.085000", "115239.088000", "115239.090000", "115239.093000", "115239.096000", "115239.098000", "115239.101000", "115239.104000", "115239.106000", "115239.109000", "115239.111000", "115239.114000", "115239.117000", "115239.119000", "115239.122000", "115319.010000", "115319.012000", "115319.015000", "115319.018000", "115319.020000", "115319.023000", "115319.026000", "115319.028000", "115319.031000", "115319.033000", "115319.036000", "115319.039000", "115319.041000", "115319.044000", "115319.046000", "115319.050000", "115319.052000", "115319.055000", "115319.057000", "115319.065000", "115319.067000", "115319.070000", "115319.073000", "115319.075000", "115319.078000", "115319.080000", "115319.083000", "115319.086000", "115319.088000", "115319.091000", "115319.093000", "115319.096000", "115319.099000", "115319.101000", "115347.690000", "115347.693000", "115347.695000", "115347.698000", "115347.701000", "115347.703000", "115347.706000", "115347.709000", "115347.711000", "115347.714000", "115347.717000", "115347.719000", "115347.722000", "115347.725000", "115347.727000", "115347.730000", "115347.732000", "115347.735000", "115347.738000", "115347.740000", "115347.743000", "115347.745000", "115347.748000", "115347.751000"],
      "InstanceNumber": [1, 2, 3, 4, 5, 6, 7, 8, 9, 10, 11, 12, 13, 14, 15, 16, 17, 18, 19, 20, 21, 22, 23, 24, 25, 26, 27, 28, 29, 30, 31, 32, 33, 34, 35, 36, 37, 38, 39, 40, 41, 42, 43, 44, 45, 46, 47, 48, 49, 50, 51, 52, 53, 54, 55, 56, 57, 58, 59, 60, 61, 62, 63, 64, 65, 66, 67, 68, 69, 70, 71, 72, 73, 74, 75, 76, 77, 78, 79, 80, 81, 82, 83, 84, 85, 86, 87, 88, 89, 90, 91, 92, 93, 94, 95, 96, 97, 98, 99, 100, 101, 102, 103, 104, 105, 106, 107, 108, 109, 110, 111, 112, 113, 114, 115, 116, 117, 118, 119, 120, 121, 122, 123, 124, 125, 126, 127, 128, 129, 130, 131, 132, 133, 134, 135, 136, 137, 138, 139, 140, 141, 142, 143, 144, 145, 146, 147, 148, 149, 150, 151, 152, 153, 154, 155, 156, 157, 158, 159, 160, 161, 162, 163, 164, 165, 166, 167, 168, 169, 170, 171, 172, 173, 174, 175, 176, 177, 178, 179, 180, 181, 182, 183, 184, 185, 186, 187, 188, 189, 190, 191, 192, 193, 194, 195, 196, 197, 198, 199, 200, 201, 202, 203, 204, 205, 206, 207, 208, 209, 210, 211, 212, 213, 214, 215, 216, 217, 218, 219, 220, 221, 222, 223, 224, 225, 226, 227, 228, 229, 230, 231, 232, 233, 234, 235, 236, 237, 238, 239, 240, 241, 242, 243, 244, 245, 246, 247, 248, 249, 250, 251, 252, 253, 254, 255, 256, 257, 258, 259, 260, 261, 262, 263, 264, 265, 266, 267, 268, 269, 270, 271, 272, 273, 274, 275, 276, 277, 278, 279, 280, 281, 282, 283, 284, 285, 286, 287, 288, 289, 290, 291, 292, 293, 294, 295, 296, 297, 298, 299, 300, 301, 302, 303, 304, 305, 306, 307, 308, 309, 310, 311, 312, 313, 314, 315, 316, 317, 318, 319, 320, 321, 322, 323, 324, 325, 326, 327, 328, 329, 330, 331, 332, 333, 334, 335, 336, 337, 338, 339, 340, 341, 342, 343, 344, 345, 346, 347, 348, 349, 350, 351, 352, 353, 354, 355, 356, 357, 358, 359, 360, 361, 362, 363, 364, 365, 366, 367, 368, 369, 370, 371, 372, 373, 374, 375, 376, 377, 378, 379, 380, 381, 382, 383, 384, 385, 386, 387, 388, 389, 390, 391, 392],
