{
  "AcquisitionMatrixPE": 88,
  "AcquisitionNumber": 1,
  "AcquisitionTime": "12:22:21.945000",
  "BandwidthPerPixelPhaseEncode": 19.592,
  "BaseResolution": 88,
  "BodyPartExamined": "BRAIN",
  "ConsistencyInfo": "N4_VE11C_LATEST_20160120",
  "ConversionSoftware": "dcm2niix",
  "ConversionSoftwareVersion": "v1.0.20190902",
  "DerivedVendorReportedEchoSpacing": 0.000580014,
  "DeviceSerialNumber": "67050",
  "DwellTime": 2.6e-06,
  "EchoTime": 0.033,
  "EchoTrainLength": 88,
  "EffectiveEchoSpacing": 0.000580014,
  "FlipAngle": 62,
  "ImageOrientationPatientDICOM": [0.999162, 0.0322067, 0.0252737, -0.0277346, 0.986599, -0.16079],
  "ImageType": [
    "ORIGINAL",
    "PRIMARY",
    "M",
    "ND",
    "MOSAIC"
],
  "ImagingFrequency": 123.251,
  "InPlanePhaseEncodingDirectionDICOM": "COL",
  "InstitutionAddress": "Olive_Street_60_Providence_RI_US_02912",
  "InstitutionName": "BROWN_UNIVERSITY_MRF",
  "InstitutionalDepartmentName": "Department",
  "MRAcquisitionType": "2D",
  "MagneticFieldStrength": 3,
  "Manufacturer": "Siemens",
  "ManufacturersModelName": "Prisma_fit",
  "Modality": "MR",
  "MultibandAccelerationFactor": 4,
  "PartialFourier": 1,
  "PatientPosition": "HFS",
  "PercentPhaseFOV": 100,
  "PhaseEncodingDirection": "j-",
  "PhaseEncodingSteps": 88,
  "PhaseResolution": 1,
  "PixelBandwidth": 2185,
  "ProcedureStepDescription": "ASHENHAV_1222",
  "ProtocolName": "func-bold_task-RDMcolor_run-04",
  "PulseSequenceDetails": "%SiemensSeq%_ep2d_bold",
  "ReceiveCoilActiveElements": "HC1-7",
  "ReceiveCoilName": "HeadNeck_64",
  "ReconMatrixPE": 88,
  "RefLinesPE": 8,
  "RepetitionTime": 1.2,
  "SAR": 0.0518502,
  "ScanOptions": "FS",
  "ScanningSequence": "EP",
  "SequenceName": "_epfid2d1_88",
  "SequenceVariant": "SK",
  "SeriesDescription": "func-bold_task-RDMcolor_run-04",
  "SeriesNumber": 14,
  "ShimSetting": [1767, -9057, 4450, 426, -56, -141, -82, 20],
  "SliceThickness": 2.4,
  "SliceTiming": [0.55, 0, 0.63, 0.08, 0.7075, 0.1575, 0.7875, 0.2375, 0.865, 0.315, 0.945, 0.395, 1.0225, 0.4725, 1.1025, 0.55, 0, 0.63, 0.08, 0.7075, 0.1575, 0.7875, 0.2375, 0.865, 0.315, 0.945, 0.395, 1.0225, 0.4725, 1.1025, 0.55, 0, 0.63, 0.08, 0.7075, 0.1575, 0.7875, 0.2375, 0.865, 0.315, 0.945, 0.395, 1.0225, 0.4725, 1.1025, 0.55, 0, 0.63, 0.08, 0.7075, 0.1575, 0.7875, 0.2375, 0.865, 0.315, 0.945, 0.395, 1.0225, 0.4725, 1.1025],
  "SoftwareVersions": "syngo_MR_E11",
  "SpacingBetweenSlices": 2.4,
  "StationName": "AWP67050",
  "TaskName": "RDMcolor",
  "TotalReadoutTime": 0.0504612,
  "TxRefAmp": 218.178,
  "dcmmeta_affine": [
    [-2.395717144012451, -0.06649994850158691, 0.07227249443531036, 112.29190826416016],
    [-0.07722286134958267, 2.3655951023101807, -0.3838900029659271, -84.8451919555664],
    [0.060599494725465775, 0.38553038239479065, 2.3679959774017334, -72.6089859008789],
    [0.0, 0.0, 0.0, 1.0]
],
  "dcmmeta_reorient_transform": [
    [0.0, -1.0, 0.0, 87.0],
    [1.0, 0.0, 0.0, 0.0],
    [0.0, 0.0, 1.0, 0.0],
    [0.0, 0.0, 0.0, 1.0]
],
  "dcmmeta_shape": [88, 88, 60, 392],
  "dcmmeta_slice_dim": 2,
  "dcmmeta_version": 0.6,
  "global": {
    "const": {
      "AcquisitionMatrix": [88, 0, 0, 88],
      "AngioFlag": "N",
      "BitsAllocated": 16,
      "BitsStored": 12,
      "BodyPartExamined": "BRAIN",
      "Columns": 704,
      "DeidentificationMethodCodeSequence": [
        {
          "CodeMeaning": "XNAT DicomEdit 6 Script",
          "CodeValue": "3",
          "CodingSchemeDesignator": "XNAT",
          "CodingSchemeVersion": "1.0"}
],
      "EchoNumbers": 1,
      "EchoTime": 33.0,
      "EchoTrainLength": 88,
      "FlipAngle": 62.0,
      "HighBit": 11,
      "ImageOrientationPatient": [0.99916163255886, 0.03220669045964, 0.02527372374532, -0.0277345769912, 0.98659890153255, -0.1607899273396],
      "ImagePositionPatient": [-823.90528339132, -873.34950338313, 61.010875300192],
      "ImageType": [
        "ORIGINAL",
        "PRIMARY",
        "M",
        "ND",
        "MOSAIC"
],
      "ImagedNucleus": "1H",
      "ImagingFrequency": 123.250519,
      "InPlanePhaseEncodingDirection": "COL",
      "MRAcquisitionType": "2D",
      "MagneticFieldStrength": 3.0,
      "Manufacturer": "SIEMENS",
      "ManufacturerModelName": "Prisma_fit",
      "Modality": "MR",
      "NumberOfAverages": 1.0,
      "NumberOfPhaseEncodingSteps": 88,
      "PercentPhaseFieldOfView": 100.0,
      "PercentSampling": 100.0,
      "PerformedProcedureStepStartTime": "112439.776000",
      "PhotometricInterpretation": "MONOCHROME2",
      "PixelBandwidth": 2185.0,
      "PixelRepresentation": 0,
      "PixelSpacing": [2.3977272510529, 2.3977272510529],
      "ProtocolName": "func-bold_task-RDMcolor_run-04",
      "RepetitionTime": 1200.0,
      "Rows": 704,
      "SAR": 0.05185021594023,
      "SamplesPerPixel": 1,
      "ScanOptions": "FS",
      "ScanningSequence": "EP",
      "SequenceName": "*epfid2d1_88",
      "SequenceVariant": "SK",
      "SeriesDescription": "func-bold_task-RDMcolor_run-04",
      "SeriesNumber": 14,
      "SeriesTime": "122259.011000",
      "SliceLocation": -54.68789509372,
      "SliceThickness": 2.4000000953674,
      "SmallestImagePixelValue": 0,
      "SoftwareVersions": "syngo MR E11",
      "SpacingBetweenSlices": 2.3999999383085,
      "SpecificCharacterSet": "ISO_IR 100",
      "StudyID": "1",
      "StudyTime": "112439.701000",
      "TransmitCoilName": "Body",
      "VariableFlipAngleFlag": "N",
      "WindowCenterWidthExplanation": "Algo1",
      "dBdt": 0.0},
    "slices": {}
  },
  "time": {
    "samples": {
      "AcquisitionNumber": [1, 2, 3, 4, 5, 6, 7, 8, 9, 10, 11, 12, 13, 14, 15, 16, 17, 18, 19, 20, 21, 22, 23, 24, 25, 26, 27, 28, 29, 30, 31, 32, 33, 34, 35, 36, 37, 38, 39, 40, 41, 42, 43, 44, 45, 46, 47, 48, 49, 50, 51, 52, 53, 54, 55, 56, 57, 58, 59, 60, 61, 62, 63, 64, 65, 66, 67, 68, 69, 70, 71, 72, 73, 74, 75, 76, 77, 78, 79, 80, 81, 82, 83, 84, 85, 86, 87, 88, 89, 90, 91, 92, 93, 94, 95, 96, 97, 98, 99, 100, 101, 102, 103, 104, 105, 106, 107, 108, 109, 110, 111, 112, 113, 114, 115, 116, 117, 118, 119, 120, 121, 122, 123, 124, 125, 126, 127, 128, 129, 130, 131, 132, 133, 134, 135, 136, 137, 138, 139, 140, 141, 142, 143, 144, 145, 146, 147, 148, 149, 150, 151, 152, 153, 154, 155, 156, 157, 158, 159, 160, 161, 162, 163, 164, 165, 166, 167, 168, 169, 170, 171, 172, 173, 174, 175, 176, 177, 178, 179, 180, 181, 182, 183, 184, 185, 186, 187, 188, 189, 190, 191, 192, 193, 194, 195, 196, 197, 198, 199, 200, 201, 202, 203, 204, 205, 206, 207, 208, 209, 210, 211, 212, 213, 214, 215, 216, 217, 218, 219, 220, 221, 222, 223, 224, 225, 226, 227, 228, 229, 230, 231, 232, 233, 234, 235, 236, 237, 238, 239, 240, 241, 242, 243, 244, 245, 246, 247, 248, 249, 250, 251, 252, 253, 254, 255, 256, 257, 258, 259, 260, 261, 262, 263, 264, 265, 266, 267, 268, 269, 270, 271, 272, 273, 274, 275, 276, 277, 278, 279, 280, 281, 282, 283, 284, 285, 286, 287, 288, 289, 290, 291, 292, 293, 294, 295, 296, 297, 298, 299, 300, 301, 302, 303, 304, 305, 306, 307, 308, 309, 310, 311, 312, 313, 314, 315, 316, 317, 318, 319, 320, 321, 322, 323, 324, 325, 326, 327, 328, 329, 330, 331, 332, 333, 334, 335, 336, 337, 338, 339, 340, 341, 342, 343, 344, 345, 346, 347, 348, 349, 350, 351, 352, 353, 354, 355, 356, 357, 358, 359, 360, 361, 362, 363, 364, 365, 366, 367, 368, 369, 370, 371, 372, 373, 374, 375, 376, 377, 378, 379, 380, 381, 382, 383, 384, 385, 386, 387, 388, 389, 390, 391, 392],
      "AcquisitionTime": ["122221.945000", "122223.145000", "122224.345000", "122225.545000", "122226.745000", "122227.945000", "122229.145000", "122230.345000", "122231.545000", "122232.745000", "122233.945000", "122235.145000", "122236.345000", "122237.545000", "122238.745000", "122239.945000", "122241.145000", "122242.345000", "122243.545000", "122244.745000", "122245.945000", "122247.145000", "122248.345000", "122249.545000", "122250.745000", "122251.945000", "122253.145000", "122254.345000", "122255.545000", "122256.745000", "122257.945000", "122259.145000", "122300.345000", "122301.545000", "122302.745000", "122303.945000", "122305.145000", "122306.345000", "122307.545000", "122308.745000", "122309.945000", "122311.145000", "122312.345000", "122313.545000", "122314.745000", "122315.945000", "122317.145000", "122318.345000", "122319.545000", "122320.745000", "122321.945000", "122323.145000", "122324.345000", "122325.545000", "122326.745000", "122327.945000", "122329.145000", "122330.345000", "122331.545000", "122332.745000", "122333.945000", "122335.145000", "122336.345000", "122337.545000", "122338.745000", "122339.945000", "122341.145000", "122342.345000", "122343.545000", "122344.745000", "122345.945000", "122347.145000", "122348.345000", "122349.545000", "122350.745000", "122351.945000", "122353.145000", "122354.345000", "122355.545000", "122356.745000", "122357.945000", "122359.145000", "122400.345000", "122401.545000", "122402.745000", "122403.945000", "122405.145000", "122406.345000", "122407.545000", "122408.745000", "122409.945000", "122411.145000", "122412.345000", "122413.545000", "122414.745000", "122415.945000", "122417.145000", "122418.345000", "122419.545000", "122420.745000", "122421.945000", "122423.145000", "122424.345000", "122425.545000", "122426.745000", "122427.945000", "122429.145000", "122430.345000", "122431.545000", "122432.745000", "122433.945000", "122435.145000", "122436.345000", "122437.545000", "122438.745000", "122439.945000", "122441.145000", "122442.345000", "122443.545000", "122444.745000", "122445.945000", "122447.145000", "122448.345000", "122449.545000", "122450.745000", "122451.945000", "122453.145000", "122454.345000", "122455.545000", "122456.745000", "122457.945000", "122459.145000", "122500.345000", "122501.545000", "122502.745000", "122503.945000", "122505.145000", "122506.345000", "122507.545000", "122508.745000", "122509.945000", "122511.145000", "122512.345000", "122513.545000", "122514.745000", "122515.945000", "122517.145000", "122518.345000", "122519.545000", "122520.745000", "122521.945000", "122523.145000", "122524.345000", "122525.545000", "122526.745000", "122527.945000", "122529.145000", "122530.345000", "122531.545000", "122532.745000", "122533.945000", "122535.145000", "122536.345000", "122537.545000", "122538.745000", "122539.945000", "122541.145000", "122542.345000", "122543.545000", "122544.745000", "122545.945000", "122547.145000", "122548.345000", "122549.545000", "122550.745000", "122551.945000", "122553.145000", "122554.345000", "122555.545000", "122556.745000", "122557.945000", "122559.145000", "122600.345000", "122601.545000", "122602.745000", "122603.945000", "122605.145000", "122606.345000", "122607.545000", "122608.745000", "122609.945000", "122611.145000", "122612.345000", "122613.545000", "122614.745000", "122615.945000", "122617.145000", "122618.345000", "122619.545000", "122620.745000", "122621.945000", "122623.145000", "122624.345000", "122625.545000", "122626.745000", "122627.945000", "122629.145000", "122630.345000", "122631.545000", "122632.745000", "122633.945000", "122635.145000", "122636.345000", "122637.545000", "122638.745000", "122639.945000", "122641.145000", "122642.345000", "122643.545000", "122644.745000", "122645.945000", "122647.145000", "122648.345000", "122649.545000", "122650.745000", "122651.945000", "122653.145000", "122654.345000", "122655.545000", "122656.745000", "122657.945000", "122659.145000", "122700.345000", "122701.545000", "122702.745000", "122703.945000", "122705.145000", "122706.345000", "122707.545000", "122708.745000", "122709.945000", "122711.145000", "122712.345000", "122713.545000", "122714.745000", "122715.945000", "122717.145000", "122718.345000", "122719.545000", "122720.745000", "122721.945000", "122723.145000", "122724.345000", "122725.545000", "122726.745000", "122727.945000", "122729.145000", "122730.345000", "122731.545000", "122732.745000", "122733.945000", "122735.145000", "122736.345000", "122737.545000", "122738.745000", "122739.945000", "122741.145000", "122742.345000", "122743.545000", "122744.745000", "122745.945000", "122747.145000", "122748.345000", "122749.545000", "122750.745000", "122751.945000", "122753.145000", "122754.345000", "122755.545000", "122756.745000", "122757.945000", "122759.145000", "122800.345000", "122801.545000", "122802.745000", "122803.945000", "122805.145000", "122806.345000", "122807.545000", "122808.745000", "122809.945000", "122811.145000", "122812.345000", "122813.545000", "122814.745000", "122815.945000", "122817.145000", "122818.345000", "122819.545000", "122820.745000", "122821.945000", "122823.145000", "122824.345000", "122825.545000", "122826.745000", "122827.945000", "122829.145000", "122830.345000", "122831.545000", "122832.745000", "122833.945000", "122835.145000", "122836.345000", "122837.545000", "122838.745000", "122839.945000", "122841.145000", "122842.345000", "122843.545000", "122844.745000", "122845.945000", "122847.145000", "122848.345000", "122849.545000", "122850.745000", "122851.945000", "122853.145000", "122854.345000", "122855.545000", "122856.745000", "122857.945000", "122859.145000", "122900.345000", "122901.545000", "122902.745000", "122903.945000", "122905.145000", "122906.345000", "122907.545000", "122908.745000", "122909.945000", "122911.145000", "122912.345000", "122913.545000", "122914.745000", "122915.945000", "122917.145000", "122918.345000", "122919.545000", "122920.745000", "122921.945000", "122923.145000", "122924.345000", "122925.545000", "122926.745000", "122927.945000", "122929.145000", "122930.345000", "122931.545000", "122932.745000", "122933.945000", "122935.145000", "122936.345000", "122937.545000", "122938.745000", "122939.945000", "122941.145000", "122942.345000", "122943.545000", "122944.745000", "122945.945000", "122947.145000", "122948.345000", "122949.545000", "122950.745000", "122951.945000", "122953.145000", "122954.345000", "122955.545000", "122956.745000", "122957.945000", "122959.145000", "123000.345000", "123001.545000", "123002.745000", "123003.945000", "123005.145000", "123006.345000", "123007.545000", "123008.745000", "123009.945000", "123011.145000"],
      "ContentTime": ["122259.014000", "122259.024000", "122259.027000", "122259.030000", "122259.032000", "122259.035000", "122259.038000", "122259.040000", "122259.043000", "122259.045000", "122259.053000", "122259.055000", "122259.058000", "122259.060000", "122259.063000", "122259.066000", "122259.068000", "122259.071000", "122259.076000", "122259.079000", "122259.081000", "122259.084000", "122259.087000", "122259.089000", "122259.092000", "122259.094000", "122259.121000", "122259.124000", "122259.127000", "122259.129000", "122339.009000", "122339.012000", "122339.015000", "122339.017000", "122339.020000", "122339.023000", "122339.025000", "122339.028000", "122339.030000", "122339.033000", "122339.035000", "122339.040000", "122339.042000", "122339.045000", "122339.047000", "122339.050000", "122339.053000", "122339.055000", "122339.058000", "122339.060000", "122339.063000", "122339.065000", "122339.068000", "122339.071000", "122339.073000", "122339.076000", "122339.078000", "122339.081000", "122339.083000", "122339.086000", "122339.089000", "122339.091000", "122339.094000", "122339.096000", "122419.011000", "122419.013000", "122419.016000", "122419.019000", "122419.021000", "122419.024000", "122419.026000", "122419.029000", "122419.032000", "122419.035000", "122419.037000", "122419.040000", "122419.042000", "122419.045000", "122419.048000", "122419.050000", "122419.053000", "122419.055000", "122419.058000", "122419.060000", "122419.063000", "122419.065000", "122419.068000", "122419.071000", "122419.080000", "122419.083000", "122419.085000", "122419.088000", "122419.090000", "122419.093000", "122419.095000", "122419.098000", "122419.101000", "122459.009000", "122459.012000", "122459.015000", "122459.018000", "122459.020000", "122459.023000", "122459.026000", "122459.028000", "122459.031000", "122459.033000", "122459.036000", "122459.039000", "122459.041000", "122459.044000", "122459.047000", "122459.049000", "122459.052000", "122459.054000", "122459.057000", "122459.059000", "122459.062000", "122459.065000", "122459.067000", "122459.070000", "122459.073000", "122459.075000", "122459.078000", "122459.080000", "122459.083000", "122459.086000", "122459.088000", "122459.091000", "122459.093000", "122539.009000", "122539.012000", "122539.015000", "122539.018000", "122539.020000", "122539.024000", "122539.026000", "122539.029000", "122539.031000", "122539.034000", "122539.037000", "122539.039000", "122539.042000", "122539.044000", "122539.047000", "122539.049000", "122539.052000", "122539.055000", "122539.057000", "122539.060000", "122539.062000", "122539.065000", "122539.068000", "122539.071000", "122539.073000", "122539.076000", "122539.078000", "122539.081000", "122539.083000", "122539.086000", "122539.089000", "122539.091000", "122539.094000", "122539.096000", "122619.009000", "122619.012000", "122619.015000", "122619.018000", "122619.020000", "122619.023000", "122619.026000", "122619.028000", "122619.031000", "122619.034000", "122619.036000", "122619.039000", "122619.041000", "122619.044000", "122619.047000", "122619.049000", "122619.052000", "122619.055000", "122619.062000", "122619.065000", "122619.067000", "122619.070000", "122619.073000", "122619.075000", "122619.078000", "122619.080000", "122619.083000", "122619.086000", "122619.088000", "122619.091000", "122619.093000", "122619.096000", "122619.099000", "122659.011000", "122659.013000", "122659.016000", "122659.019000", "122659.022000", "122659.024000", "122659.027000", "122659.030000", "122659.032000", "122659.035000", "122659.038000", "122659.040000", "122659.043000", "122659.045000", "122659.048000", "122659.051000", "122659.053000", "122659.056000", "122659.058000", "122659.061000", "122659.064000", "122659.066000", "122659.069000", "122659.071000", "122659.074000", "122659.076000", "122659.079000", "122659.082000", "122659.084000", "122659.087000", "122659.090000", "122659.092000", "122659.095000", "122719.010000", "122719.012000", "122719.015000", "122719.018000", "122719.020000", "122719.023000", "122719.026000", "122719.029000", "122719.031000", "122719.034000", "122719.036000", "122719.039000", "122719.042000", "122719.044000", "122719.047000", "122719.050000", "122719.052000", "122759.009000", "122759.012000", "122759.015000", "122759.018000", "122759.021000", "122759.024000", "122759.026000", "122759.029000", "122759.032000", "122759.035000", "122759.037000", "122759.040000", "122759.043000", "122759.045000", "122759.048000", "122759.051000", "122759.053000", "122759.056000", "122759.059000", "122759.061000", "122759.064000", "122759.067000", "122759.070000", "122759.072000", "122759.075000", "122759.078000", "122759.081000", "122759.084000", "122759.087000", "122759.089000", "122759.092000", "122759.095000", "122759.097000", "122839.009000", "122839.012000", "122839.022000", "122839.025000", "122839.027000", "122839.030000", "122839.033000", "122839.035000", "122839.038000", "122839.040000", "122839.043000", "122839.046000", "122839.048000", "122839.051000", "122839.054000", "122839.056000", "122839.059000", "122839.061000", "122839.064000", "122839.067000", "122839.069000", "122839.072000", "122839.075000", "122839.077000", "122839.080000", "122839.082000", "122839.085000", "122839.088000", "122839.090000", "122839.093000", "122839.095000", "122839.098000", "122839.101000", "122839.103000", "122919.011000", "122919.013000", "122919.016000", "122919.019000", "122919.021000", "122919.024000", "122919.027000", "122919.029000", "122919.032000", "122919.034000", "122919.037000", "122919.039000", "122919.042000", "122919.045000", "122919.047000", "122919.050000", "122919.052000", "122919.055000", "122919.058000", "122919.060000", "122919.063000", "122919.065000", "122919.068000", "122919.070000", "122919.073000", "122919.076000", "122919.078000", "122919.081000", "122919.083000", "122919.086000", "122919.089000", "122919.091000", "122919.094000", "122959.010000", "122959.012000", "122959.015000", "122959.018000", "122959.021000", "122959.023000", "122959.026000", "122959.029000", "122959.032000", "122959.034000", "122959.037000", "122959.039000", "122959.042000", "122959.045000", "122959.047000", "122959.050000", "122959.053000", "122959.055000", "122959.058000", "122959.061000", "122959.063000", "122959.066000", "122959.069000", "122959.071000", "122959.074000", "122959.077000", "122959.079000", "122959.082000", "122959.085000", "122959.087000", "122959.090000", "122959.093000", "122959.095000", "123012.556000", "123012.559000", "123012.562000", "123012.564000", "123012.567000", "123012.570000", "123012.572000", "123012.575000", "123012.578000", "123012.580000", "123012.583000", "123012.586000"],
      "InstanceCreationTime": ["122259.014000", "122259.024000", "122259.027000", "122259.030000", "122259.032000", "122259.035000", "122259.038000", "122259.040000", "122259.043000", "122259.045000", "122259.053000", "122259.055000", "122259.058000", "122259.060000", "122259.063000", "122259.066000", "122259.068000", "122259.071000", "122259.076000", "122259.079000", "122259.081000", "122259.084000", "122259.087000", "122259.089000", "122259.092000", "122259.094000", "122259.121000", "122259.124000", "122259.127000", "122259.129000", "122339.009000", "122339.012000", "122339.015000", "122339.017000", "122339.020000", "122339.023000", "122339.025000", "122339.028000", "122339.030000", "122339.033000", "122339.035000", "122339.040000", "122339.042000", "122339.045000", "122339.047000", "122339.050000", "122339.053000", "122339.055000", "122339.058000", "122339.060000", "122339.063000", "122339.065000", "122339.068000", "122339.071000", "122339.073000", "122339.076000", "122339.078000", "122339.081000", "122339.083000", "122339.086000", "122339.089000", "122339.091000", "122339.094000", "122339.096000", "122419.011000", "122419.013000", "122419.016000", "122419.019000", "122419.021000", "122419.024000", "122419.026000", "122419.029000", "122419.032000", "122419.035000", "122419.037000", "122419.040000", "122419.042000", "122419.045000", "122419.048000", "122419.050000", "122419.053000", "122419.055000", "122419.058000", "122419.060000", "122419.063000", "122419.065000", "122419.068000", "122419.071000", "122419.080000", "122419.083000", "122419.085000", "122419.088000", "122419.090000", "122419.093000", "122419.095000", "122419.098000", "122419.101000", "122459.009000", "122459.012000", "122459.015000", "122459.018000", "122459.020000", "122459.023000", "122459.026000", "122459.028000", "122459.031000", "122459.033000", "122459.036000", "122459.039000", "122459.041000", "122459.044000", "122459.047000", "122459.049000", "122459.052000", "122459.054000", "122459.057000", "122459.059000", "122459.062000", "122459.065000", "122459.067000", "122459.070000", "122459.073000", "122459.075000", "122459.078000", "122459.080000", "122459.083000", "122459.086000", "122459.088000", "122459.091000", "122459.093000", "122539.009000", "122539.012000", "122539.015000", "122539.018000", "122539.020000", "122539.024000", "122539.026000", "122539.029000", "122539.031000", "122539.034000", "122539.037000", "122539.039000", "122539.042000", "122539.044000", "122539.047000", "122539.049000", "122539.052000", "122539.055000", "122539.057000", "122539.060000", "122539.062000", "122539.065000", "122539.068000", "122539.071000", "122539.073000", "122539.076000", "122539.078000", "122539.081000", "122539.083000", "122539.086000", "122539.089000", "122539.091000", "122539.094000", "122539.096000", "122619.009000", "122619.012000", "122619.015000", "122619.018000", "122619.020000", "122619.023000", "122619.026000", "122619.028000", "122619.031000", "122619.034000", "122619.036000", "122619.039000", "122619.041000", "122619.044000", "122619.047000", "122619.049000", "122619.052000", "122619.055000", "122619.062000", "122619.065000", "122619.067000", "122619.070000", "122619.073000", "122619.075000", "122619.078000", "122619.080000", "122619.083000", "122619.086000", "122619.088000", "122619.091000", "122619.093000", "122619.096000", "122619.099000", "122659.011000", "122659.013000", "122659.016000", "122659.019000", "122659.022000", "122659.024000", "122659.027000", "122659.030000", "122659.032000", "122659.035000", "122659.038000", "122659.040000", "122659.043000", "122659.045000", "122659.048000", "122659.051000", "122659.053000", "122659.056000", "122659.058000", "122659.061000", "122659.064000", "122659.066000", "122659.069000", "122659.071000", "122659.074000", "122659.076000", "122659.079000", "122659.082000", "122659.084000", "122659.087000", "122659.090000", "122659.092000", "122659.095000", "122719.010000", "122719.012000", "122719.015000", "122719.018000", "122719.020000", "122719.023000", "122719.026000", "122719.029000", "122719.031000", "122719.034000", "122719.036000", "122719.039000", "122719.042000", "122719.044000", "122719.047000", "122719.050000", "122719.052000", "122759.009000", "122759.012000", "122759.015000", "122759.018000", "122759.021000", "122759.024000", "122759.026000", "122759.029000", "122759.032000", "122759.035000", "122759.037000", "122759.040000", "122759.043000", "122759.045000", "122759.048000", "122759.051000", "122759.053000", "122759.056000", "122759.059000", "122759.061000", "122759.064000", "122759.067000", "122759.070000", "122759.072000", "122759.075000", "122759.078000", "122759.081000", "122759.084000", "122759.087000", "122759.089000", "122759.092000", "122759.095000", "122759.097000", "122839.009000", "122839.012000", "122839.022000", "122839.025000", "122839.027000", "122839.030000", "122839.033000", "122839.035000", "122839.038000", "122839.040000", "122839.043000", "122839.046000", "122839.048000", "122839.051000", "122839.054000", "122839.056000", "122839.059000", "122839.061000", "122839.064000", "122839.067000", "122839.069000", "122839.072000", "122839.075000", "122839.077000", "122839.080000", "122839.082000", "122839.085000", "122839.088000", "122839.090000", "122839.093000", "122839.095000", "122839.098000", "122839.101000", "122839.103000", "122919.011000", "122919.013000", "122919.016000", "122919.019000", "122919.021000", "122919.024000", "122919.027000", "122919.029000", "122919.032000", "122919.034000", "122919.037000", "122919.039000", "122919.042000", "122919.045000", "122919.047000", "122919.050000", "122919.052000", "122919.055000", "122919.058000", "122919.060000", "122919.063000", "122919.065000", "122919.068000", "122919.070000", "122919.073000", "122919.076000", "122919.078000", "122919.081000", "122919.083000", "122919.086000", "122919.089000", "122919.091000", "122919.094000", "122959.010000", "122959.012000", "122959.015000", "122959.018000", "122959.021000", "122959.023000", "122959.026000", "122959.029000", "122959.032000", "122959.034000", "122959.037000", "122959.039000", "122959.042000", "122959.045000", "122959.047000", "122959.050000", "122959.053000", "122959.055000", "122959.058000", "122959.061000", "122959.063000", "122959.066000", "122959.069000", "122959.071000", "122959.074000", "122959.077000", "122959.079000", "122959.082000", "122959.085000", "122959.087000", "122959.090000", "122959.093000", "122959.095000", "123012.556000", "123012.559000", "123012.562000", "123012.564000", "123012.567000", "123012.570000", "123012.572000", "123012.575000", "123012.578000", "123012.580000", "123012.583000", "123012.586000"],
      "InstanceNumber": [1, 2, 3, 4, 5, 6, 7, 8, 9, 10, 11, 12, 13, 14, 15, 16, 17, 18, 19, 20, 21, 22, 23, 24, 25, 26, 27, 28, 29, 30, 31, 32, 33, 34, 35, 36, 37, 38, 39, 40, 41, 42, 43, 44, 45, 46, 47, 48, 49, 50, 51, 52, 53, 54, 55, 56, 57, 58, 59, 60, 61, 62, 63, 64, 65, 66, 67, 68, 69, 70, 71, 72, 73, 74, 75, 76, 77, 78, 79, 80, 81, 82, 83, 84, 85, 86, 87, 88, 89, 90, 91, 92, 93, 94, 95, 96, 97, 98, 99, 100, 101, 102, 103, 104, 105, 106, 107, 108, 109, 110, 111, 112, 113, 114, 115, 116, 117, 118, 119, 120, 121, 122, 123, 124, 125, 126, 127, 128, 129, 130, 131, 132, 133, 134, 135, 136, 137, 138, 139, 140, 141, 142, 143, 144, 145, 146, 147, 148, 149, 150, 151, 152, 153, 154, 155, 156, 157, 158, 159, 160, 161, 162, 163, 164, 165, 166, 167, 168, 169, 170, 171, 172, 173, 174, 175, 176, 177, 178, 179, 180, 181, 182, 183, 184, 185, 186, 187, 188, 189, 190, 191, 192, 193, 194, 195, 196, 197, 198, 199, 200, 201, 202, 203, 204, 205, 206, 207, 208, 209, 210, 211, 212, 213, 214, 215, 216, 217, 218, 219, 220, 221, 222, 223, 224, 225, 226, 227, 228, 229, 230, 231, 232, 233, 234, 235, 236, 237, 238, 239, 240, 241, 242, 243, 244, 245, 246, 247, 248, 249, 250, 251, 252, 253, 254, 255, 256, 257, 258, 259, 260, 261, 262, 263, 264, 265, 266, 267, 268, 269, 270, 271, 272, 273, 274, 275, 276, 277, 278, 279, 280, 281, 282, 283, 284, 285, 286, 287, 288, 289, 290, 291, 292, 293, 294, 295, 296, 297, 298, 299, 300, 301, 302, 303, 304, 305, 306, 307, 308, 309, 310, 311, 312, 313, 314, 315, 316, 317, 318, 319, 320, 321, 322, 323, 324, 325, 326, 327, 328, 329, 330, 331, 332, 333, 334, 335, 336, 337, 338, 339, 340, 341, 342, 343, 344, 345, 346, 347, 348, 349, 350, 351, 352, 353, 354, 355, 356, 357, 358, 359, 360, 361, 362, 363, 364, 365, 366, 367, 368, 369, 370, 371, 372, 373, 374, 375, 376, 377, 378, 379, 380, 381, 382, 383, 384, 385, 386, 387, 388, 389, 390, 391, 392],
