{
  "AcquisitionMatrixPE": 88,
  "AcquisitionNumber": 1,
  "AcquisitionTime": "14:05:6.442500",
  "BandwidthPerPixelPhaseEncode": 19.592,
  "BaseResolution": 88,
  "BodyPartExamined": "BRAIN",
  "ConsistencyInfo": "N4_VE11C_LATEST_20160120",
  "ConversionSoftware": "dcm2niix",
  "ConversionSoftwareVersion": "v1.0.20190902",
  "DerivedVendorReportedEchoSpacing": 0.000580014,
  "DeviceSerialNumber": "67050",
  "DwellTime": 2.6e-06,
  "EchoTime": 0.033,
  "EchoTrainLength": 88,
  "EffectiveEchoSpacing": 0.000580014,
  "FlipAngle": 62,
  "ImageOrientationPatientDICOM": [0.997562, 0.0543138, -0.0438263, -0.0555977, 0.998043, -0.0286287],
  "ImageType": [
    "ORIGINAL",
    "PRIMARY",
    "M",
    "ND",
    "MOSAIC"
],
  "ImagingFrequency": 123.251,
  "InPlanePhaseEncodingDirectionDICOM": "COL",
  "InstitutionAddress": "Olive_Street_60_Providence_RI_US_02912",
  "InstitutionName": "BROWN_UNIVERSITY_MRF",
  "InstitutionalDepartmentName": "Department",
  "MRAcquisitionType": "2D",
  "MagneticFieldStrength": 3,
  "Manufacturer": "Siemens",
  "ManufacturersModelName": "Prisma_fit",
  "Modality": "MR",
  "MultibandAccelerationFactor": 4,
  "PartialFourier": 1,
  "PatientPosition": "HFS",
  "PercentPhaseFOV": 100,
  "PhaseEncodingDirection": "j-",
  "PhaseEncodingSteps": 88,
  "PhaseResolution": 1,
  "PixelBandwidth": 2185,
  "ProcedureStepDescription": "ASHENHAV_1222",
  "ProtocolName": "func-bold_task-RDMmotion_run-04",
  "PulseSequenceDetails": "%SiemensSeq%_ep2d_bold",
  "ReceiveCoilActiveElements": "HC1-7;NC1",
  "ReceiveCoilName": "HeadNeck_64",
  "ReconMatrixPE": 88,
  "RefLinesPE": 8,
  "RepetitionTime": 1.2,
  "SAR": 0.0480046,
  "ScanOptions": "FS",
  "ScanningSequence": "EP",
  "SequenceName": "_epfid2d1_88",
  "SequenceVariant": "SK",
  "SeriesDescription": "func-bold_task-RDMmotion_run-04",
  "SeriesNumber": 13,
  "ShimSetting": [1749, -9087, 4383, 363, -43, -237, -162, 6],
  "SliceThickness": 2.4,
  "SliceTiming": [0.5525, 0, 0.63, 0.08, 0.71, 0.1575, 0.7875, 0.2375, 0.8675, 0.315, 0.945, 0.395, 1.025, 0.4725, 1.1025, 0.5525, 0, 0.63, 0.08, 0.71, 0.1575, 0.7875, 0.2375, 0.8675, 0.315, 0.945, 0.395, 1.025, 0.4725, 1.1025, 0.5525, 0, 0.63, 0.08, 0.71, 0.1575, 0.7875, 0.2375, 0.8675, 0.315, 0.945, 0.395, 1.025, 0.4725, 1.1025, 0.5525, 0, 0.63, 0.08, 0.71, 0.1575, 0.7875, 0.2375, 0.8675, 0.315, 0.945, 0.395, 1.025, 0.4725, 1.1025],
  "SoftwareVersions": "syngo_MR_E11",
  "SpacingBetweenSlices": 2.4,
  "StationName": "AWP67050",
  "TaskName": "RDMmotion",
  "TotalReadoutTime": 0.0504612,
  "TxRefAmp": 218.677,
  "dcmmeta_affine": [
    [-2.391880750656128, -0.13330815732479095, -0.10124549269676208, 114.77777099609375],
    [-0.13022959232330322, 2.3930342197418213, -0.07438936084508896, -83.39673614501953],
    [-0.10508359968662262, 0.06864388287067413, 2.3967092037200928, -57.30762481689453],
    [0.0, 0.0, 0.0, 1.0]
],
  "dcmmeta_reorient_transform": [
    [0.0, -1.0, 0.0, 87.0],
    [1.0, 0.0, 0.0, 0.0],
    [0.0, 0.0, 1.0, 0.0],
    [0.0, 0.0, 0.0, 1.0]
],
  "dcmmeta_shape": [88, 88, 60, 125],
  "dcmmeta_slice_dim": 2,
  "dcmmeta_version": 0.6,
  "global": {
    "const": {
      "AcquisitionMatrix": [88, 0, 0, 88],
      "AngioFlag": "N",
      "BitsAllocated": 16,
      "BitsStored": 12,
      "BodyPartExamined": "BRAIN",
      "Columns": 704,
      "DeidentificationMethodCodeSequence": [
        {
          "CodeMeaning": "XNAT DicomEdit 6 Script",
          "CodeValue": "3",
          "CodingSchemeDesignator": "XNAT",
          "CodingSchemeVersion": "1.0"}
],
      "EchoNumbers": 1,
      "EchoTime": 33.0,
      "EchoTrainLength": 88,
      "FlipAngle": 62.0,
      "HighBit": 11,
      "ImageOrientationPatient": [0.99756166082786, 0.05431376454039, -0.0438263371481, -0.0555977162785, 0.9980427294218, -0.0286287302008],
      "ImagePositionPatient": [-798.82033143562, -901.96250683216, 2.1724582172377],
      "ImageType": [
        "ORIGINAL",
        "PRIMARY",
        "M",
        "ND",
        "MOSAIC"
],
      "ImagedNucleus": "1H",
      "ImagingFrequency": 123.250535,
      "InPlanePhaseEncodingDirection": "COL",
      "MRAcquisitionType": "2D",
      "MagneticFieldStrength": 3.0,
      "Manufacturer": "SIEMENS",
      "ManufacturerModelName": "Prisma_fit",
      "Modality": "MR",
      "NumberOfAverages": 1.0,
      "NumberOfPhaseEncodingSteps": 88,
      "PercentPhaseFieldOfView": 100.0,
      "PercentSampling": 100.0,
      "PerformedProcedureStepStartTime": "132250.855000",
      "PhotometricInterpretation": "MONOCHROME2",
      "PixelBandwidth": 2185.0,
      "PixelRepresentation": 0,
      "PixelSpacing": [2.3977272510529, 2.3977272510529],
      "ProtocolName": "func-bold_task-RDMmotion_run-04",
      "RepetitionTime": 1200.0,
      "Rows": 704,
      "SAR": 0.0480046059734,
      "SamplesPerPixel": 1,
      "ScanOptions": "FS",
      "ScanningSequence": "EP",
      "SequenceName": "*epfid2d1_88",
      "SequenceVariant": "SK",
      "SeriesDescription": "func-bold_task-RDMmotion_run-04",
      "SeriesNumber": 13,
      "SeriesTime": "140531.921000",
      "SliceLocation": -59.486093979055,
      "SliceThickness": 2.4000000953674,
      "SmallestImagePixelValue": 0,
      "SoftwareVersions": "syngo MR E11",
      "SpacingBetweenSlices": 2.3999999920267,
      "SpecificCharacterSet": "ISO_IR 100",
      "StudyID": "1",
      "StudyTime": "132250.761000",
      "TransmitCoilName": "Body",
      "VariableFlipAngleFlag": "N",
      "WindowCenterWidthExplanation": "Algo1",
      "dBdt": 0.0},
    "slices": {}
  },
  "time": {
    "samples": {
      "AcquisitionNumber": [1, 2, 3, 4, 5, 6, 7, 8, 9, 10, 11, 12, 13, 14, 15, 16, 17, 18, 19, 20, 21, 22, 23, 24, 25, 26, 27, 28, 29, 30, 31, 32, 33, 34, 35, 36, 37, 38, 39, 40, 41, 42, 43, 44, 45, 46, 47, 48, 49, 50, 51, 52, 53, 54, 55, 56, 57, 58, 59, 60, 61, 62, 63, 64, 65, 66, 67, 68, 69, 70, 71, 72, 73, 74, 75, 76, 77, 78, 79, 80, 81, 82, 83, 84, 85, 86, 87, 88, 89, 90, 91, 92, 93, 94, 95, 96, 97, 98, 99, 100, 101, 102, 103, 104, 105, 106, 107, 108, 109, 110, 111, 112, 113, 114, 115, 116, 117, 118, 119, 120, 121, 122, 123, 124, 125],
      "AcquisitionTime": ["140506.442500", "140507.642500", "140508.842500", "140510.042500", "140511.242500", "140512.442500", "140513.642500", "140514.842500", "140516.042500", "140517.242500", "140518.442500", "140519.642500", "140520.842500", "140522.042500", "140523.242500", "140524.442500", "140525.642500", "140526.842500", "140528.042500", "140529.242500", "140530.442500", "140531.642500", "140532.842500", "140534.042500", "140535.242500", "140536.442500", "140537.642500", "140538.842500", "140540.042500", "140541.242500", "140542.442500", "140543.642500", "140544.842500", "140546.042500", "140547.242500", "140548.442500", "140549.642500", "140550.842500", "140552.042500", "140553.242500", "140554.442500", "140555.642500", "140556.842500", "140558.042500", "140559.242500", "140600.442500", "140601.642500", "140602.842500", "140604.042500", "140605.242500", "140606.442500", "140607.642500", "140608.842500", "140610.042500", "140611.242500", "140612.442500", "140613.642500", "140614.842500", "140616.042500", "140617.242500", "140618.442500", "140619.642500", "140620.842500", "140622.042500", "140623.242500", "140624.442500", "140625.642500", "140626.842500", "140628.042500", "140629.242500", "140630.442500", "140631.642500", "140632.842500", "140634.042500", "140635.242500", "140636.442500", "140637.642500", "140638.842500", "140640.042500", "140641.242500", "140642.442500", "140643.642500", "140644.842500", "140646.042500", "140647.242500", "140648.442500", "140649.642500", "140650.842500", "140652.042500", "140653.242500", "140654.442500", "140655.642500", "140656.842500", "140658.042500", "140659.242500", "140700.442500", "140701.642500", "140702.842500", "140704.042500", "140705.242500", "140706.442500", "140707.642500", "140708.842500", "140710.042500", "140711.242500", "140712.442500", "140713.642500", "140714.842500", "140716.042500", "140717.242500", "140718.442500", "140719.642500", "140720.842500", "140722.042500", "140723.242500", "140724.442500", "140725.642500", "140726.842500", "140728.042500", "140729.242500", "140730.442500", "140731.642500", "140732.842500", "140734.042500", "140735.242500"],
      "ContentTime": ["140531.925000", "140531.928000", "140531.931000", "140531.933000", "140531.936000", "140531.939000", "140531.941000", "140531.944000", "140531.947000", "140531.957000", "140531.962000", "140531.964000", "140531.967000", "140531.973000", "140531.975000", "140531.978000", "140531.981000", "140531.983000", "140531.986000", "140531.988000", "140611.920000", "140611.922000", "140611.925000", "140611.928000", "140611.930000", "140611.933000", "140611.936000", "140611.938000", "140611.941000", "140611.944000", "140611.947000", "140611.949000", "140611.952000", "140611.954000", "140611.957000", "140611.960000", "140611.963000", "140611.965000", "140611.968000", "140611.970000", "140611.973000", "140611.975000", "140611.978000", "140611.980000", "140611.983000", "140611.986000", "140611.988000", "140611.991000", "140611.994000", "140611.996000", "140612.000000", "140612.002000", "140612.005000", "140651.919000", "140651.922000", "140651.925000", "140651.927000", "140651.930000", "140651.933000", "140651.935000", "140651.938000", "140651.940000", "140651.943000", "140651.945000", "140651.948000", "140651.951000", "140651.953000", "140651.956000", "140651.958000", "140651.961000", "140651.963000", "140651.966000", "140651.975000", "140651.978000", "140651.980000", "140651.983000", "140651.985000", "140651.988000", "140651.991000", "140651.993000", "140651.996000", "140651.998000", "140652.002000", "140652.005000", "140652.007000", "140652.010000", "140652.012000", "140731.921000", "140731.923000", "140731.926000", "140731.929000", "140731.932000", "140731.934000", "140731.937000", "140731.940000", "140731.942000", "140731.945000", "140731.947000", "140731.951000", "140731.954000", "140731.956000", "140731.965000", "140731.967000", "140731.970000", "140731.973000", "140731.975000", "140731.978000", "140731.980000", "140731.983000", "140731.986000", "140731.988000", "140731.991000", "140731.994000", "140731.996000", "140732.000000", "140732.002000", "140732.005000", "140732.008000", "140732.011000", "140732.014000", "140737.202000", "140737.205000", "140737.207000", "140737.210000", "140737.213000"],
      "InstanceCreationTime": ["140531.925000", "140531.928000", "140531.931000", "140531.933000", "140531.936000", "140531.939000", "140531.941000", "140531.944000", "140531.947000", "140531.957000", "140531.962000", "140531.964000", "140531.967000", "140531.973000", "140531.975000", "140531.978000", "140531.981000", "140531.983000", "140531.986000", "140531.988000", "140611.920000", "140611.922000", "140611.925000", "140611.928000", "140611.930000", "140611.933000", "140611.936000", "140611.938000", "140611.941000", "140611.944000", "140611.947000", "140611.949000", "140611.952000", "140611.954000", "140611.957000", "140611.960000", "140611.963000", "140611.965000", "140611.968000", "140611.970000", "140611.973000", "140611.975000", "140611.978000", "140611.980000", "140611.983000", "140611.986000", "140611.988000", "140611.991000", "140611.994000", "140611.996000", "140612.000000", "140612.002000", "140612.005000", "140651.919000", "140651.922000", "140651.925000", "140651.927000", "140651.930000", "140651.933000", "140651.935000", "140651.938000", "140651.940000", "140651.943000", "140651.945000", "140651.948000", "140651.951000", "140651.953000", "140651.956000", "140651.958000", "140651.961000", "140651.963000", "140651.966000", "140651.975000", "140651.978000", "140651.980000", "140651.983000", "140651.985000", "140651.988000", "140651.991000", "140651.993000", "140651.996000", "140651.998000", "140652.002000", "140652.005000", "140652.007000", "140652.010000", "140652.012000", "140731.921000", "140731.923000", "140731.926000", "140731.929000", "140731.932000", "140731.934000", "140731.937000", "140731.940000", "140731.942000", "140731.945000", "140731.947000", "140731.951000", "140731.954000", "140731.956000", "140731.965000", "140731.967000", "140731.970000", "140731.973000", "140731.975000", "140731.978000", "140731.980000", "140731.983000", "140731.986000", "140731.988000", "140731.991000", "140731.994000", "140731.996000", "140732.000000", "140732.002000", "140732.005000", "140732.008000", "140732.011000", "140732.014000", "140737.202000", "140737.205000", "140737.207000", "140737.210000", "140737.213000"],
      "InstanceNumber": [1, 2, 3, 4, 5, 6, 7, 8, 9, 10, 11, 12, 13, 14, 15, 16, 17, 18, 19, 20, 21, 22, 23, 24, 25, 26, 27, 28, 29, 30, 31, 32, 33, 34, 35, 36, 37, 38, 39, 40, 41, 42, 43, 44, 45, 46, 47, 48, 49, 50, 51, 52, 53, 54, 55, 56, 57, 58, 59, 60, 61, 62, 63, 64, 65, 66, 67, 68, 69, 70, 71, 72, 73, 74, 75, 76, 77, 78, 79, 80, 81, 82, 83, 84, 85, 86, 87, 88, 89, 90, 91, 92, 93, 94, 95, 96, 97, 98, 99, 100, 101, 102, 103, 104, 105, 106, 107, 108, 109, 110, 111, 112, 113, 114, 115, 116, 117, 118, 119, 120, 121, 122, 123, 124, 125],
      "LargestImagePixelValue": [1761, 1673, 1788, 1588, 1589, 1591, 2004, 1554, 1790, 1584, 1608, 1763, 1790, 1635, 1653, 1690, 1843, 1655, 1666, 1572, 1881, 1582, 1586, 1670, 1679, 1797, 1886, 1612, 1720, 1613, 1783, 1654, 1613, 1691, 1641, 1753, 1675, 1661, 1652, 1620, 1660, 1669, 1622, 1674, 1629, 1696, 1671, 1672, 1769, 1716, 1705, 1785, 1665, 1809, 1754, 1770, 1774, 1707, 1703, 1798, 1714, 1707, 1722, 1759, 1710, 1740, 1741, 1719, 1765, 1683, 1691, 1705, 1699, 1747, 1662, 1714, 1687, 1781, 1842, 1701, 1714, 1707, 1686, 1728, 1730, 1702, 1736, 1690, 1934, 1650, 1646, 1664, 1699, 1695, 1629, 1649, 1637, 1675, 1760, 1745, 1707, 1760, 1763, 1766, 1772, 1735, 1683, 1839, 1702, 1723, 1710, 1716, 1739, 1705, 1835, 1737, 1629, 1660, 1727, 1763, 1655, 1781, 1862, 1677, 1642],
      "WindowCenter": [564.0, 560.0, 561.0, 557.0, 556.0, 556.0, 561.0, 554.0, 558.0, 555.0, 555.0, 558.0, 558.0, 556.0, 556.0, 556.0, 559.0, 556.0, 555.0, 555.0, 559.0, 554.0, 555.0, 557.0, 556.0, 558.0, 557.0, 553.0, 554.0, 553.0, 554.0, 552.0, 551.0, 553.0, 552.0, 555.0, 553.0, 553.0, 553.0, 552.0, 553.0, 553.0, 552.0, 553.0, 552.0, 553.0, 553.0, 554.0, 556.0, 556.0, 555.0, 558.0, 556.0, 558.0, 557.0, 559.0, 558.0, 557.0, 557.0, 558.0, 557.0, 556.0, 556.0, 557.0, 558.0, 559.0, 559.0, 558.0, 558.0, 556.0, 556.0, 556.0, 555.0, 556.0, 555.0, 556.0, 556.0, 558.0, 559.0, 557.0, 558.0, 558.0, 556.0, 557.0, 557.0, 556.0, 557.0, 556.0, 560.0, 556.0, 556.0, 556.0, 556.0, 555.0, 554.0, 555.0, 554.0, 555.0, 556.0, 555.0, 554.0, 555.0, 554.0, 554.0, 555.0, 555.0, 555.0, 557.0, 555.0, 555.0, 555.0, 555.0, 555.0, 555.0, 557.0, 556.0, 554.0, 555.0, 556.0, 557.0, 554.0, 556.0, 558.0, 555.0, 555.0],
      "WindowWidth": [1195.0, 1188.0, 1188.0, 1181.0, 1179.0, 1179.0, 1186.0, 1176.0, 1181.0, 1176.0, 1177.0, 1181.0, 1181.0, 1178.0, 1179.0, 1179.0, 1183.0, 1178.0, 1177.0, 1176.0, 1183.0, 1175.0, 1176.0, 1180.0, 1179.0, 1181.0, 1178.0, 1171.0, 1174.0, 1171.0, 1173.0, 1170.0, 1168.0, 1170.0, 1169.0, 1174.0, 1172.0, 1171.0, 1171.0, 1169.0, 1171.0, 1171.0, 1170.0, 1172.0, 1170.0, 1171.0, 1172.0, 1173.0, 1178.0, 1178.0, 1176.0, 1181.0, 1177.0, 1182.0, 1180.0, 1184.0, 1183.0, 1180.0, 1180.0, 1182.0, 1180.0, 1179.0, 1178.0, 1180.0, 1182.0, 1183.0, 1183.0, 1182.0, 1181.0, 1177.0, 1177.0, 1177.0, 1176.0, 1178.0, 1177.0, 1178.0, 1179.0, 1182.0, 1183.0, 1180.0, 1182.0, 1181.0, 1178.0, 1179.0, 1179.0, 1177.0, 1179.0, 1177.0, 1183.0, 1177.0, 1178.0, 1178.0, 1177.0, 1175.0, 1173.0, 1175.0, 1174.0, 1175.0, 1177.0, 1176.0, 1173.0, 1174.0, 1173.0, 1174.0, 1175.0, 1175.0, 1175.0, 1178.0, 1175.0, 1175.0, 1175.0, 1175.0, 1176.0, 1176.0, 1180.0, 1177.0, 1173.0, 1175.0, 1177.0, 1178.0, 1174.0, 1177.0, 1180.0, 1176.0, 1176.0]
    },
    "slices": {}
  }
}