{
  "AcquisitionMatrixPE": 88,
  "AcquisitionNumber": 1,
  "AcquisitionTime": "14:29:39.452500",
  "BandwidthPerPixelPhaseEncode": 19.592,
  "BaseResolution": 88,
  "BodyPartExamined": "BRAIN",
  "ConsistencyInfo": "N4_VE11C_LATEST_20160120",
  "ConversionSoftware": "dcm2niix",
  "ConversionSoftwareVersion": "v1.0.20190902",
  "DerivedVendorReportedEchoSpacing": 0.000580014,
  "DeviceSerialNumber": "67050",
  "DwellTime": 2.6e-06,
  "EchoTime": 0.033,
  "EchoTrainLength": 88,
  "EffectiveEchoSpacing": 0.000580014,
  "FlipAngle": 62,
  "ImageOrientationPatientDICOM": [0.997562, 0.0543138, -0.0438263, -0.0555977, 0.998043, -0.0286287],
  "ImageType": [
    "ORIGINAL",
    "PRIMARY",
    "M",
    "ND",
    "MOSAIC"
],
  "ImagingFrequency": 123.251,
  "InPlanePhaseEncodingDirectionDICOM": "COL",
  "InstitutionAddress": "Olive_Street_60_Providence_RI_US_02912",
  "InstitutionName": "BROWN_UNIVERSITY_MRF",
  "InstitutionalDepartmentName": "Department",
  "MRAcquisitionType": "2D",
  "MagneticFieldStrength": 3,
  "Manufacturer": "Siemens",
  "ManufacturersModelName": "Prisma_fit",
  "Modality": "MR",
  "MultibandAccelerationFactor": 4,
  "PartialFourier": 1,
  "PatientPosition": "HFS",
  "PercentPhaseFOV": 100,
  "PhaseEncodingDirection": "j-",
  "PhaseEncodingSteps": 88,
  "PhaseResolution": 1,
  "PixelBandwidth": 2185,
  "ProcedureStepDescription": "ASHENHAV_1222",
  "ProtocolName": "func-bold_task-RDMmotion_run-06",
  "PulseSequenceDetails": "%SiemensSeq%_ep2d_bold",
  "ReceiveCoilActiveElements": "HC1-7;NC1",
  "ReceiveCoilName": "HeadNeck_64",
  "ReconMatrixPE": 88,
  "RefLinesPE": 8,
  "RepetitionTime": 1.2,
  "SAR": 0.0480046,
  "ScanOptions": "FS",
  "ScanningSequence": "EP",
  "SequenceName": "_epfid2d1_88",
  "SequenceVariant": "SK",
  "SeriesDescription": "func-bold_task-RDMmotion_run-06",
  "SeriesNumber": 17,
  "ShimSetting": [1749, -9087, 4383, 363, -43, -237, -162, 6],
  "SliceThickness": 2.4,
  "SliceTiming": [0.5525, 0, 0.63, 0.08, 0.71, 0.1575, 0.7875, 0.2375, 0.865, 0.315, 0.945, 0.395, 1.0225, 0.4725, 1.1025, 0.5525, 0, 0.63, 0.08, 0.71, 0.1575, 0.7875, 0.2375, 0.865, 0.315, 0.945, 0.395, 1.0225, 0.4725, 1.1025, 0.5525, 0, 0.63, 0.08, 0.71, 0.1575, 0.7875, 0.2375, 0.865, 0.315, 0.945, 0.395, 1.0225, 0.4725, 1.1025, 0.5525, 0, 0.63, 0.08, 0.71, 0.1575, 0.7875, 0.2375, 0.865, 0.315, 0.945, 0.395, 1.0225, 0.4725, 1.1025],
  "SoftwareVersions": "syngo_MR_E11",
  "SpacingBetweenSlices": 2.4,
  "StationName": "AWP67050",
  "TaskName": "RDMmotion",
  "TotalReadoutTime": 0.0504612,
  "TxRefAmp": 218.677,
  "dcmmeta_affine": [
    [-2.391880750656128, -0.13330815732479095, -0.10124549269676208, 114.77777099609375],
    [-0.13022959232330322, 2.3930342197418213, -0.07438936084508896, -83.39673614501953],
    [-0.10508359968662262, 0.06864388287067413, 2.3967092037200928, -57.30762481689453],
    [0.0, 0.0, 0.0, 1.0]
],
  "dcmmeta_reorient_transform": [
    [0.0, -1.0, 0.0, 87.0],
    [1.0, 0.0, 0.0, 0.0],
    [0.0, 0.0, 1.0, 0.0],
    [0.0, 0.0, 0.0, 1.0]
],
  "dcmmeta_shape": [88, 88, 60, 125],
  "dcmmeta_slice_dim": 2,
  "dcmmeta_version": 0.6,
  "global": {
    "const": {
      "AcquisitionMatrix": [88, 0, 0, 88],
      "AngioFlag": "N",
      "BitsAllocated": 16,
      "BitsStored": 12,
      "BodyPartExamined": "BRAIN",
      "Columns": 704,
      "DeidentificationMethodCodeSequence": [
        {
          "CodeMeaning": "XNAT DicomEdit 6 Script",
          "CodeValue": "3",
          "CodingSchemeDesignator": "XNAT",
          "CodingSchemeVersion": "1.0"}
],
      "EchoNumbers": 1,
      "EchoTime": 33.0,
      "EchoTrainLength": 88,
      "FlipAngle": 62.0,
      "HighBit": 11,
      "ImageOrientationPatient": [0.99756166082786, 0.05431376454039, -0.0438263371481, -0.0555977162785, 0.9980427294218, -0.0286287302008],
      "ImagePositionPatient": [-798.82033143562, -901.96250683216, 2.1724582172377],
      "ImageType": [
        "ORIGINAL",
        "PRIMARY",
        "M",
        "ND",
        "MOSAIC"
],
      "ImagedNucleus": "1H",
      "ImagingFrequency": 123.250533,
      "InPlanePhaseEncodingDirection": "COL",
      "MRAcquisitionType": "2D",
      "MagneticFieldStrength": 3.0,
      "Manufacturer": "SIEMENS",
      "ManufacturerModelName": "Prisma_fit",
      "Modality": "MR",
      "NumberOfAverages": 1.0,
      "NumberOfPhaseEncodingSteps": 88,
      "PercentPhaseFieldOfView": 100.0,
      "PercentSampling": 100.0,
      "PerformedProcedureStepStartTime": "132250.855000",
      "PhotometricInterpretation": "MONOCHROME2",
      "PixelBandwidth": 2185.0,
      "PixelRepresentation": 0,
      "PixelSpacing": [2.3977272510529, 2.3977272510529],
      "ProtocolName": "func-bold_task-RDMmotion_run-06",
      "RepetitionTime": 1200.0,
      "Rows": 704,
      "SAR": 0.0480046059734,
      "SamplesPerPixel": 1,
      "ScanOptions": "FS",
      "ScanningSequence": "EP",
      "SequenceName": "*epfid2d1_88",
      "SequenceVariant": "SK",
      "SeriesDescription": "func-bold_task-RDMmotion_run-06",
      "SeriesNumber": 17,
      "SeriesTime": "143019.028000",
      "SliceLocation": -59.486093979055,
      "SliceThickness": 2.4000000953674,
      "SmallestImagePixelValue": 0,
      "SoftwareVersions": "syngo MR E11",
      "SpacingBetweenSlices": 2.3999999920267,
      "SpecificCharacterSet": "ISO_IR 100",
      "StudyID": "1",
      "StudyTime": "132250.761000",
      "TransmitCoilName": "Body",
      "VariableFlipAngleFlag": "N",
      "WindowCenterWidthExplanation": "Algo1",
      "dBdt": 0.0},
    "slices": {}
  },
  "time": {
    "samples": {
      "AcquisitionNumber": [1, 2, 3, 4, 5, 6, 7, 8, 9, 10, 11, 12, 13, 14, 15, 16, 17, 18, 19, 20, 21, 22, 23, 24, 25, 26, 27, 28, 29, 30, 31, 32, 33, 34, 35, 36, 37, 38, 39, 40, 41, 42, 43, 44, 45, 46, 47, 48, 49, 50, 51, 52, 53, 54, 55, 56, 57, 58, 59, 60, 61, 62, 63, 64, 65, 66, 67, 68, 69, 70, 71, 72, 73, 74, 75, 76, 77, 78, 79, 80, 81, 82, 83, 84, 85, 86, 87, 88, 89, 90, 91, 92, 93, 94, 95, 96, 97, 98, 99, 100, 101, 102, 103, 104, 105, 106, 107, 108, 109, 110, 111, 112, 113, 114, 115, 116, 117, 118, 119, 120, 121, 122, 123, 124, 125],
      "AcquisitionTime": ["142939.452500", "142940.652500", "142941.852500", "142943.052500", "142944.252500", "142945.452500", "142946.652500", "142947.852500", "142949.052500", "142950.252500", "142951.452500", "142952.652500", "142953.852500", "142955.052500", "142956.252500", "142957.452500", "142958.652500", "142959.852500", "143001.052500", "143002.252500", "143003.452500", "143004.652500", "143005.852500", "143007.052500", "143008.252500", "143009.452500", "143010.652500", "143011.852500", "143013.052500", "143014.252500", "143015.452500", "143016.652500", "143017.852500", "143019.052500", "143020.252500", "143021.452500", "143022.652500", "143023.852500", "143025.052500", "143026.252500", "143027.452500", "143028.652500", "143029.852500", "143031.052500", "143032.252500", "143033.452500", "143034.652500", "143035.852500", "143037.052500", "143038.252500", "143039.452500", "143040.652500", "143041.852500", "143043.052500", "143044.252500", "143045.452500", "143046.652500", "143047.852500", "143049.052500", "143050.252500", "143051.452500", "143052.652500", "143053.852500", "143055.052500", "143056.252500", "143057.452500", "143058.652500", "143059.852500", "143101.052500", "143102.252500", "143103.452500", "143104.652500", "143105.852500", "143107.052500", "143108.252500", "143109.452500", "143110.652500", "143111.852500", "143113.052500", "143114.252500", "143115.452500", "143116.652500", "143117.852500", "143119.052500", "143120.252500", "143121.452500", "143122.652500", "143123.852500", "143125.052500", "143126.252500", "143127.452500", "143128.652500", "143129.852500", "143131.052500", "143132.252500", "143133.452500", "143134.652500", "143135.852500", "143137.052500", "143138.252500", "143139.452500", "143140.652500", "143141.852500", "143143.052500", "143144.252500", "143145.452500", "143146.652500", "143147.852500", "143149.052500", "143150.252500", "143151.452500", "143152.652500", "143153.852500", "143155.052500", "143156.252500", "143157.452500", "143158.652500", "143159.852500", "143201.052500", "143202.252500", "143203.452500", "143204.652500", "143205.852500", "143207.052500", "143208.252500"],
      "ContentTime": ["143019.031000", "143019.035000", "143019.038000", "143019.040000", "143019.052000", "143019.062000", "143019.065000", "143019.067000", "143019.070000", "143019.072000", "143019.075000", "143019.078000", "143019.080000", "143019.083000", "143019.086000", "143019.088000", "143019.091000", "143019.093000", "143019.096000", "143019.098000", "143019.101000", "143019.103000", "143019.111000", "143019.114000", "143019.117000", "143019.120000", "143019.123000", "143019.126000", "143019.129000", "143019.132000", "143019.134000", "143019.137000", "143059.009000", "143059.012000", "143059.015000", "143059.017000", "143059.020000", "143059.023000", "143059.025000", "143059.028000", "143059.030000", "143059.033000", "143059.036000", "143059.038000", "143059.041000", "143059.043000", "143059.046000", "143059.048000", "143059.051000", "143059.053000", "143059.056000", "143059.058000", "143059.061000", "143059.064000", "143059.066000", "143059.069000", "143059.071000", "143059.074000", "143059.076000", "143059.082000", "143059.084000", "143059.087000", "143059.090000", "143059.092000", "143059.095000", "143059.098000", "143139.010000", "143139.014000", "143139.016000", "143139.019000", "143139.022000", "143139.025000", "143139.027000", "143139.030000", "143139.032000", "143139.036000", "143139.039000", "143139.041000", "143139.049000", "143139.052000", "143139.055000", "143139.057000", "143139.060000", "143139.063000", "143139.065000", "143139.068000", "143139.070000", "143139.073000", "143139.076000", "143139.078000", "143139.081000", "143139.084000", "143139.086000", "143139.089000", "143139.091000", "143139.094000", "143139.096000", "143139.099000", "143139.102000", "143209.592000", "143209.595000", "143209.598000", "143209.600000", "143209.603000", "143209.606000", "143209.608000", "143209.611000", "143209.614000", "143209.617000", "143209.620000", "143209.623000", "143209.626000", "143209.629000", "143209.631000", "143209.634000", "143209.637000", "143209.639000", "143209.642000", "143209.645000", "143209.647000", "143209.650000", "143209.652000", "143209.655000", "143209.658000", "143209.660000"],
      "InstanceCreationTime": ["143019.031000", "143019.035000", "143019.038000", "143019.040000", "143019.052000", "143019.062000", "143019.065000", "143019.067000", "143019.070000", "143019.072000", "143019.075000", "143019.078000", "143019.080000", "143019.083000", "143019.086000", "143019.088000", "143019.091000", "143019.093000", "143019.096000", "143019.098000", "143019.101000", "143019.103000", "143019.111000", "143019.114000", "143019.117000", "143019.120000", "143019.123000", "143019.126000", "143019.129000", "143019.132000", "143019.134000", "143019.137000", "143059.009000", "143059.012000", "143059.015000", "143059.017000", "143059.020000", "143059.023000", "143059.025000", "143059.028000", "143059.030000", "143059.033000", "143059.036000", "143059.038000", "143059.041000", "143059.043000", "143059.046000", "143059.048000", "143059.051000", "143059.053000", "143059.056000", "143059.058000", "143059.061000", "143059.064000", "143059.066000", "143059.069000", "143059.071000", "143059.074000", "143059.076000", "143059.082000", "143059.084000", "143059.087000", "143059.090000", "143059.092000", "143059.095000", "143059.098000", "143139.010000", "143139.014000", "143139.016000", "143139.019000", "143139.022000", "143139.025000", "143139.027000", "143139.030000", "143139.032000", "143139.036000", "143139.039000", "143139.041000", "143139.049000", "143139.052000", "143139.055000", "143139.057000", "143139.060000", "143139.063000", "143139.065000", "143139.068000", "143139.070000", "143139.073000", "143139.076000", "143139.078000", "143139.081000", "143139.084000", "143139.086000", "143139.089000", "143139.091000", "143139.094000", "143139.096000", "143139.099000", "143139.102000", "143209.592000", "143209.595000", "143209.598000", "143209.600000", "143209.603000", "143209.606000", "143209.608000", "143209.611000", "143209.614000", "143209.617000", "143209.620000", "143209.623000", "143209.626000", "143209.629000", "143209.631000", "143209.634000", "143209.637000", "143209.639000", "143209.642000", "143209.645000", "143209.647000", "143209.650000", "143209.652000", "143209.655000", "143209.658000", "143209.660000"],
      "InstanceNumber": [1, 2, 3, 4, 5, 6, 7, 8, 9, 10, 11, 12, 13, 14, 15, 16, 17, 18, 19, 20, 21, 22, 23, 24, 25, 26, 27, 28, 29, 30, 31, 32, 33, 34, 35, 36, 37, 38, 39, 40, 41, 42, 43, 44, 45, 46, 47, 48, 49, 50, 51, 52, 53, 54, 55, 56, 57, 58, 59, 60, 61, 62, 63, 64, 65, 66, 67, 68, 69, 70, 71, 72, 73, 74, 75, 76, 77, 78, 79, 80, 81, 82, 83, 84, 85, 86, 87, 88, 89, 90, 91, 92, 93, 94, 95, 96, 97, 98, 99, 100, 101, 102, 103, 104, 105, 106, 107, 108, 109, 110, 111, 112, 113, 114, 115, 116, 117, 118, 119, 120, 121, 122, 123, 124, 125],
      "LargestImagePixelValue": [1896, 1764, 1773, 1706, 1651, 1640, 1589, 1608, 1682, 1589, 1600, 1602, 1636, 1711, 1665, 1726, 1753, 1717, 1583, 1583, 1689, 1676, 1623, 1625, 1670, 1656, 1740, 1674, 1592, 1617, 1658, 1609, 1605, 1628, 1669, 1640, 1666, 1645, 1678, 1704, 1693, 1622, 1858, 1643, 1691, 1655, 1754, 1701, 1629, 1722, 1646, 1632, 1733, 1692, 1828, 1658, 1657, 1622, 1615, 1649, 1691, 1619, 1644, 1639, 1630, 1651, 1679, 1680, 1617, 1629, 1685, 1725, 1660, 1649, 1720, 1706, 1696, 1616, 1624, 1650, 1608, 1606, 1638, 1623, 1684, 1634, 1630, 1672, 1695, 1650, 1781, 1632, 1740, 1684, 1695, 1855, 1708, 1712, 1615, 1778, 1626, 1663, 1617, 1626, 1811, 1753, 1684, 1672, 1689, 1651, 1679, 1715, 1624, 1636, 1711, 1634, 1630, 1708, 1693, 1708, 1747, 1788, 1804, 1677, 1617],
      "WindowCenter": [559.0, 554.0, 554.0, 552.0, 552.0, 551.0, 551.0, 551.0, 552.0, 551.0, 551.0, 551.0, 552.0, 554.0, 552.0, 553.0, 553.0, 551.0, 548.0, 548.0, 550.0, 551.0, 551.0, 551.0, 553.0, 552.0, 551.0, 548.0, 546.0, 547.0, 548.0, 548.0, 548.0, 548.0, 550.0, 550.0, 551.0, 550.0, 550.0, 550.0, 550.0, 549.0, 552.0, 549.0, 551.0, 551.0, 552.0, 551.0, 550.0, 551.0, 550.0, 550.0, 552.0, 551.0, 552.0, 548.0, 549.0, 548.0, 548.0, 549.0, 551.0, 550.0, 550.0, 550.0, 550.0, 550.0, 550.0, 551.0, 549.0, 549.0, 550.0, 551.0, 550.0, 551.0, 553.0, 552.0, 552.0, 552.0, 551.0, 551.0, 549.0, 549.0, 550.0, 549.0, 549.0, 549.0, 550.0, 550.0, 551.0, 552.0, 553.0, 551.0, 552.0, 551.0, 552.0, 553.0, 551.0, 551.0, 549.0, 551.0, 548.0, 549.0, 547.0, 548.0, 551.0, 551.0, 550.0, 549.0, 548.0, 547.0, 548.0, 550.0, 548.0, 548.0, 550.0, 549.0, 549.0, 550.0, 550.0, 551.0, 551.0, 552.0, 552.0, 550.0, 549.0],
      "WindowWidth": [1183.0, 1174.0, 1173.0, 1169.0, 1168.0, 1167.0, 1167.0, 1168.0, 1170.0, 1168.0, 1169.0, 1168.0, 1169.0, 1172.0, 1170.0, 1171.0, 1169.0, 1166.0, 1161.0, 1161.0, 1165.0, 1166.0, 1167.0, 1169.0, 1170.0, 1168.0, 1167.0, 1161.0, 1158.0, 1158.0, 1161.0, 1161.0, 1161.0, 1161.0, 1165.0, 1165.0, 1167.0, 1165.0, 1164.0, 1164.0, 1164.0, 1162.0, 1168.0, 1164.0, 1167.0, 1166.0, 1168.0, 1168.0, 1165.0, 1166.0, 1164.0, 1165.0, 1168.0, 1167.0, 1168.0, 1161.0, 1162.0, 1162.0, 1162.0, 1164.0, 1167.0, 1165.0, 1165.0, 1165.0, 1166.0, 1164.0, 1166.0, 1166.0, 1163.0, 1163.0, 1165.0, 1166.0, 1166.0, 1168.0, 1170.0, 1170.0, 1170.0, 1169.0, 1168.0, 1168.0, 1165.0, 1163.0, 1165.0, 1163.0, 1164.0, 1164.0, 1165.0, 1166.0, 1167.0, 1169.0, 1171.0, 1167.0, 1169.0, 1168.0, 1168.0, 1170.0, 1167.0, 1166.0, 1162.0, 1166.0, 1161.0, 1162.0, 1160.0, 1160.0, 1167.0, 1167.0, 1164.0, 1163.0, 1161.0, 1159.0, 1162.0, 1164.0, 1160.0, 1161.0, 1165.0, 1163.0, 1163.0, 1164.0, 1166.0, 1167.0, 1166.0, 1168.0, 1169.0, 1164.0, 1163.0]
    },
    "slices": {}
  }
}