{
  "AcquisitionMatrixPE": 88,
  "AcquisitionNumber": 1,
  "AcquisitionTime": "14:09:14.952500",
  "BandwidthPerPixelPhaseEncode": 19.592,
  "BaseResolution": 88,
  "BodyPartExamined": "BRAIN",
  "ConsistencyInfo": "N4_VE11C_LATEST_20160120",
  "ConversionSoftware": "dcm2niix",
  "ConversionSoftwareVersion": "v1.0.20190902",
  "DerivedVendorReportedEchoSpacing": 0.000580014,
  "DeviceSerialNumber": "67050",
  "DwellTime": 2.6e-06,
  "EchoTime": 0.033,
  "EchoTrainLength": 88,
  "EffectiveEchoSpacing": 0.000580014,
  "FlipAngle": 62,
  "ImageOrientationPatientDICOM": [0.997562, 0.0543138, -0.0438263, -0.0555977, 0.998043, -0.0286287],
  "ImageType": [
    "ORIGINAL",
    "PRIMARY",
    "M",
    "ND",
    "MOSAIC"
],
  "ImagingFrequency": 123.251,
  "InPlanePhaseEncodingDirectionDICOM": "COL",
  "InstitutionAddress": "Olive_Street_60_Providence_RI_US_02912",
  "InstitutionName": "BROWN_UNIVERSITY_MRF",
  "InstitutionalDepartmentName": "Department",
  "MRAcquisitionType": "2D",
  "MagneticFieldStrength": 3,
  "Manufacturer": "Siemens",
  "ManufacturersModelName": "Prisma_fit",
  "Modality": "MR",
  "MultibandAccelerationFactor": 4,
  "PartialFourier": 1,
  "PatientPosition": "HFS",
  "PercentPhaseFOV": 100,
  "PhaseEncodingDirection": "j-",
  "PhaseEncodingSteps": 88,
  "PhaseResolution": 1,
  "PixelBandwidth": 2185,
  "ProcedureStepDescription": "ASHENHAV_1222",
  "ProtocolName": "func-bold_task-RDMcolor_run-04",
  "PulseSequenceDetails": "%SiemensSeq%_ep2d_bold",
  "ReceiveCoilActiveElements": "HC1-7;NC1",
  "ReceiveCoilName": "HeadNeck_64",
  "ReconMatrixPE": 88,
  "RefLinesPE": 8,
  "RepetitionTime": 1.2,
  "SAR": 0.0484969,
  "ScanOptions": "FS",
  "ScanningSequence": "EP",
  "SequenceName": "_epfid2d1_88",
  "SequenceVariant": "SK",
  "SeriesDescription": "func-bold_task-RDMcolor_run-04",
  "SeriesNumber": 14,
  "ShimSetting": [1749, -9087, 4383, 363, -43, -237, -162, 6],
  "SliceThickness": 2.4,
  "SliceTiming": [0.55, 0, 0.63, 0.0775, 0.7075, 0.1575, 0.7875, 0.235, 0.865, 0.315, 0.945, 0.3925, 1.0225, 0.4725, 1.1, 0.55, 0, 0.63, 0.0775, 0.7075, 0.1575, 0.7875, 0.235, 0.865, 0.315, 0.945, 0.3925, 1.0225, 0.4725, 1.1, 0.55, 0, 0.63, 0.0775, 0.7075, 0.1575, 0.7875, 0.235, 0.865, 0.315, 0.945, 0.3925, 1.0225, 0.4725, 1.1, 0.55, 0, 0.63, 0.0775, 0.7075, 0.1575, 0.7875, 0.235, 0.865, 0.315, 0.945, 0.3925, 1.0225, 0.4725, 1.1],
  "SoftwareVersions": "syngo_MR_E11",
  "SpacingBetweenSlices": 2.4,
  "StationName": "AWP67050",
  "TaskName": "RDMcolor",
  "TotalReadoutTime": 0.0504612,
  "TxRefAmp": 218.677,
  "dcmmeta_affine": [
    [-2.391880750656128, -0.13330815732479095, -0.10124549269676208, 114.77777099609375],
    [-0.13022959232330322, 2.3930342197418213, -0.07438936084508896, -83.39673614501953],
    [-0.10508359968662262, 0.06864388287067413, 2.3967092037200928, -57.30762481689453],
    [0.0, 0.0, 0.0, 1.0]
],
  "dcmmeta_reorient_transform": [
    [0.0, -1.0, 0.0, 87.0],
    [1.0, 0.0, 0.0, 0.0],
    [0.0, 0.0, 1.0, 0.0],
    [0.0, 0.0, 0.0, 1.0]
],
  "dcmmeta_shape": [88, 88, 60, 392],
  "dcmmeta_slice_dim": 2,
  "dcmmeta_version": 0.6,
  "global": {
    "const": {
      "AcquisitionMatrix": [88, 0, 0, 88],
      "AngioFlag": "N",
      "BitsAllocated": 16,
      "BitsStored": 12,
      "BodyPartExamined": "BRAIN",
      "Columns": 704,
      "DeidentificationMethodCodeSequence": [
        {
          "CodeMeaning": "XNAT DicomEdit 6 Script",
          "CodeValue": "3",
          "CodingSchemeDesignator": "XNAT",
          "CodingSchemeVersion": "1.0"}
],
      "EchoNumbers": 1,
      "EchoTime": 33.0,
      "EchoTrainLength": 88,
      "FlipAngle": 62.0,
      "HighBit": 11,
      "ImageOrientationPatient": [0.99756166082786, 0.05431376454039, -0.0438263371481, -0.0555977162785, 0.9980427294218, -0.0286287302008],
      "ImagePositionPatient": [-798.82033143562, -901.96250683216, 2.1724582172377],
      "ImageType": [
        "ORIGINAL",
        "PRIMARY",
        "M",
        "ND",
        "MOSAIC"
],
      "ImagedNucleus": "1H",
      "ImagingFrequency": 123.250534,
      "InPlanePhaseEncodingDirection": "COL",
      "MRAcquisitionType": "2D",
      "MagneticFieldStrength": 3.0,
      "Manufacturer": "SIEMENS",
      "ManufacturerModelName": "Prisma_fit",
      "Modality": "MR",
      "NumberOfAverages": 1.0,
      "NumberOfPhaseEncodingSteps": 88,
      "PercentPhaseFieldOfView": 100.0,
      "PercentSampling": 100.0,
      "PerformedProcedureStepStartTime": "132250.855000",
      "PhotometricInterpretation": "MONOCHROME2",
      "PixelBandwidth": 2185.0,
      "PixelRepresentation": 0,
      "PixelSpacing": [2.3977272510529, 2.3977272510529],
      "ProtocolName": "func-bold_task-RDMcolor_run-04",
      "RepetitionTime": 1200.0,
      "Rows": 704,
      "SAR": 0.04849686522983,
      "SamplesPerPixel": 1,
      "ScanOptions": "FS",
      "ScanningSequence": "EP",
      "SequenceName": "*epfid2d1_88",
      "SequenceVariant": "SK",
      "SeriesDescription": "func-bold_task-RDMcolor_run-04",
      "SeriesNumber": 14,
      "SeriesTime": "140959.024000",
      "SliceLocation": -59.486093979055,
      "SliceThickness": 2.4000000953674,
      "SmallestImagePixelValue": 0,
      "SoftwareVersions": "syngo MR E11",
      "SpacingBetweenSlices": 2.3999999920267,
      "SpecificCharacterSet": "ISO_IR 100",
      "StudyID": "1",
      "StudyTime": "132250.761000",
      "TransmitCoilName": "Body",
      "VariableFlipAngleFlag": "N",
      "WindowCenterWidthExplanation": "Algo1",
      "dBdt": 0.0},
    "slices": {}
  },
  "time": {
    "samples": {
      "AcquisitionNumber": [1, 2, 3, 4, 5, 6, 7, 8, 9, 10, 11, 12, 13, 14, 15, 16, 17, 18, 19, 20, 21, 22, 23, 24, 25, 26, 27, 28, 29, 30, 31, 32, 33, 34, 35, 36, 37, 38, 39, 40, 41, 42, 43, 44, 45, 46, 47, 48, 49, 50, 51, 52, 53, 54, 55, 56, 57, 58, 59, 60, 61, 62, 63, 64, 65, 66, 67, 68, 69, 70, 71, 72, 73, 74, 75, 76, 77, 78, 79, 80, 81, 82, 83, 84, 85, 86, 87, 88, 89, 90, 91, 92, 93, 94, 95, 96, 97, 98, 99, 100, 101, 102, 103, 104, 105, 106, 107, 108, 109, 110, 111, 112, 113, 114, 115, 116, 117, 118, 119, 120, 121, 122, 123, 124, 125, 126, 127, 128, 129, 130, 131, 132, 133, 134, 135, 136, 137, 138, 139, 140, 141, 142, 143, 144, 145, 146, 147, 148, 149, 150, 151, 152, 153, 154, 155, 156, 157, 158, 159, 160, 161, 162, 163, 164, 165, 166, 167, 168, 169, 170, 171, 172, 173, 174, 175, 176, 177, 178, 179, 180, 181, 182, 183, 184, 185, 186, 187, 188, 189, 190, 191, 192, 193, 194, 195, 196, 197, 198, 199, 200, 201, 202, 203, 204, 205, 206, 207, 208, 209, 210, 211, 212, 213, 214, 215, 216, 217, 218, 219, 220, 221, 222, 223, 224, 225, 226, 227, 228, 229, 230, 231, 232, 233, 234, 235, 236, 237, 238, 239, 240, 241, 242, 243, 244, 245, 246, 247, 248, 249, 250, 251, 252, 253, 254, 255, 256, 257, 258, 259, 260, 261, 262, 263, 264, 265, 266, 267, 268, 269, 270, 271, 272, 273, 274, 275, 276, 277, 278, 279, 280, 281, 282, 283, 284, 285, 286, 287, 288, 289, 290, 291, 292, 293, 294, 295, 296, 297, 298, 299, 300, 301, 302, 303, 304, 305, 306, 307, 308, 309, 310, 311, 312, 313, 314, 315, 316, 317, 318, 319, 320, 321, 322, 323, 324, 325, 326, 327, 328, 329, 330, 331, 332, 333, 334, 335, 336, 337, 338, 339, 340, 341, 342, 343, 344, 345, 346, 347, 348, 349, 350, 351, 352, 353, 354, 355, 356, 357, 358, 359, 360, 361, 362, 363, 364, 365, 366, 367, 368, 369, 370, 371, 372, 373, 374, 375, 376, 377, 378, 379, 380, 381, 382, 383, 384, 385, 386, 387, 388, 389, 390, 391, 392],
      "AcquisitionTime": ["140914.952500", "140916.152500", "140917.352500", "140918.552500", "140919.752500", "140920.952500", "140922.152500", "140923.352500", "140924.552500", "140925.752500", "140926.952500", "140928.152500", "140929.352500", "140930.552500", "140931.752500", "140932.952500", "140934.152500", "140935.352500", "140936.552500", "140937.752500", "140938.952500", "140940.152500", "140941.352500", "140942.552500", "140943.752500", "140944.952500", "140946.152500", "140947.352500", "140948.552500", "140949.752500", "140950.952500", "140952.152500", "140953.352500", "140954.552500", "140955.752500", "140956.952500", "140958.152500", "140959.352500", "141000.552500", "141001.752500", "141002.952500", "141004.152500", "141005.352500", "141006.552500", "141007.752500", "141008.952500", "141010.152500", "141011.352500", "141012.552500", "141013.752500", "141014.952500", "141016.152500", "141017.352500", "141018.552500", "141019.752500", "141020.952500", "141022.152500", "141023.352500", "141024.552500", "141025.752500", "141026.952500", "141028.152500", "141029.352500", "141030.552500", "141031.752500", "141032.952500", "141034.152500", "141035.352500", "141036.552500", "141037.752500", "141038.952500", "141040.152500", "141041.352500", "141042.552500", "141043.752500", "141044.952500", "141046.152500", "141047.352500", "141048.552500", "141049.752500", "141050.952500", "141052.152500", "141053.352500", "141054.552500", "141055.752500", "141056.952500", "141058.152500", "141059.352500", "141100.552500", "141101.752500", "141102.952500", "141104.152500", "141105.352500", "141106.552500", "141107.752500", "141108.952500", "141110.152500", "141111.352500", "141112.552500", "141113.752500", "141114.952500", "141116.152500", "141117.352500", "141118.552500", "141119.752500", "141120.952500", "141122.152500", "141123.352500", "141124.552500", "141125.752500", "141126.952500", "141128.152500", "141129.352500", "141130.552500", "141131.752500", "141132.952500", "141134.152500", "141135.352500", "141136.552500", "141137.752500", "141138.952500", "141140.152500", "141141.352500", "141142.552500", "141143.752500", "141144.952500", "141146.152500", "141147.352500", "141148.552500", "141149.752500", "141150.952500", "141152.152500", "141153.352500", "141154.552500", "141155.752500", "141156.952500", "141158.152500", "141159.352500", "141200.552500", "141201.752500", "141202.952500", "141204.152500", "141205.352500", "141206.552500", "141207.752500", "141208.952500", "141210.152500", "141211.352500", "141212.552500", "141213.752500", "141214.952500", "141216.152500", "141217.352500", "141218.552500", "141219.752500", "141220.952500", "141222.152500", "141223.352500", "141224.552500", "141225.752500", "141226.952500", "141228.152500", "141229.352500", "141230.552500", "141231.752500", "141232.952500", "141234.152500", "141235.352500", "141236.552500", "141237.752500", "141238.952500", "141240.152500", "141241.352500", "141242.552500", "141243.752500", "141244.952500", "141246.152500", "141247.352500", "141248.552500", "141249.752500", "141250.952500", "141252.152500", "141253.352500", "141254.552500", "141255.752500", "141256.952500", "141258.152500", "141259.352500", "141300.552500", "141301.752500", "141302.952500", "141304.152500", "141305.352500", "141306.552500", "141307.752500", "141308.952500", "141310.152500", "141311.352500", "141312.552500", "141313.752500", "141314.952500", "141316.152500", "141317.352500", "141318.552500", "141319.752500", "141320.952500", "141322.152500", "141323.352500", "141324.552500", "141325.752500", "141326.952500", "141328.152500", "141329.352500", "141330.552500", "141331.752500", "141332.952500", "141334.152500", "141335.352500", "141336.552500", "141337.752500", "141338.952500", "141340.152500", "141341.352500", "141342.552500", "141343.752500", "141344.952500", "141346.152500", "141347.352500", "141348.552500", "141349.752500", "141350.952500", "141352.152500", "141353.352500", "141354.552500", "141355.752500", "141356.952500", "141358.152500", "141359.352500", "141400.552500", "141401.752500", "141402.952500", "141404.152500", "141405.352500", "141406.552500", "141407.752500", "141408.952500", "141410.152500", "141411.352500", "141412.552500", "141413.752500", "141414.952500", "141416.152500", "141417.352500", "141418.552500", "141419.752500", "141420.952500", "141422.152500", "141423.352500", "141424.552500", "141425.752500", "141426.952500", "141428.152500", "141429.352500", "141430.552500", "141431.752500", "141432.952500", "141434.152500", "141435.352500", "141436.552500", "141437.752500", "141438.952500", "141440.152500", "141441.352500", "141442.552500", "141443.752500", "141444.952500", "141446.152500", "141447.352500", "141448.552500", "141449.752500", "141450.952500", "141452.152500", "141453.352500", "141454.552500", "141455.752500", "141456.952500", "141458.152500", "141459.352500", "141500.552500", "141501.752500", "141502.952500", "141504.152500", "141505.352500", "141506.552500", "141507.752500", "141508.952500", "141510.152500", "141511.352500", "141512.552500", "141513.752500", "141514.952500", "141516.152500", "141517.352500", "141518.552500", "141519.752500", "141520.952500", "141522.152500", "141523.352500", "141524.552500", "141525.752500", "141526.952500", "141528.152500", "141529.352500", "141530.552500", "141531.752500", "141532.952500", "141534.152500", "141535.352500", "141536.552500", "141537.752500", "141538.952500", "141540.152500", "141541.352500", "141542.552500", "141543.752500", "141544.952500", "141546.152500", "141547.352500", "141548.552500", "141549.752500", "141550.952500", "141552.152500", "141553.352500", "141554.552500", "141555.752500", "141556.952500", "141558.152500", "141559.352500", "141600.552500", "141601.752500", "141602.952500", "141604.152500", "141605.352500", "141606.552500", "141607.752500", "141608.952500", "141610.152500", "141611.352500", "141612.552500", "141613.752500", "141614.952500", "141616.152500", "141617.352500", "141618.552500", "141619.752500", "141620.952500", "141622.152500", "141623.352500", "141624.552500", "141625.752500", "141626.952500", "141628.152500", "141629.352500", "141630.552500", "141631.752500", "141632.952500", "141634.152500", "141635.352500", "141636.552500", "141637.752500", "141638.952500", "141640.152500", "141641.352500", "141642.552500", "141643.752500", "141644.952500", "141646.152500", "141647.352500", "141648.552500", "141649.752500", "141650.952500", "141652.152500", "141653.352500", "141654.552500", "141655.752500", "141656.952500", "141658.152500", "141659.352500", "141700.552500", "141701.752500", "141702.952500", "141704.152500"],
      "ContentTime": ["140959.028000", "140959.031000", "140959.033000", "140959.036000", "140959.039000", "140959.041000", "140959.044000", "140959.046000", "140959.056000", "140959.058000", "140959.061000", "140959.063000", "140959.066000", "140959.069000", "140959.071000", "140959.074000", "140959.076000", "140959.079000", "140959.081000", "140959.084000", "140959.087000", "140959.089000", "140959.092000", "140959.094000", "140959.097000", "140959.099000", "140959.102000", "140959.108000", "140959.111000", "140959.114000", "140959.116000", "140959.119000", "140959.122000", "140959.124000", "140959.127000", "140959.129000", "141039.010000", "141039.012000", "141039.015000", "141039.018000", "141039.020000", "141039.023000", "141039.025000", "141039.028000", "141039.030000", "141039.033000", "141039.035000", "141039.038000", "141039.047000", "141039.050000", "141039.053000", "141039.055000", "141039.058000", "141039.060000", "141039.063000", "141039.066000", "141039.069000", "141039.072000", "141039.075000", "141039.077000", "141039.080000", "141039.082000", "141039.085000", "141039.087000", "141039.090000", "141039.093000", "141039.095000", "141039.098000", "141039.100000", "141119.010000", "141119.013000", "141119.016000", "141119.018000", "141119.021000", "141119.023000", "141119.044000", "141119.047000", "141119.050000", "141119.053000", "141119.056000", "141119.059000", "141119.061000", "141119.065000", "141119.067000", "141119.070000", "141119.073000", "141119.075000", "141119.078000", "141119.080000", "141119.083000", "141119.086000", "141119.089000", "141119.091000", "141119.094000", "141119.096000", "141119.099000", "141119.102000", "141119.104000", "141119.107000", "141119.109000", "141119.112000", "141119.114000", "141159.010000", "141159.012000", "141159.015000", "141159.018000", "141159.020000", "141159.023000", "141159.025000", "141159.028000", "141159.031000", "141159.033000", "141159.036000", "141159.039000", "141159.041000", "141159.044000", "141159.046000", "141159.049000", "141159.051000", "141159.054000", "141159.057000", "141159.059000", "141159.062000", "141159.064000", "141159.067000", "141159.070000", "141159.072000", "141159.075000", "141159.077000", "141159.080000", "141159.086000", "141159.089000", "141159.091000", "141159.094000", "141159.096000", "141159.108000", "141239.010000", "141239.012000", "141239.015000", "141239.018000", "141239.020000", "141239.023000", "141239.026000", "141239.028000", "141239.031000", "141239.034000", "141239.036000", "141239.039000", "141239.041000", "141239.044000", "141239.047000", "141239.049000", "141239.052000", "141239.054000", "141239.057000", "141239.060000", "141239.062000", "141239.066000", "141239.068000", "141239.071000", "141239.073000", "141239.076000", "141239.079000", "141239.081000", "141239.084000", "141239.086000", "141239.089000", "141239.092000", "141239.095000", "141319.011000", "141319.014000", "141319.016000", "141319.019000", "141319.021000", "141319.024000", "141319.027000", "141319.029000", "141319.032000", "141319.035000", "141319.038000", "141319.040000", "141319.043000", "141319.046000", "141319.049000", "141319.051000", "141319.054000", "141319.057000", "141319.060000", "141319.062000", "141319.065000", "141319.067000", "141319.070000", "141319.073000", "141319.075000", "141319.078000", "141319.080000", "141319.104000", "141319.113000", "141319.116000", "141319.118000", "141319.121000", "141319.124000", "141359.009000", "141359.012000", "141359.015000", "141359.018000", "141359.020000", "141359.023000", "141359.025000", "141359.028000", "141359.031000", "141359.033000", "141359.036000", "141359.039000", "141359.041000", "141359.044000", "141359.046000", "141359.049000", "141359.051000", "141359.054000", "141359.057000", "141359.059000", "141359.062000", "141359.065000", "141359.067000", "141359.070000", "141359.072000", "141359.075000", "141359.077000", "141359.080000", "141359.082000", "141359.085000", "141359.088000", "141359.090000", "141359.093000", "141359.095000", "141439.009000", "141439.012000", "141439.015000", "141439.017000", "141439.021000", "141439.023000", "141439.026000", "141439.028000", "141439.031000", "141439.034000", "141439.036000", "141439.039000", "141439.041000", "141439.044000", "141439.047000", "141439.049000", "141439.052000", "141439.055000", "141439.057000", "141439.060000", "141439.062000", "141439.065000", "141439.068000", "141439.071000", "141439.073000", "141439.076000", "141439.079000", "141439.081000", "141439.084000", "141439.087000", "141439.089000", "141439.092000", "141439.094000", "141519.010000", "141519.013000", "141519.015000", "141519.018000", "141519.020000", "141519.023000", "141519.026000", "141519.028000", "141519.031000", "141519.034000", "141519.036000", "141519.039000", "141519.041000", "141519.044000", "141519.046000", "141519.049000", "141519.052000", "141519.055000", "141519.057000", "141519.060000", "141519.063000", "141519.066000", "141519.069000", "141519.072000", "141519.074000", "141519.077000", "141519.080000", "141519.082000", "141519.085000", "141519.087000", "141519.090000", "141519.093000", "141519.095000", "141559.011000", "141559.014000", "141559.016000", "141559.019000", "141559.022000", "141559.024000", "141559.027000", "141559.029000", "141559.032000", "141559.035000", "141559.037000", "141559.040000", "141559.043000", "141559.045000", "141559.048000", "141559.050000", "141559.053000", "141559.056000", "141559.058000", "141559.061000", "141559.064000", "141559.066000", "141559.069000", "141559.071000", "141559.074000", "141559.076000", "141559.079000", "141559.082000", "141559.084000", "141559.087000", "141559.089000", "141559.092000", "141559.095000", "141559.097000", "141639.009000", "141639.012000", "141639.015000", "141639.018000", "141639.020000", "141639.023000", "141639.025000", "141639.028000", "141639.031000", "141639.033000", "141639.036000", "141639.038000", "141639.041000", "141639.044000", "141639.046000", "141639.049000", "141639.051000", "141639.054000", "141639.057000", "141639.059000", "141639.062000", "141639.065000", "141639.067000", "141639.070000", "141639.073000", "141639.075000", "141639.078000", "141639.081000", "141639.083000", "141639.086000", "141639.088000", "141639.091000", "141639.094000", "141705.907000", "141705.910000", "141705.912000", "141705.915000", "141705.918000", "141705.920000", "141705.923000", "141705.925000", "141705.928000", "141705.931000", "141705.933000", "141705.950000", "141705.952000", "141705.955000", "141705.958000", "141705.960000", "141705.963000", "141705.965000", "141705.968000", "141705.971000", "141705.973000", "141705.984000", "141705.987000"],
      "InstanceCreationTime": ["140959.028000", "140959.031000", "140959.033000", "140959.036000", "140959.039000", "140959.041000", "140959.044000", "140959.046000", "140959.056000", "140959.058000", "140959.061000", "140959.063000", "140959.066000", "140959.069000", "140959.071000", "140959.074000", "140959.076000", "140959.079000", "140959.081000", "140959.084000", "140959.087000", "140959.089000", "140959.092000", "140959.094000", "140959.097000", "140959.099000", "140959.102000", "140959.108000", "140959.111000", "140959.114000", "140959.116000", "140959.119000", "140959.122000", "140959.124000", "140959.127000", "140959.129000", "141039.010000", "141039.012000", "141039.015000", "141039.018000", "141039.020000", "141039.023000", "141039.025000", "141039.028000", "141039.030000", "141039.033000", "141039.035000", "141039.038000", "141039.047000", "141039.050000", "141039.053000", "141039.055000", "141039.058000", "141039.060000", "141039.063000", "141039.066000", "141039.069000", "141039.072000", "141039.075000", "141039.077000", "141039.080000", "141039.082000", "141039.085000", "141039.087000", "141039.090000", "141039.093000", "141039.095000", "141039.098000", "141039.100000", "141119.010000", "141119.013000", "141119.016000", "141119.018000", "141119.021000", "141119.023000", "141119.044000", "141119.047000", "141119.050000", "141119.053000", "141119.056000", "141119.059000", "141119.061000", "141119.065000", "141119.067000", "141119.070000", "141119.073000", "141119.075000", "141119.078000", "141119.080000", "141119.083000", "141119.086000", "141119.089000", "141119.091000", "141119.094000", "141119.096000", "141119.099000", "141119.102000", "141119.104000", "141119.107000", "141119.109000", "141119.112000", "141119.114000", "141159.010000", "141159.012000", "141159.015000", "141159.018000", "141159.020000", "141159.023000", "141159.025000", "141159.028000", "141159.031000", "141159.033000", "141159.036000", "141159.039000", "141159.041000", "141159.044000", "141159.046000", "141159.049000", "141159.051000", "141159.054000", "141159.057000", "141159.059000", "141159.062000", "141159.064000", "141159.067000", "141159.070000", "141159.072000", "141159.075000", "141159.077000", "141159.080000", "141159.086000", "141159.089000", "141159.091000", "141159.094000", "141159.096000", "141159.108000", "141239.010000", "141239.012000", "141239.015000", "141239.018000", "141239.020000", "141239.023000", "141239.026000", "141239.028000", "141239.031000", "141239.034000", "141239.036000", "141239.039000", "141239.041000", "141239.044000", "141239.047000", "141239.049000", "141239.052000", "141239.054000", "141239.057000", "141239.060000", "141239.062000", "141239.066000", "141239.068000", "141239.071000", "141239.073000", "141239.076000", "141239.079000", "141239.081000", "141239.084000", "141239.086000", "141239.089000", "141239.092000", "141239.095000", "141319.011000", "141319.014000", "141319.016000", "141319.019000", "141319.021000", "141319.024000", "141319.027000", "141319.029000", "141319.032000", "141319.035000", "141319.038000", "141319.040000", "141319.043000", "141319.046000", "141319.049000", "141319.051000", "141319.054000", "141319.057000", "141319.060000", "141319.062000", "141319.065000", "141319.067000", "141319.070000", "141319.073000", "141319.075000", "141319.078000", "141319.080000", "141319.104000", "141319.113000", "141319.116000", "141319.118000", "141319.121000", "141319.124000", "141359.009000", "141359.012000", "141359.015000", "141359.018000", "141359.020000", "141359.023000", "141359.025000", "141359.028000", "141359.031000", "141359.033000", "141359.036000", "141359.039000", "141359.041000", "141359.044000", "141359.046000", "141359.049000", "141359.051000", "141359.054000", "141359.057000", "141359.059000", "141359.062000", "141359.065000", "141359.067000", "141359.070000", "141359.072000", "141359.075000", "141359.077000", "141359.080000", "141359.082000", "141359.085000", "141359.088000", "141359.090000", "141359.093000", "141359.095000", "141439.009000", "141439.012000", "141439.015000", "141439.017000", "141439.021000", "141439.023000", "141439.026000", "141439.028000", "141439.031000", "141439.034000", "141439.036000", "141439.039000", "141439.041000", "141439.044000", "141439.047000", "141439.049000", "141439.052000", "141439.055000", "141439.057000", "141439.060000", "141439.062000", "141439.065000", "141439.068000", "141439.071000", "141439.073000", "141439.076000", "141439.079000", "141439.081000", "141439.084000", "141439.087000", "141439.089000", "141439.092000", "141439.094000", "141519.010000", "141519.013000", "141519.015000", "141519.018000", "141519.020000", "141519.023000", "141519.026000", "141519.028000", "141519.031000", "141519.034000", "141519.036000", "141519.039000", "141519.041000", "141519.044000", "141519.046000", "141519.049000", "141519.052000", "141519.055000", "141519.057000", "141519.060000", "141519.063000", "141519.066000", "141519.069000", "141519.072000", "141519.074000", "141519.077000", "141519.080000", "141519.082000", "141519.085000", "141519.087000", "141519.090000", "141519.093000", "141519.095000", "141559.011000", "141559.014000", "141559.016000", "141559.019000", "141559.022000", "141559.024000", "141559.027000", "141559.029000", "141559.032000", "141559.035000", "141559.037000", "141559.040000", "141559.043000", "141559.045000", "141559.048000", "141559.050000", "141559.053000", "141559.056000", "141559.058000", "141559.061000", "141559.064000", "141559.066000", "141559.069000", "141559.071000", "141559.074000", "141559.076000", "141559.079000", "141559.082000", "141559.084000", "141559.087000", "141559.089000", "141559.092000", "141559.095000", "141559.097000", "141639.009000", "141639.012000", "141639.015000", "141639.018000", "141639.020000", "141639.023000", "141639.025000", "141639.028000", "141639.031000", "141639.033000", "141639.036000", "141639.038000", "141639.041000", "141639.044000", "141639.046000", "141639.049000", "141639.051000", "141639.054000", "141639.057000", "141639.059000", "141639.062000", "141639.065000", "141639.067000", "141639.070000", "141639.073000", "141639.075000", "141639.078000", "141639.081000", "141639.083000", "141639.086000", "141639.088000", "141639.091000", "141639.094000", "141705.907000", "141705.910000", "141705.912000", "141705.915000", "141705.918000", "141705.920000", "141705.923000", "141705.925000", "141705.928000", "141705.931000", "141705.933000", "141705.950000", "141705.952000", "141705.955000", "141705.958000", "141705.960000", "141705.963000", "141705.965000", "141705.968000", "141705.971000", "141705.973000", "141705.984000", "141705.987000"],
      "InstanceNumber": [1, 2, 3, 4, 5, 6, 7, 8, 9, 10, 11, 12, 13, 14, 15, 16, 17, 18, 19, 20, 21, 22, 23, 24, 25, 26, 27, 28, 29, 30, 31, 32, 33, 34, 35, 36, 37, 38, 39, 40, 41, 42, 43, 44, 45, 46, 47, 48, 49, 50, 51, 52, 53, 54, 55, 56, 57, 58, 59, 60, 61, 62, 63, 64, 65, 66, 67, 68, 69, 70, 71, 72, 73, 74, 75, 76, 77, 78, 79, 80, 81, 82, 83, 84, 85, 86, 87, 88, 89, 90, 91, 92, 93, 94, 95, 96, 97, 98, 99, 100, 101, 102, 103, 104, 105, 106, 107, 108, 109, 110, 111, 112, 113, 114, 115, 116, 117, 118, 119, 120, 121, 122, 123, 124, 125, 126, 127, 128, 129, 130, 131, 132, 133, 134, 135, 136, 137, 138, 139, 140, 141, 142, 143, 144, 145, 146, 147, 148, 149, 150, 151, 152, 153, 154, 155, 156, 157, 158, 159, 160, 161, 162, 163, 164, 165, 166, 167, 168, 169, 170, 171, 172, 173, 174, 175, 176, 177, 178, 179, 180, 181, 182, 183, 184, 185, 186, 187, 188, 189, 190, 191, 192, 193, 194, 195, 196, 197, 198, 199, 200, 201, 202, 203, 204, 205, 206, 207, 208, 209, 210, 211, 212, 213, 214, 215, 216, 217, 218, 219, 220, 221, 222, 223, 224, 225, 226, 227, 228, 229, 230, 231, 232, 233, 234, 235, 236, 237, 238, 239, 240, 241, 242, 243, 244, 245, 246, 247, 248, 249, 250, 251, 252, 253, 254, 255, 256, 257, 258, 259, 260, 261, 262, 263, 264, 265, 266, 267, 268, 269, 270, 271, 272, 273, 274, 275, 276, 277, 278, 279, 280, 281, 282, 283, 284, 285, 286, 287, 288, 289, 290, 291, 292, 293, 294, 295, 296, 297, 298, 299, 300, 301, 302, 303, 304, 305, 306, 307, 308, 309, 310, 311, 312, 313, 314, 315, 316, 317, 318, 319, 320, 321, 322, 323, 324, 325, 326, 327, 328, 329, 330, 331, 332, 333, 334, 335, 336, 337, 338, 339, 340, 341, 342, 343, 344, 345, 346, 347, 348, 349, 350, 351, 352, 353, 354, 355, 356, 357, 358, 359, 360, 361, 362, 363, 364, 365, 366, 367, 368, 369, 370, 371, 372, 373, 374, 375, 376, 377, 378, 379, 380, 381, 382, 383, 384, 385, 386, 387, 388, 389, 390, 391, 392],
