{
  "AcquisitionMatrixPE": 88,
  "AcquisitionNumber": 1,
  "AcquisitionTime": "14:32:49.252500",
  "BandwidthPerPixelPhaseEncode": 19.592,
  "BaseResolution": 88,
  "BodyPartExamined": "BRAIN",
  "ConsistencyInfo": "N4_VE11C_LATEST_20160120",
  "ConversionSoftware": "dcm2niix",
  "ConversionSoftwareVersion": "v1.0.20190902",
  "DerivedVendorReportedEchoSpacing": 0.000580014,
  "DeviceSerialNumber": "67050",
  "DwellTime": 2.6e-06,
  "EchoTime": 0.033,
  "EchoTrainLength": 88,
  "EffectiveEchoSpacing": 0.000580014,
  "FlipAngle": 62,
  "ImageOrientationPatientDICOM": [0.997562, 0.0543138, -0.0438263, -0.0555977, 0.998043, -0.0286287],
  "ImageType": [
    "ORIGINAL",
    "PRIMARY",
    "M",
    "ND",
    "MOSAIC"
],
  "ImagingFrequency": 123.251,
  "InPlanePhaseEncodingDirectionDICOM": "COL",
  "InstitutionAddress": "Olive_Street_60_Providence_RI_US_02912",
  "InstitutionName": "BROWN_UNIVERSITY_MRF",
  "InstitutionalDepartmentName": "Department",
  "MRAcquisitionType": "2D",
  "MagneticFieldStrength": 3,
  "Manufacturer": "Siemens",
  "ManufacturersModelName": "Prisma_fit",
  "Modality": "MR",
  "MultibandAccelerationFactor": 4,
  "PartialFourier": 1,
  "PatientPosition": "HFS",
  "PercentPhaseFOV": 100,
  "PhaseEncodingDirection": "j-",
  "PhaseEncodingSteps": 88,
  "PhaseResolution": 1,
  "PixelBandwidth": 2185,
  "ProcedureStepDescription": "ASHENHAV_1222",
  "ProtocolName": "func-bold_task-RDMcolor_run-06",
  "PulseSequenceDetails": "%SiemensSeq%_ep2d_bold",
  "ReceiveCoilActiveElements": "HC1-7;NC1",
  "ReceiveCoilName": "HeadNeck_64",
  "ReconMatrixPE": 88,
  "RefLinesPE": 8,
  "RepetitionTime": 1.2,
  "SAR": 0.0484969,
  "ScanOptions": "FS",
  "ScanningSequence": "EP",
  "SequenceName": "_epfid2d1_88",
  "SequenceVariant": "SK",
  "SeriesDescription": "func-bold_task-RDMcolor_run-06",
  "SeriesNumber": 18,
  "ShimSetting": [1749, -9087, 4383, 363, -43, -237, -162, 6],
  "SliceThickness": 2.4,
  "SliceTiming": [0.55, 0, 0.63, 0.0775, 0.7075, 0.1575, 0.785, 0.235, 0.865, 0.315, 0.9425, 0.3925, 1.0225, 0.4725, 1.1, 0.55, 0, 0.63, 0.0775, 0.7075, 0.1575, 0.785, 0.235, 0.865, 0.315, 0.9425, 0.3925, 1.0225, 0.4725, 1.1, 0.55, 0, 0.63, 0.0775, 0.7075, 0.1575, 0.785, 0.235, 0.865, 0.315, 0.9425, 0.3925, 1.0225, 0.4725, 1.1, 0.55, 0, 0.63, 0.0775, 0.7075, 0.1575, 0.785, 0.235, 0.865, 0.315, 0.9425, 0.3925, 1.0225, 0.4725, 1.1],
  "SoftwareVersions": "syngo_MR_E11",
  "SpacingBetweenSlices": 2.4,
  "StationName": "AWP67050",
  "TaskName": "RDMcolor",
  "TotalReadoutTime": 0.0504612,
  "TxRefAmp": 218.677,
  "dcmmeta_affine": [
    [-2.391880750656128, -0.13330815732479095, -0.10124549269676208, 114.77777099609375],
    [-0.13022959232330322, 2.3930342197418213, -0.07438936084508896, -83.39673614501953],
    [-0.10508359968662262, 0.06864388287067413, 2.3967092037200928, -57.30762481689453],
    [0.0, 0.0, 0.0, 1.0]
],
  "dcmmeta_reorient_transform": [
    [0.0, -1.0, 0.0, 87.0],
    [1.0, 0.0, 0.0, 0.0],
    [0.0, 0.0, 1.0, 0.0],
    [0.0, 0.0, 0.0, 1.0]
],
  "dcmmeta_shape": [88, 88, 60, 392],
  "dcmmeta_slice_dim": 2,
  "dcmmeta_version": 0.6,
  "global": {
    "const": {
      "AcquisitionMatrix": [88, 0, 0, 88],
      "AngioFlag": "N",
      "BitsAllocated": 16,
      "BitsStored": 12,
      "BodyPartExamined": "BRAIN",
      "Columns": 704,
      "DeidentificationMethodCodeSequence": [
        {
          "CodeMeaning": "XNAT DicomEdit 6 Script",
          "CodeValue": "3",
          "CodingSchemeDesignator": "XNAT",
          "CodingSchemeVersion": "1.0"}
],
      "EchoNumbers": 1,
      "EchoTime": 33.0,
      "EchoTrainLength": 88,
      "FlipAngle": 62.0,
      "HighBit": 11,
      "ImageOrientationPatient": [0.99756166082786, 0.05431376454039, -0.0438263371481, -0.0555977162785, 0.9980427294218, -0.0286287302008],
      "ImagePositionPatient": [-798.82033143562, -901.96250683216, 2.1724582172377],
      "ImageType": [
        "ORIGINAL",
        "PRIMARY",
        "M",
        "ND",
        "MOSAIC"
],
      "ImagedNucleus": "1H",
      "ImagingFrequency": 123.250536,
      "InPlanePhaseEncodingDirection": "COL",
      "MRAcquisitionType": "2D",
      "MagneticFieldStrength": 3.0,
      "Manufacturer": "SIEMENS",
      "ManufacturerModelName": "Prisma_fit",
      "Modality": "MR",
      "NumberOfAverages": 1.0,
      "NumberOfPhaseEncodingSteps": 88,
      "PercentPhaseFieldOfView": 100.0,
      "PercentSampling": 100.0,
      "PerformedProcedureStepStartTime": "132250.855000",
      "PhotometricInterpretation": "MONOCHROME2",
      "PixelBandwidth": 2185.0,
      "PixelRepresentation": 0,
      "PixelSpacing": [2.3977272510529, 2.3977272510529],
      "ProtocolName": "func-bold_task-RDMcolor_run-06",
      "RepetitionTime": 1200.0,
      "Rows": 704,
      "SAR": 0.04849686522983,
      "SamplesPerPixel": 1,
      "ScanOptions": "FS",
      "ScanningSequence": "EP",
      "SequenceName": "*epfid2d1_88",
      "SequenceVariant": "SK",
      "SeriesDescription": "func-bold_task-RDMcolor_run-06",
      "SeriesNumber": 18,
      "SeriesTime": "143320.276000",
      "SliceLocation": -59.486093979055,
      "SliceThickness": 2.4000000953674,
      "SmallestImagePixelValue": 0,
      "SoftwareVersions": "syngo MR E11",
      "SpacingBetweenSlices": 2.3999999920267,
      "SpecificCharacterSet": "ISO_IR 100",
      "StudyID": "1",
      "StudyTime": "132250.761000",
      "TransmitCoilName": "Body",
      "VariableFlipAngleFlag": "N",
      "WindowCenterWidthExplanation": "Algo1",
      "dBdt": 0.0},
    "slices": {}
  },
  "time": {
    "samples": {
      "AcquisitionNumber": [1, 2, 3, 4, 5, 6, 7, 8, 9, 10, 11, 12, 13, 14, 15, 16, 17, 18, 19, 20, 21, 22, 23, 24, 25, 26, 27, 28, 29, 30, 31, 32, 33, 34, 35, 36, 37, 38, 39, 40, 41, 42, 43, 44, 45, 46, 47, 48, 49, 50, 51, 52, 53, 54, 55, 56, 57, 58, 59, 60, 61, 62, 63, 64, 65, 66, 67, 68, 69, 70, 71, 72, 73, 74, 75, 76, 77, 78, 79, 80, 81, 82, 83, 84, 85, 86, 87, 88, 89, 90, 91, 92, 93, 94, 95, 96, 97, 98, 99, 100, 101, 102, 103, 104, 105, 106, 107, 108, 109, 110, 111, 112, 113, 114, 115, 116, 117, 118, 119, 120, 121, 122, 123, 124, 125, 126, 127, 128, 129, 130, 131, 132, 133, 134, 135, 136, 137, 138, 139, 140, 141, 142, 143, 144, 145, 146, 147, 148, 149, 150, 151, 152, 153, 154, 155, 156, 157, 158, 159, 160, 161, 162, 163, 164, 165, 166, 167, 168, 169, 170, 171, 172, 173, 174, 175, 176, 177, 178, 179, 180, 181, 182, 183, 184, 185, 186, 187, 188, 189, 190, 191, 192, 193, 194, 195, 196, 197, 198, 199, 200, 201, 202, 203, 204, 205, 206, 207, 208, 209, 210, 211, 212, 213, 214, 215, 216, 217, 218, 219, 220, 221, 222, 223, 224, 225, 226, 227, 228, 229, 230, 231, 232, 233, 234, 235, 236, 237, 238, 239, 240, 241, 242, 243, 244, 245, 246, 247, 248, 249, 250, 251, 252, 253, 254, 255, 256, 257, 258, 259, 260, 261, 262, 263, 264, 265, 266, 267, 268, 269, 270, 271, 272, 273, 274, 275, 276, 277, 278, 279, 280, 281, 282, 283, 284, 285, 286, 287, 288, 289, 290, 291, 292, 293, 294, 295, 296, 297, 298, 299, 300, 301, 302, 303, 304, 305, 306, 307, 308, 309, 310, 311, 312, 313, 314, 315, 316, 317, 318, 319, 320, 321, 322, 323, 324, 325, 326, 327, 328, 329, 330, 331, 332, 333, 334, 335, 336, 337, 338, 339, 340, 341, 342, 343, 344, 345, 346, 347, 348, 349, 350, 351, 352, 353, 354, 355, 356, 357, 358, 359, 360, 361, 362, 363, 364, 365, 366, 367, 368, 369, 370, 371, 372, 373, 374, 375, 376, 377, 378, 379, 380, 381, 382, 383, 384, 385, 386, 387, 388, 389, 390, 391, 392],
      "AcquisitionTime": ["143249.252500", "143250.452500", "143251.652500", "143252.852500", "143254.052500", "143255.252500", "143256.452500", "143257.652500", "143258.852500", "143300.052500", "143301.252500", "143302.452500", "143303.652500", "143304.852500", "143306.052500", "143307.252500", "143308.452500", "143309.652500", "143310.852500", "143312.052500", "143313.252500", "143314.452500", "143315.652500", "143316.852500", "143318.052500", "143319.252500", "143320.452500", "143321.652500", "143322.852500", "143324.052500", "143325.252500", "143326.452500", "143327.652500", "143328.852500", "143330.052500", "143331.252500", "143332.452500", "143333.652500", "143334.852500", "143336.052500", "143337.252500", "143338.452500", "143339.652500", "143340.852500", "143342.052500", "143343.252500", "143344.452500", "143345.652500", "143346.852500", "143348.052500", "143349.252500", "143350.452500", "143351.652500", "143352.852500", "143354.052500", "143355.252500", "143356.452500", "143357.652500", "143358.852500", "143400.052500", "143401.252500", "143402.452500", "143403.652500", "143404.852500", "143406.052500", "143407.252500", "143408.452500", "143409.652500", "143410.852500", "143412.052500", "143413.252500", "143414.452500", "143415.652500", "143416.852500", "143418.052500", "143419.252500", "143420.452500", "143421.652500", "143422.852500", "143424.052500", "143425.252500", "143426.452500", "143427.652500", "143428.852500", "143430.052500", "143431.252500", "143432.452500", "143433.652500", "143434.852500", "143436.052500", "143437.252500", "143438.452500", "143439.652500", "143440.852500", "143442.052500", "143443.252500", "143444.452500", "143445.652500", "143446.852500", "143448.052500", "143449.252500", "143450.452500", "143451.652500", "143452.852500", "143454.052500", "143455.252500", "143456.452500", "143457.652500", "143458.852500", "143500.052500", "143501.252500", "143502.452500", "143503.652500", "143504.852500", "143506.052500", "143507.252500", "143508.452500", "143509.652500", "143510.852500", "143512.052500", "143513.252500", "143514.452500", "143515.652500", "143516.852500", "143518.052500", "143519.252500", "143520.452500", "143521.652500", "143522.852500", "143524.052500", "143525.252500", "143526.452500", "143527.652500", "143528.852500", "143530.052500", "143531.252500", "143532.452500", "143533.652500", "143534.852500", "143536.052500", "143537.252500", "143538.452500", "143539.652500", "143540.852500", "143542.052500", "143543.252500", "143544.452500", "143545.652500", "143546.852500", "143548.052500", "143549.252500", "143550.452500", "143551.652500", "143552.852500", "143554.052500", "143555.252500", "143556.452500", "143557.652500", "143558.852500", "143600.052500", "143601.252500", "143602.452500", "143603.652500", "143604.852500", "143606.052500", "143607.252500", "143608.452500", "143609.652500", "143610.852500", "143612.052500", "143613.252500", "143614.452500", "143615.652500", "143616.852500", "143618.052500", "143619.252500", "143620.452500", "143621.652500", "143622.852500", "143624.052500", "143625.252500", "143626.452500", "143627.652500", "143628.852500", "143630.052500", "143631.252500", "143632.452500", "143633.652500", "143634.852500", "143636.052500", "143637.252500", "143638.452500", "143639.652500", "143640.852500", "143642.052500", "143643.252500", "143644.452500", "143645.652500", "143646.852500", "143648.052500", "143649.252500", "143650.452500", "143651.652500", "143652.852500", "143654.052500", "143655.252500", "143656.452500", "143657.652500", "143658.852500", "143700.052500", "143701.252500", "143702.452500", "143703.652500", "143704.852500", "143706.052500", "143707.252500", "143708.452500", "143709.652500", "143710.852500", "143712.052500", "143713.252500", "143714.452500", "143715.652500", "143716.852500", "143718.052500", "143719.252500", "143720.452500", "143721.652500", "143722.852500", "143724.052500", "143725.252500", "143726.452500", "143727.652500", "143728.852500", "143730.052500", "143731.252500", "143732.452500", "143733.652500", "143734.852500", "143736.052500", "143737.252500", "143738.452500", "143739.652500", "143740.852500", "143742.052500", "143743.252500", "143744.452500", "143745.652500", "143746.852500", "143748.052500", "143749.252500", "143750.452500", "143751.652500", "143752.852500", "143754.052500", "143755.252500", "143756.452500", "143757.652500", "143758.852500", "143800.052500", "143801.252500", "143802.452500", "143803.652500", "143804.852500", "143806.052500", "143807.252500", "143808.452500", "143809.652500", "143810.852500", "143812.052500", "143813.252500", "143814.452500", "143815.652500", "143816.852500", "143818.052500", "143819.252500", "143820.452500", "143821.652500", "143822.852500", "143824.052500", "143825.252500", "143826.452500", "143827.652500", "143828.852500", "143830.052500", "143831.252500", "143832.452500", "143833.652500", "143834.852500", "143836.052500", "143837.252500", "143838.452500", "143839.652500", "143840.852500", "143842.052500", "143843.252500", "143844.452500", "143845.652500", "143846.852500", "143848.052500", "143849.252500", "143850.452500", "143851.652500", "143852.852500", "143854.052500", "143855.252500", "143856.452500", "143857.652500", "143858.852500", "143900.052500", "143901.252500", "143902.452500", "143903.652500", "143904.852500", "143906.052500", "143907.252500", "143908.452500", "143909.652500", "143910.852500", "143912.052500", "143913.252500", "143914.452500", "143915.652500", "143916.852500", "143918.052500", "143919.252500", "143920.452500", "143921.652500", "143922.852500", "143924.052500", "143925.252500", "143926.452500", "143927.652500", "143928.852500", "143930.052500", "143931.252500", "143932.452500", "143933.652500", "143934.852500", "143936.052500", "143937.252500", "143938.452500", "143939.652500", "143940.852500", "143942.052500", "143943.252500", "143944.452500", "143945.652500", "143946.852500", "143948.052500", "143949.252500", "143950.452500", "143951.652500", "143952.852500", "143954.052500", "143955.252500", "143956.452500", "143957.652500", "143958.852500", "144000.052500", "144001.252500", "144002.452500", "144003.652500", "144004.852500", "144006.052500", "144007.252500", "144008.452500", "144009.652500", "144010.852500", "144012.052500", "144013.252500", "144014.452500", "144015.652500", "144016.852500", "144018.052500", "144019.252500", "144020.452500", "144021.652500", "144022.852500", "144024.052500", "144025.252500", "144026.452500", "144027.652500", "144028.852500", "144030.052500", "144031.252500", "144032.452500", "144033.652500", "144034.852500", "144036.052500", "144037.252500", "144038.452500"],
      "ContentTime": ["143320.279000", "143320.282000", "143320.285000", "143320.296000", "143320.299000", "143320.301000", "143320.304000", "143320.307000", "143320.309000", "143320.312000", "143320.314000", "143320.317000", "143320.319000", "143320.322000", "143320.325000", "143320.331000", "143320.340000", "143320.342000", "143320.345000", "143320.348000", "143320.350000", "143320.353000", "143320.355000", "143320.358000", "143320.361000", "143400.276000", "143400.278000", "143400.281000", "143400.284000", "143400.286000", "143400.289000", "143400.292000", "143400.294000", "143400.297000", "143400.299000", "143400.302000", "143400.305000", "143400.307000", "143400.310000", "143400.312000", "143400.315000", "143400.318000", "143400.320000", "143400.328000", "143400.330000", "143400.333000", "143400.335000", "143400.338000", "143400.341000", "143400.343000", "143400.346000", "143400.348000", "143400.364000", "143400.367000", "143400.370000", "143400.372000", "143400.375000", "143400.378000", "143400.380000", "143440.275000", "143440.278000", "143440.280000", "143440.283000", "143440.285000", "143440.288000", "143440.291000", "143440.293000", "143440.296000", "143440.299000", "143440.301000", "143440.304000", "143440.306000", "143440.309000", "143440.312000", "143440.314000", "143440.317000", "143440.320000", "143440.322000", "143440.325000", "143440.327000", "143440.330000", "143440.333000", "143440.335000", "143440.338000", "143440.340000", "143440.343000", "143440.345000", "143440.348000", "143440.351000", "143440.353000", "143440.356000", "143440.358000", "143520.274000", "143520.277000", "143520.280000", "143520.283000", "143520.285000", "143520.288000", "143520.291000", "143520.293000", "143520.296000", "143520.298000", "143520.301000", "143520.304000", "143520.306000", "143520.309000", "143520.312000", "143520.314000", "143520.317000", "143520.319000", "143520.322000", "143520.324000", "143520.327000", "143520.330000", "143520.332000", "143520.335000", "143520.337000", "143520.340000", "143520.343000", "143520.345000", "143520.348000", "143520.350000", "143520.353000", "143520.355000", "143520.358000", "143600.275000", "143600.277000", "143600.280000", "143600.283000", "143600.285000", "143600.288000", "143600.291000", "143600.293000", "143600.296000", "143600.299000", "143600.301000", "143600.304000", "143600.307000", "143600.309000", "143600.312000", "143600.314000", "143600.317000", "143600.320000", "143600.322000", "143600.325000", "143600.328000", "143600.330000", "143600.333000", "143600.335000", "143600.338000", "143600.341000", "143600.343000", "143600.346000", "143600.348000", "143600.351000", "143600.353000", "143600.356000", "143600.359000", "143600.361000", "143640.276000", "143640.279000", "143640.281000", "143640.284000", "143640.287000", "143640.289000", "143640.292000", "143640.294000", "143640.297000", "143640.300000", "143640.302000", "143640.305000", "143640.308000", "143640.310000", "143640.313000", "143640.315000", "143640.318000", "143640.321000", "143640.323000", "143640.326000", "143640.329000", "143640.331000", "143640.334000", "143640.336000", "143640.339000", "143640.342000", "143640.344000", "143640.347000", "143640.350000", "143640.352000", "143640.355000", "143640.357000", "143640.360000", "143720.275000", "143720.278000", "143720.280000", "143720.283000", "143720.286000", "143720.288000", "143720.291000", "143720.294000", "143720.296000", "143720.299000", "143720.302000", "143720.304000", "143720.307000", "143720.309000", "143720.312000", "143720.314000", "143720.317000", "143720.320000", "143720.322000", "143720.325000", "143720.327000", "143720.330000", "143720.333000", "143720.335000", "143720.338000", "143720.341000", "143720.343000", "143720.346000", "143720.348000", "143720.351000", "143720.354000", "143720.356000", "143720.359000", "143800.274000", "143800.277000", "143800.280000", "143800.283000", "143800.285000", "143800.288000", "143800.290000", "143800.293000", "143800.296000", "143800.299000", "143800.301000", "143800.311000", "143800.314000", "143800.316000", "143800.319000", "143800.322000", "143800.324000", "143800.333000", "143800.335000", "143800.338000", "143800.340000", "143800.343000", "143800.346000", "143800.356000", "143800.359000", "143800.362000", "143800.364000", "143800.367000", "143800.369000", "143800.372000", "143800.375000", "143800.377000", "143800.380000", "143800.383000", "143840.275000", "143840.279000", "143840.281000", "143840.301000", "143840.303000", "143840.306000", "143840.309000", "143840.311000", "143840.314000", "143840.317000", "143840.319000", "143840.322000", "143840.324000", "143840.327000", "143840.330000", "143840.332000", "143840.335000", "143840.338000", "143840.340000", "143840.343000", "143840.345000", "143840.348000", "143840.351000", "143840.353000", "143840.356000", "143840.358000", "143840.361000", "143840.363000", "143840.366000", "143840.369000", "143840.371000", "143840.375000", "143840.378000", "143920.275000", "143920.277000", "143920.280000", "143920.283000", "143920.285000", "143920.288000", "143920.291000", "143920.294000", "143920.296000", "143920.299000", "143920.302000", "143920.304000", "143920.307000", "143920.309000", "143920.312000", "143920.315000", "143920.317000", "143920.320000", "143920.323000", "143920.325000", "143920.328000", "143920.331000", "143920.333000", "143920.336000", "143920.339000", "143920.341000", "143920.344000", "143920.347000", "143920.349000", "143920.352000", "143920.355000", "143920.358000", "143920.360000", "144000.275000", "144000.278000", "144000.281000", "144000.283000", "144000.286000", "144000.289000", "144000.292000", "144000.294000", "144000.297000", "144000.300000", "144000.302000", "144000.305000", "144000.307000", "144000.310000", "144000.313000", "144000.315000", "144000.318000", "144000.321000", "144000.323000", "144000.326000", "144000.329000", "144000.331000", "144000.334000", "144000.337000", "144000.339000", "144000.342000", "144000.344000", "144000.347000", "144000.350000", "144000.352000", "144000.355000", "144000.358000", "144000.360000", "144000.363000", "144039.640000", "144039.643000", "144039.646000", "144039.649000", "144039.651000", "144039.654000", "144039.657000", "144039.659000", "144039.662000", "144039.665000", "144039.668000", "144039.670000", "144039.673000", "144039.675000", "144039.678000", "144039.681000", "144039.683000", "144039.686000", "144039.688000", "144039.691000", "144039.694000", "144039.696000", "144039.699000", "144039.702000", "144039.704000", "144039.707000", "144039.710000", "144039.712000", "144039.715000", "144039.718000", "144039.720000", "144039.723000", "144039.730000"],
      "InstanceCreationTime": ["143320.279000", "143320.282000", "143320.285000", "143320.296000", "143320.299000", "143320.301000", "143320.304000", "143320.307000", "143320.309000", "143320.312000", "143320.314000", "143320.317000", "143320.319000", "143320.322000", "143320.325000", "143320.331000", "143320.340000", "143320.342000", "143320.345000", "143320.348000", "143320.350000", "143320.353000", "143320.355000", "143320.358000", "143320.361000", "143400.276000", "143400.278000", "143400.281000", "143400.284000", "143400.286000", "143400.289000", "143400.292000", "143400.294000", "143400.297000", "143400.299000", "143400.302000", "143400.305000", "143400.307000", "143400.310000", "143400.312000", "143400.315000", "143400.318000", "143400.320000", "143400.328000", "143400.330000", "143400.333000", "143400.335000", "143400.338000", "143400.341000", "143400.343000", "143400.346000", "143400.348000", "143400.364000", "143400.367000", "143400.370000", "143400.372000", "143400.375000", "143400.378000", "143400.380000", "143440.275000", "143440.278000", "143440.280000", "143440.283000", "143440.285000", "143440.288000", "143440.291000", "143440.293000", "143440.296000", "143440.299000", "143440.301000", "143440.304000", "143440.306000", "143440.309000", "143440.312000", "143440.314000", "143440.317000", "143440.320000", "143440.322000", "143440.325000", "143440.327000", "143440.330000", "143440.333000", "143440.335000", "143440.338000", "143440.340000", "143440.343000", "143440.345000", "143440.348000", "143440.351000", "143440.353000", "143440.356000", "143440.358000", "143520.274000", "143520.277000", "143520.280000", "143520.283000", "143520.285000", "143520.288000", "143520.291000", "143520.293000", "143520.296000", "143520.298000", "143520.301000", "143520.304000", "143520.306000", "143520.309000", "143520.312000", "143520.314000", "143520.317000", "143520.319000", "143520.322000", "143520.324000", "143520.327000", "143520.330000", "143520.332000", "143520.335000", "143520.337000", "143520.340000", "143520.343000", "143520.345000", "143520.348000", "143520.350000", "143520.353000", "143520.355000", "143520.358000", "143600.275000", "143600.277000", "143600.280000", "143600.283000", "143600.285000", "143600.288000", "143600.291000", "143600.293000", "143600.296000", "143600.299000", "143600.301000", "143600.304000", "143600.307000", "143600.309000", "143600.312000", "143600.314000", "143600.317000", "143600.320000", "143600.322000", "143600.325000", "143600.328000", "143600.330000", "143600.333000", "143600.335000", "143600.338000", "143600.341000", "143600.343000", "143600.346000", "143600.348000", "143600.351000", "143600.353000", "143600.356000", "143600.359000", "143600.361000", "143640.276000", "143640.279000", "143640.281000", "143640.284000", "143640.287000", "143640.289000", "143640.292000", "143640.294000", "143640.297000", "143640.300000", "143640.302000", "143640.305000", "143640.308000", "143640.310000", "143640.313000", "143640.315000", "143640.318000", "143640.321000", "143640.323000", "143640.326000", "143640.329000", "143640.331000", "143640.334000", "143640.336000", "143640.339000", "143640.342000", "143640.344000", "143640.347000", "143640.350000", "143640.352000", "143640.355000", "143640.357000", "143640.360000", "143720.275000", "143720.278000", "143720.280000", "143720.283000", "143720.286000", "143720.288000", "143720.291000", "143720.294000", "143720.296000", "143720.299000", "143720.302000", "143720.304000", "143720.307000", "143720.309000", "143720.312000", "143720.314000", "143720.317000", "143720.320000", "143720.322000", "143720.325000", "143720.327000", "143720.330000", "143720.333000", "143720.335000", "143720.338000", "143720.341000", "143720.343000", "143720.346000", "143720.348000", "143720.351000", "143720.354000", "143720.356000", "143720.359000", "143800.274000", "143800.277000", "143800.280000", "143800.283000", "143800.285000", "143800.288000", "143800.290000", "143800.293000", "143800.296000", "143800.299000", "143800.301000", "143800.311000", "143800.314000", "143800.316000", "143800.319000", "143800.322000", "143800.324000", "143800.333000", "143800.335000", "143800.338000", "143800.340000", "143800.343000", "143800.346000", "143800.356000", "143800.359000", "143800.362000", "143800.364000", "143800.367000", "143800.369000", "143800.372000", "143800.375000", "143800.377000", "143800.380000", "143800.383000", "143840.275000", "143840.279000", "143840.281000", "143840.301000", "143840.303000", "143840.306000", "143840.309000", "143840.311000", "143840.314000", "143840.317000", "143840.319000", "143840.322000", "143840.324000", "143840.327000", "143840.330000", "143840.332000", "143840.335000", "143840.338000", "143840.340000", "143840.343000", "143840.345000", "143840.348000", "143840.351000", "143840.353000", "143840.356000", "143840.358000", "143840.361000", "143840.363000", "143840.366000", "143840.369000", "143840.371000", "143840.375000", "143840.378000", "143920.275000", "143920.277000", "143920.280000", "143920.283000", "143920.285000", "143920.288000", "143920.291000", "143920.294000", "143920.296000", "143920.299000", "143920.302000", "143920.304000", "143920.307000", "143920.309000", "143920.312000", "143920.315000", "143920.317000", "143920.320000", "143920.323000", "143920.325000", "143920.328000", "143920.331000", "143920.333000", "143920.336000", "143920.339000", "143920.341000", "143920.344000", "143920.347000", "143920.349000", "143920.352000", "143920.355000", "143920.358000", "143920.360000", "144000.275000", "144000.278000", "144000.281000", "144000.283000", "144000.286000", "144000.289000", "144000.292000", "144000.294000", "144000.297000", "144000.300000", "144000.302000", "144000.305000", "144000.307000", "144000.310000", "144000.313000", "144000.315000", "144000.318000", "144000.321000", "144000.323000", "144000.326000", "144000.329000", "144000.331000", "144000.334000", "144000.337000", "144000.339000", "144000.342000", "144000.344000", "144000.347000", "144000.350000", "144000.352000", "144000.355000", "144000.358000", "144000.360000", "144000.363000", "144039.640000", "144039.643000", "144039.646000", "144039.649000", "144039.651000", "144039.654000", "144039.657000", "144039.659000", "144039.662000", "144039.665000", "144039.668000", "144039.670000", "144039.673000", "144039.675000", "144039.678000", "144039.681000", "144039.683000", "144039.686000", "144039.688000", "144039.691000", "144039.694000", "144039.696000", "144039.699000", "144039.702000", "144039.704000", "144039.707000", "144039.710000", "144039.712000", "144039.715000", "144039.718000", "144039.720000", "144039.723000", "144039.730000"],
      "InstanceNumber": [1, 2, 3, 4, 5, 6, 7, 8, 9, 10, 11, 12, 13, 14, 15, 16, 17, 18, 19, 20, 21, 22, 23, 24, 25, 26, 27, 28, 29, 30, 31, 32, 33, 34, 35, 36, 37, 38, 39, 40, 41, 42, 43, 44, 45, 46, 47, 48, 49, 50, 51, 52, 53, 54, 55, 56, 57, 58, 59, 60, 61, 62, 63, 64, 65, 66, 67, 68, 69, 70, 71, 72, 73, 74, 75, 76, 77, 78, 79, 80, 81, 82, 83, 84, 85, 86, 87, 88, 89, 90, 91, 92, 93, 94, 95, 96, 97, 98, 99, 100, 101, 102, 103, 104, 105, 106, 107, 108, 109, 110, 111, 112, 113, 114, 115, 116, 117, 118, 119, 120, 121, 122, 123, 124, 125, 126, 127, 128, 129, 130, 131, 132, 133, 134, 135, 136, 137, 138, 139, 140, 141, 142, 143, 144, 145, 146, 147, 148, 149, 150, 151, 152, 153, 154, 155, 156, 157, 158, 159, 160, 161, 162, 163, 164, 165, 166, 167, 168, 169, 170, 171, 172, 173, 174, 175, 176, 177, 178, 179, 180, 181, 182, 183, 184, 185, 186, 187, 188, 189, 190, 191, 192, 193, 194, 195, 196, 197, 198, 199, 200, 201, 202, 203, 204, 205, 206, 207, 208, 209, 210, 211, 212, 213, 214, 215, 216, 217, 218, 219, 220, 221, 222, 223, 224, 225, 226, 227, 228, 229, 230, 231, 232, 233, 234, 235, 236, 237, 238, 239, 240, 241, 242, 243, 244, 245, 246, 247, 248, 249, 250, 251, 252, 253, 254, 255, 256, 257, 258, 259, 260, 261, 262, 263, 264, 265, 266, 267, 268, 269, 270, 271, 272, 273, 274, 275, 276, 277, 278, 279, 280, 281, 282, 283, 284, 285, 286, 287, 288, 289, 290, 291, 292, 293, 294, 295, 296, 297, 298, 299, 300, 301, 302, 303, 304, 305, 306, 307, 308, 309, 310, 311, 312, 313, 314, 315, 316, 317, 318, 319, 320, 321, 322, 323, 324, 325, 326, 327, 328, 329, 330, 331, 332, 333, 334, 335, 336, 337, 338, 339, 340, 341, 342, 343, 344, 345, 346, 347, 348, 349, 350, 351, 352, 353, 354, 355, 356, 357, 358, 359, 360, 361, 362, 363, 364, 365, 366, 367, 368, 369, 370, 371, 372, 373, 374, 375, 376, 377, 378, 379, 380, 381, 382, 383, 384, 385, 386, 387, 388, 389, 390, 391, 392],
