{
  "AcquisitionMatrixPE": 88,
  "AcquisitionNumber": 1,
  "AcquisitionTime": "13:33:2.655000",
  "BandwidthPerPixelPhaseEncode": 19.592,
  "BaseResolution": 88,
  "BodyPartExamined": "BRAIN",
  "ConsistencyInfo": "N4_VE11C_LATEST_20160120",
  "ConversionSoftware": "dcm2niix",
  "ConversionSoftwareVersion": "v1.0.20190902",
  "DerivedVendorReportedEchoSpacing": 0.000580014,
  "DeviceSerialNumber": "67050",
  "DwellTime": 2.6e-06,
  "EchoTime": 0.033,
  "EchoTrainLength": 88,
  "EffectiveEchoSpacing": 0.000580014,
  "FlipAngle": 62,
  "ImageOrientationPatientDICOM": [0.997562, 0.0543138, -0.0438263, -0.0555977, 0.998043, -0.0286287],
  "ImageType": [
    "ORIGINAL",
    "PRIMARY",
    "M",
    "ND",
    "MOSAIC"
],
  "ImagingFrequency": 123.251,
  "InPlanePhaseEncodingDirectionDICOM": "COL",
  "InstitutionAddress": "Olive_Street_60_Providence_RI_US_02912",
  "InstitutionName": "BROWN_UNIVERSITY_MRF",
  "InstitutionalDepartmentName": "Department",
  "MRAcquisitionType": "2D",
  "MagneticFieldStrength": 3,
  "Manufacturer": "Siemens",
  "ManufacturersModelName": "Prisma_fit",
  "Modality": "MR",
  "MultibandAccelerationFactor": 4,
  "PartialFourier": 1,
  "PatientPosition": "HFS",
  "PercentPhaseFOV": 100,
  "PhaseEncodingDirection": "j-",
  "PhaseEncodingSteps": 88,
  "PhaseResolution": 1,
  "PixelBandwidth": 2185,
  "ProcedureStepDescription": "ASHENHAV_1222",
  "ProtocolName": "func-bold_task-RDMcolor_run-01",
  "PulseSequenceDetails": "%SiemensSeq%_ep2d_bold",
  "ReceiveCoilActiveElements": "HC1-7;NC1",
  "ReceiveCoilName": "HeadNeck_64",
  "ReconMatrixPE": 88,
  "RefLinesPE": 8,
  "RepetitionTime": 1.2,
  "SAR": 0.0484969,
  "ScanOptions": "FS",
  "ScanningSequence": "EP",
  "SequenceName": "_epfid2d1_88",
  "SequenceVariant": "SK",
  "SeriesDescription": "func-bold_task-RDMcolor_run-01",
  "SeriesNumber": 8,
  "ShimSetting": [1749, -9087, 4383, 363, -43, -237, -162, 6],
  "SliceThickness": 2.4,
  "SliceTiming": [0.55, 0, 0.63, 0.0775, 0.7075, 0.1575, 0.7875, 0.235, 0.865, 0.315, 0.9425, 0.3925, 1.0225, 0.4725, 1.1, 0.55, 0, 0.63, 0.0775, 0.7075, 0.1575, 0.7875, 0.235, 0.865, 0.315, 0.9425, 0.3925, 1.0225, 0.4725, 1.1, 0.55, 0, 0.63, 0.0775, 0.7075, 0.1575, 0.7875, 0.235, 0.865, 0.315, 0.9425, 0.3925, 1.0225, 0.4725, 1.1, 0.55, 0, 0.63, 0.0775, 0.7075, 0.1575, 0.7875, 0.235, 0.865, 0.315, 0.9425, 0.3925, 1.0225, 0.4725, 1.1],
  "SoftwareVersions": "syngo_MR_E11",
  "SpacingBetweenSlices": 2.4,
  "StationName": "AWP67050",
  "TaskName": "RDMcolor",
  "TotalReadoutTime": 0.0504612,
  "TxRefAmp": 218.677,
  "dcmmeta_affine": [
    [-2.391880750656128, -0.13330815732479095, -0.10124549269676208, 114.77777099609375],
    [-0.13022959232330322, 2.3930342197418213, -0.07438936084508896, -83.39673614501953],
    [-0.10508359968662262, 0.06864388287067413, 2.3967092037200928, -57.30762481689453],
    [0.0, 0.0, 0.0, 1.0]
],
  "dcmmeta_reorient_transform": [
    [0.0, -1.0, 0.0, 87.0],
    [1.0, 0.0, 0.0, 0.0],
    [0.0, 0.0, 1.0, 0.0],
    [0.0, 0.0, 0.0, 1.0]
],
  "dcmmeta_shape": [88, 88, 60, 392],
  "dcmmeta_slice_dim": 2,
  "dcmmeta_version": 0.6,
  "global": {
    "const": {
      "AcquisitionMatrix": [88, 0, 0, 88],
      "AngioFlag": "N",
      "BitsAllocated": 16,
      "BitsStored": 12,
      "BodyPartExamined": "BRAIN",
      "Columns": 704,
      "DeidentificationMethodCodeSequence": [
        {
          "CodeMeaning": "XNAT DicomEdit 6 Script",
          "CodeValue": "3",
          "CodingSchemeDesignator": "XNAT",
          "CodingSchemeVersion": "1.0"}
],
      "EchoNumbers": 1,
      "EchoTime": 33.0,
      "EchoTrainLength": 88,
      "FlipAngle": 62.0,
      "HighBit": 11,
      "ImageOrientationPatient": [0.99756166082786, 0.05431376454039, -0.0438263371481, -0.0555977162785, 0.9980427294218, -0.0286287302008],
      "ImagePositionPatient": [-798.82033143562, -901.96250683216, 2.1724582172377],
      "ImageType": [
        "ORIGINAL",
        "PRIMARY",
        "M",
        "ND",
        "MOSAIC"
],
      "ImagedNucleus": "1H",
      "ImagingFrequency": 123.250528,
      "InPlanePhaseEncodingDirection": "COL",
      "MRAcquisitionType": "2D",
      "MagneticFieldStrength": 3.0,
      "Manufacturer": "SIEMENS",
      "ManufacturerModelName": "Prisma_fit",
      "Modality": "MR",
      "NumberOfAverages": 1.0,
      "NumberOfPhaseEncodingSteps": 88,
      "PercentPhaseFieldOfView": 100.0,
      "PercentSampling": 100.0,
      "PerformedProcedureStepStartTime": "132250.855000",
      "PhotometricInterpretation": "MONOCHROME2",
      "PixelBandwidth": 2185.0,
      "PixelRepresentation": 0,
      "PixelSpacing": [2.3977272510529, 2.3977272510529],
      "ProtocolName": "func-bold_task-RDMcolor_run-01",
      "RepetitionTime": 1200.0,
      "Rows": 704,
      "SAR": 0.04849686522983,
      "SamplesPerPixel": 1,
      "ScanOptions": "FS",
      "ScanningSequence": "EP",
      "SequenceName": "*epfid2d1_88",
      "SequenceVariant": "SK",
      "SeriesDescription": "func-bold_task-RDMcolor_run-01",
      "SeriesNumber": 8,
      "SeriesTime": "133339.010000",
      "SliceLocation": -59.486093979055,
      "SliceThickness": 2.4000000953674,
      "SmallestImagePixelValue": 0,
      "SoftwareVersions": "syngo MR E11",
      "SpacingBetweenSlices": 2.3999999920267,
      "SpecificCharacterSet": "ISO_IR 100",
      "StudyID": "1",
      "StudyTime": "132250.761000",
      "TransmitCoilName": "Body",
      "VariableFlipAngleFlag": "N",
      "WindowCenterWidthExplanation": "Algo1",
      "dBdt": 0.0},
    "slices": {}
  },
  "time": {
    "samples": {
      "AcquisitionNumber": [1, 2, 3, 4, 5, 6, 7, 8, 9, 10, 11, 12, 13, 14, 15, 16, 17, 18, 19, 20, 21, 22, 23, 24, 25, 26, 27, 28, 29, 30, 31, 32, 33, 34, 35, 36, 37, 38, 39, 40, 41, 42, 43, 44, 45, 46, 47, 48, 49, 50, 51, 52, 53, 54, 55, 56, 57, 58, 59, 60, 61, 62, 63, 64, 65, 66, 67, 68, 69, 70, 71, 72, 73, 74, 75, 76, 77, 78, 79, 80, 81, 82, 83, 84, 85, 86, 87, 88, 89, 90, 91, 92, 93, 94, 95, 96, 97, 98, 99, 100, 101, 102, 103, 104, 105, 106, 107, 108, 109, 110, 111, 112, 113, 114, 115, 116, 117, 118, 119, 120, 121, 122, 123, 124, 125, 126, 127, 128, 129, 130, 131, 132, 133, 134, 135, 136, 137, 138, 139, 140, 141, 142, 143, 144, 145, 146, 147, 148, 149, 150, 151, 152, 153, 154, 155, 156, 157, 158, 159, 160, 161, 162, 163, 164, 165, 166, 167, 168, 169, 170, 171, 172, 173, 174, 175, 176, 177, 178, 179, 180, 181, 182, 183, 184, 185, 186, 187, 188, 189, 190, 191, 192, 193, 194, 195, 196, 197, 198, 199, 200, 201, 202, 203, 204, 205, 206, 207, 208, 209, 210, 211, 212, 213, 214, 215, 216, 217, 218, 219, 220, 221, 222, 223, 224, 225, 226, 227, 228, 229, 230, 231, 232, 233, 234, 235, 236, 237, 238, 239, 240, 241, 242, 243, 244, 245, 246, 247, 248, 249, 250, 251, 252, 253, 254, 255, 256, 257, 258, 259, 260, 261, 262, 263, 264, 265, 266, 267, 268, 269, 270, 271, 272, 273, 274, 275, 276, 277, 278, 279, 280, 281, 282, 283, 284, 285, 286, 287, 288, 289, 290, 291, 292, 293, 294, 295, 296, 297, 298, 299, 300, 301, 302, 303, 304, 305, 306, 307, 308, 309, 310, 311, 312, 313, 314, 315, 316, 317, 318, 319, 320, 321, 322, 323, 324, 325, 326, 327, 328, 329, 330, 331, 332, 333, 334, 335, 336, 337, 338, 339, 340, 341, 342, 343, 344, 345, 346, 347, 348, 349, 350, 351, 352, 353, 354, 355, 356, 357, 358, 359, 360, 361, 362, 363, 364, 365, 366, 367, 368, 369, 370, 371, 372, 373, 374, 375, 376, 377, 378, 379, 380, 381, 382, 383, 384, 385, 386, 387, 388, 389, 390, 391, 392],
      "AcquisitionTime": ["133302.655000", "133303.855000", "133305.055000", "133306.255000", "133307.455000", "133308.655000", "133309.855000", "133311.055000", "133312.255000", "133313.455000", "133314.655000", "133315.855000", "133317.055000", "133318.255000", "133319.455000", "133320.655000", "133321.855000", "133323.055000", "133324.255000", "133325.455000", "133326.655000", "133327.855000", "133329.055000", "133330.255000", "133331.455000", "133332.655000", "133333.855000", "133335.055000", "133336.255000", "133337.455000", "133338.655000", "133339.855000", "133341.055000", "133342.255000", "133343.455000", "133344.655000", "133345.855000", "133347.055000", "133348.255000", "133349.455000", "133350.655000", "133351.855000", "133353.055000", "133354.255000", "133355.455000", "133356.655000", "133357.855000", "133359.055000", "133400.255000", "133401.455000", "133402.655000", "133403.855000", "133405.055000", "133406.255000", "133407.455000", "133408.655000", "133409.855000", "133411.055000", "133412.255000", "133413.455000", "133414.655000", "133415.855000", "133417.055000", "133418.255000", "133419.455000", "133420.655000", "133421.855000", "133423.055000", "133424.255000", "133425.455000", "133426.655000", "133427.855000", "133429.055000", "133430.255000", "133431.455000", "133432.655000", "133433.855000", "133435.055000", "133436.255000", "133437.455000", "133438.655000", "133439.855000", "133441.055000", "133442.255000", "133443.455000", "133444.655000", "133445.855000", "133447.055000", "133448.255000", "133449.455000", "133450.655000", "133451.855000", "133453.055000", "133454.255000", "133455.455000", "133456.655000", "133457.855000", "133459.055000", "133500.255000", "133501.455000", "133502.655000", "133503.855000", "133505.055000", "133506.255000", "133507.455000", "133508.655000", "133509.855000", "133511.055000", "133512.255000", "133513.455000", "133514.655000", "133515.855000", "133517.055000", "133518.255000", "133519.455000", "133520.655000", "133521.855000", "133523.055000", "133524.255000", "133525.455000", "133526.655000", "133527.855000", "133529.055000", "133530.255000", "133531.455000", "133532.655000", "133533.855000", "133535.055000", "133536.255000", "133537.455000", "133538.655000", "133539.855000", "133541.055000", "133542.255000", "133543.455000", "133544.655000", "133545.855000", "133547.055000", "133548.255000", "133549.455000", "133550.655000", "133551.855000", "133553.055000", "133554.255000", "133555.455000", "133556.655000", "133557.855000", "133559.055000", "133600.255000", "133601.455000", "133602.655000", "133603.855000", "133605.055000", "133606.255000", "133607.455000", "133608.655000", "133609.855000", "133611.055000", "133612.255000", "133613.455000", "133614.655000", "133615.855000", "133617.055000", "133618.255000", "133619.455000", "133620.655000", "133621.855000", "133623.055000", "133624.255000", "133625.455000", "133626.655000", "133627.855000", "133629.055000", "133630.255000", "133631.455000", "133632.655000", "133633.855000", "133635.055000", "133636.255000", "133637.455000", "133638.655000", "133639.855000", "133641.055000", "133642.255000", "133643.455000", "133644.655000", "133645.855000", "133647.055000", "133648.255000", "133649.455000", "133650.655000", "133651.855000", "133653.055000", "133654.255000", "133655.455000", "133656.655000", "133657.855000", "133659.055000", "133700.255000", "133701.455000", "133702.655000", "133703.855000", "133705.055000", "133706.255000", "133707.455000", "133708.655000", "133709.855000", "133711.055000", "133712.255000", "133713.455000", "133714.655000", "133715.855000", "133717.055000", "133718.255000", "133719.455000", "133720.655000", "133721.855000", "133723.055000", "133724.255000", "133725.455000", "133726.655000", "133727.855000", "133729.055000", "133730.255000", "133731.455000", "133732.655000", "133733.855000", "133735.055000", "133736.255000", "133737.455000", "133738.655000", "133739.855000", "133741.055000", "133742.255000", "133743.455000", "133744.655000", "133745.855000", "133747.055000", "133748.255000", "133749.455000", "133750.655000", "133751.855000", "133753.055000", "133754.255000", "133755.455000", "133756.655000", "133757.855000", "133759.055000", "133800.255000", "133801.455000", "133802.655000", "133803.855000", "133805.055000", "133806.255000", "133807.455000", "133808.655000", "133809.855000", "133811.055000", "133812.255000", "133813.455000", "133814.655000", "133815.855000", "133817.055000", "133818.255000", "133819.455000", "133820.655000", "133821.855000", "133823.055000", "133824.255000", "133825.455000", "133826.655000", "133827.855000", "133829.055000", "133830.255000", "133831.455000", "133832.655000", "133833.855000", "133835.055000", "133836.255000", "133837.455000", "133838.655000", "133839.855000", "133841.055000", "133842.255000", "133843.455000", "133844.655000", "133845.855000", "133847.055000", "133848.255000", "133849.455000", "133850.655000", "133851.855000", "133853.055000", "133854.255000", "133855.455000", "133856.655000", "133857.855000", "133859.055000", "133900.255000", "133901.455000", "133902.655000", "133903.855000", "133905.055000", "133906.255000", "133907.455000", "133908.655000", "133909.855000", "133911.055000", "133912.255000", "133913.455000", "133914.655000", "133915.855000", "133917.055000", "133918.255000", "133919.455000", "133920.655000", "133921.855000", "133923.055000", "133924.255000", "133925.455000", "133926.655000", "133927.855000", "133929.055000", "133930.255000", "133931.455000", "133932.655000", "133933.855000", "133935.055000", "133936.255000", "133937.455000", "133938.655000", "133939.855000", "133941.055000", "133942.255000", "133943.455000", "133944.655000", "133945.855000", "133947.055000", "133948.255000", "133949.455000", "133950.655000", "133951.855000", "133953.055000", "133954.255000", "133955.455000", "133956.655000", "133957.855000", "133959.055000", "134000.255000", "134001.455000", "134002.655000", "134003.855000", "134005.055000", "134006.255000", "134007.455000", "134008.655000", "134009.855000", "134011.055000", "134012.255000", "134013.455000", "134014.655000", "134015.855000", "134017.055000", "134018.255000", "134019.455000", "134020.655000", "134021.855000", "134023.055000", "134024.255000", "134025.455000", "134026.655000", "134027.855000", "134029.055000", "134030.255000", "134031.455000", "134032.655000", "134033.855000", "134035.055000", "134036.255000", "134037.455000", "134038.655000", "134039.855000", "134041.055000", "134042.255000", "134043.455000", "134044.655000", "134045.855000", "134047.055000", "134048.255000", "134049.455000", "134050.655000", "134051.855000"],
      "ContentTime": ["133339.014000", "133339.017000", "133339.020000", "133339.022000", "133339.025000", "133339.028000", "133339.037000", "133339.040000", "133339.043000", "133339.056000", "133339.058000", "133339.061000", "133339.064000", "133339.066000", "133339.069000", "133339.071000", "133339.074000", "133339.076000", "133339.085000", "133339.088000", "133339.090000", "133339.093000", "133339.095000", "133339.098000", "133339.100000", "133339.103000", "133339.106000", "133339.108000", "133339.111000", "133419.010000", "133419.013000", "133419.016000", "133419.019000", "133419.021000", "133419.024000", "133419.026000", "133419.038000", "133419.040000", "133419.043000", "133419.046000", "133419.048000", "133419.060000", "133419.062000", "133419.065000", "133419.067000", "133419.070000", "133419.073000", "133419.075000", "133419.078000", "133419.080000", "133419.083000", "133419.086000", "133419.088000", "133419.091000", "133419.094000", "133419.096000", "133419.099000", "133419.101000", "133419.104000", "133419.107000", "133419.109000", "133419.112000", "133419.114000", "133459.009000", "133459.012000", "133459.015000", "133459.018000", "133459.020000", "133459.023000", "133459.025000", "133459.028000", "133459.030000", "133459.033000", "133459.036000", "133459.038000", "133459.041000", "133459.043000", "133459.046000", "133459.048000", "133459.051000", "133459.054000", "133459.056000", "133459.059000", "133459.061000", "133459.064000", "133459.066000", "133459.069000", "133459.071000", "133459.074000", "133459.077000", "133459.079000", "133459.082000", "133459.085000", "133459.087000", "133459.090000", "133459.092000", "133539.009000", "133539.013000", "133539.016000", "133539.018000", "133539.021000", "133539.024000", "133539.026000", "133539.029000", "133539.032000", "133539.034000", "133539.037000", "133539.039000", "133539.042000", "133539.044000", "133539.047000", "133539.050000", "133539.052000", "133539.055000", "133539.057000", "133539.060000", "133539.062000", "133539.065000", "133539.068000", "133539.070000", "133539.073000", "133539.075000", "133539.078000", "133539.080000", "133539.083000", "133539.086000", "133539.088000", "133539.091000", "133539.093000", "133619.010000", "133619.013000", "133619.016000", "133619.018000", "133619.021000", "133619.024000", "133619.026000", "133619.029000", "133619.031000", "133619.034000", "133619.036000", "133619.039000", "133619.042000", "133619.044000", "133619.047000", "133619.050000", "133619.052000", "133619.055000", "133619.057000", "133619.060000", "133619.063000", "133619.065000", "133619.068000", "133619.070000", "133619.073000", "133619.075000", "133619.078000", "133619.080000", "133619.083000", "133619.086000", "133619.088000", "133619.091000", "133619.094000", "133619.096000", "133659.009000", "133659.012000", "133659.015000", "133659.017000", "133659.020000", "133659.023000", "133659.025000", "133659.028000", "133659.031000", "133659.033000", "133659.036000", "133659.038000", "133659.041000", "133659.044000", "133659.046000", "133659.049000", "133659.051000", "133659.054000", "133659.056000", "133659.059000", "133659.062000", "133659.068000", "133659.070000", "133659.073000", "133659.076000", "133659.078000", "133659.081000", "133659.083000", "133659.086000", "133659.088000", "133659.091000", "133659.093000", "133659.096000", "133719.010000", "133719.013000", "133719.015000", "133719.018000", "133719.020000", "133719.023000", "133719.026000", "133719.028000", "133719.031000", "133719.034000", "133719.036000", "133719.039000", "133719.041000", "133719.044000", "133719.047000", "133719.049000", "133719.052000", "133759.009000", "133759.012000", "133759.015000", "133759.018000", "133759.020000", "133759.023000", "133759.026000", "133759.029000", "133759.031000", "133759.034000", "133759.036000", "133759.039000", "133759.042000", "133759.044000", "133759.047000", "133759.049000", "133759.052000", "133759.055000", "133759.057000", "133759.060000", "133759.062000", "133759.065000", "133759.068000", "133759.070000", "133759.073000", "133759.076000", "133759.078000", "133759.081000", "133759.083000", "133759.086000", "133759.089000", "133759.091000", "133759.094000", "133839.011000", "133839.013000", "133839.016000", "133839.019000", "133839.022000", "133839.024000", "133839.027000", "133839.030000", "133839.032000", "133839.035000", "133839.037000", "133839.040000", "133839.042000", "133839.045000", "133839.048000", "133839.050000", "133839.053000", "133839.056000", "133839.058000", "133839.061000", "133839.063000", "133839.066000", "133839.069000", "133839.072000", "133839.074000", "133839.077000", "133839.079000", "133839.082000", "133839.085000", "133839.087000", "133839.090000", "133839.093000", "133839.095000", "133919.010000", "133919.012000", "133919.015000", "133919.018000", "133919.020000", "133919.023000", "133919.026000", "133919.028000", "133919.031000", "133919.034000", "133919.036000", "133919.039000", "133919.042000", "133919.044000", "133919.047000", "133919.050000", "133919.052000", "133919.055000", "133919.057000", "133919.060000", "133919.063000", "133919.065000", "133919.068000", "133919.070000", "133919.073000", "133919.076000", "133919.078000", "133919.081000", "133919.084000", "133919.086000", "133919.089000", "133919.092000", "133919.094000", "133919.097000", "133959.010000", "133959.026000", "133959.028000", "133959.031000", "133959.033000", "133959.036000", "133959.039000", "133959.041000", "133959.044000", "133959.047000", "133959.049000", "133959.052000", "133959.054000", "133959.057000", "133959.060000", "133959.062000", "133959.065000", "133959.068000", "133959.070000", "133959.073000", "133959.075000", "133959.078000", "133959.081000", "133959.083000", "133959.086000", "133959.088000", "133959.091000", "133959.094000", "133959.096000", "133959.099000", "133959.102000", "133959.104000", "133959.107000", "134039.009000", "134039.012000", "134039.015000", "134039.017000", "134039.020000", "134039.023000", "134039.025000", "134039.028000", "134039.031000", "134039.033000", "134039.036000", "134039.038000", "134039.041000", "134039.044000", "134039.046000", "134039.049000", "134039.052000", "134039.054000", "134039.057000", "134039.059000", "134039.062000", "134039.065000", "134039.067000", "134039.070000", "134039.072000", "134039.075000", "134039.077000", "134039.080000", "134039.083000", "134039.085000", "134039.088000", "134039.090000", "134039.093000", "134053.595000", "134053.598000", "134053.601000", "134053.604000", "134053.606000", "134053.609000", "134053.611000", "134053.614000", "134053.617000", "134053.619000", "134053.622000", "134053.625000", "134053.627000"],
      "InstanceCreationTime": ["133339.014000", "133339.017000", "133339.020000", "133339.022000", "133339.025000", "133339.028000", "133339.037000", "133339.040000", "133339.043000", "133339.056000", "133339.058000", "133339.061000", "133339.064000", "133339.066000", "133339.069000", "133339.071000", "133339.074000", "133339.076000", "133339.085000", "133339.088000", "133339.090000", "133339.093000", "133339.095000", "133339.098000", "133339.100000", "133339.103000", "133339.106000", "133339.108000", "133339.111000", "133419.010000", "133419.013000", "133419.016000", "133419.019000", "133419.021000", "133419.024000", "133419.026000", "133419.038000", "133419.040000", "133419.043000", "133419.046000", "133419.048000", "133419.060000", "133419.062000", "133419.065000", "133419.067000", "133419.070000", "133419.073000", "133419.075000", "133419.078000", "133419.080000", "133419.083000", "133419.086000", "133419.088000", "133419.091000", "133419.094000", "133419.096000", "133419.099000", "133419.101000", "133419.104000", "133419.107000", "133419.109000", "133419.112000", "133419.114000", "133459.009000", "133459.012000", "133459.015000", "133459.018000", "133459.020000", "133459.023000", "133459.025000", "133459.028000", "133459.030000", "133459.033000", "133459.036000", "133459.038000", "133459.041000", "133459.043000", "133459.046000", "133459.048000", "133459.051000", "133459.054000", "133459.056000", "133459.059000", "133459.061000", "133459.064000", "133459.066000", "133459.069000", "133459.071000", "133459.074000", "133459.077000", "133459.079000", "133459.082000", "133459.085000", "133459.087000", "133459.090000", "133459.092000", "133539.009000", "133539.013000", "133539.016000", "133539.018000", "133539.021000", "133539.024000", "133539.026000", "133539.029000", "133539.032000", "133539.034000", "133539.037000", "133539.039000", "133539.042000", "133539.044000", "133539.047000", "133539.050000", "133539.052000", "133539.055000", "133539.057000", "133539.060000", "133539.062000", "133539.065000", "133539.068000", "133539.070000", "133539.073000", "133539.075000", "133539.078000", "133539.080000", "133539.083000", "133539.086000", "133539.088000", "133539.091000", "133539.093000", "133619.010000", "133619.013000", "133619.016000", "133619.018000", "133619.021000", "133619.024000", "133619.026000", "133619.029000", "133619.031000", "133619.034000", "133619.036000", "133619.039000", "133619.042000", "133619.044000", "133619.047000", "133619.050000", "133619.052000", "133619.055000", "133619.057000", "133619.060000", "133619.063000", "133619.065000", "133619.068000", "133619.070000", "133619.073000", "133619.075000", "133619.078000", "133619.080000", "133619.083000", "133619.086000", "133619.088000", "133619.091000", "133619.094000", "133619.096000", "133659.009000", "133659.012000", "133659.015000", "133659.017000", "133659.020000", "133659.023000", "133659.025000", "133659.028000", "133659.031000", "133659.033000", "133659.036000", "133659.038000", "133659.041000", "133659.044000", "133659.046000", "133659.049000", "133659.051000", "133659.054000", "133659.056000", "133659.059000", "133659.062000", "133659.068000", "133659.070000", "133659.073000", "133659.076000", "133659.078000", "133659.081000", "133659.083000", "133659.086000", "133659.088000", "133659.091000", "133659.093000", "133659.096000", "133719.010000", "133719.013000", "133719.015000", "133719.018000", "133719.020000", "133719.023000", "133719.026000", "133719.028000", "133719.031000", "133719.034000", "133719.036000", "133719.039000", "133719.041000", "133719.044000", "133719.047000", "133719.049000", "133719.052000", "133759.009000", "133759.012000", "133759.015000", "133759.018000", "133759.020000", "133759.023000", "133759.026000", "133759.029000", "133759.031000", "133759.034000", "133759.036000", "133759.039000", "133759.042000", "133759.044000", "133759.047000", "133759.049000", "133759.052000", "133759.055000", "133759.057000", "133759.060000", "133759.062000", "133759.065000", "133759.068000", "133759.070000", "133759.073000", "133759.076000", "133759.078000", "133759.081000", "133759.083000", "133759.086000", "133759.089000", "133759.091000", "133759.094000", "133839.011000", "133839.013000", "133839.016000", "133839.019000", "133839.022000", "133839.024000", "133839.027000", "133839.030000", "133839.032000", "133839.035000", "133839.037000", "133839.040000", "133839.042000", "133839.045000", "133839.048000", "133839.050000", "133839.053000", "133839.056000", "133839.058000", "133839.061000", "133839.063000", "133839.066000", "133839.069000", "133839.072000", "133839.074000", "133839.077000", "133839.079000", "133839.082000", "133839.085000", "133839.087000", "133839.090000", "133839.093000", "133839.095000", "133919.010000", "133919.012000", "133919.015000", "133919.018000", "133919.020000", "133919.023000", "133919.026000", "133919.028000", "133919.031000", "133919.034000", "133919.036000", "133919.039000", "133919.042000", "133919.044000", "133919.047000", "133919.050000", "133919.052000", "133919.055000", "133919.057000", "133919.060000", "133919.063000", "133919.065000", "133919.068000", "133919.070000", "133919.073000", "133919.076000", "133919.078000", "133919.081000", "133919.084000", "133919.086000", "133919.089000", "133919.092000", "133919.094000", "133919.097000", "133959.010000", "133959.026000", "133959.028000", "133959.031000", "133959.033000", "133959.036000", "133959.039000", "133959.041000", "133959.044000", "133959.047000", "133959.049000", "133959.052000", "133959.054000", "133959.057000", "133959.060000", "133959.062000", "133959.065000", "133959.068000", "133959.070000", "133959.073000", "133959.075000", "133959.078000", "133959.081000", "133959.083000", "133959.086000", "133959.088000", "133959.091000", "133959.094000", "133959.096000", "133959.099000", "133959.102000", "133959.104000", "133959.107000", "134039.009000", "134039.012000", "134039.015000", "134039.017000", "134039.020000", "134039.023000", "134039.025000", "134039.028000", "134039.031000", "134039.033000", "134039.036000", "134039.038000", "134039.041000", "134039.044000", "134039.046000", "134039.049000", "134039.052000", "134039.054000", "134039.057000", "134039.059000", "134039.062000", "134039.065000", "134039.067000", "134039.070000", "134039.072000", "134039.075000", "134039.077000", "134039.080000", "134039.083000", "134039.085000", "134039.088000", "134039.090000", "134039.093000", "134053.595000", "134053.598000", "134053.601000", "134053.604000", "134053.606000", "134053.609000", "134053.611000", "134053.614000", "134053.617000", "134053.619000", "134053.622000", "134053.625000", "134053.627000"],
      "InstanceNumber": [1, 2, 3, 4, 5, 6, 7, 8, 9, 10, 11, 12, 13, 14, 15, 16, 17, 18, 19, 20, 21, 22, 23, 24, 25, 26, 27, 28, 29, 30, 31, 32, 33, 34, 35, 36, 37, 38, 39, 40, 41, 42, 43, 44, 45, 46, 47, 48, 49, 50, 51, 52, 53, 54, 55, 56, 57, 58, 59, 60, 61, 62, 63, 64, 65, 66, 67, 68, 69, 70, 71, 72, 73, 74, 75, 76, 77, 78, 79, 80, 81, 82, 83, 84, 85, 86, 87, 88, 89, 90, 91, 92, 93, 94, 95, 96, 97, 98, 99, 100, 101, 102, 103, 104, 105, 106, 107, 108, 109, 110, 111, 112, 113, 114, 115, 116, 117, 118, 119, 120, 121, 122, 123, 124, 125, 126, 127, 128, 129, 130, 131, 132, 133, 134, 135, 136, 137, 138, 139, 140, 141, 142, 143, 144, 145, 146, 147, 148, 149, 150, 151, 152, 153, 154, 155, 156, 157, 158, 159, 160, 161, 162, 163, 164, 165, 166, 167, 168, 169, 170, 171, 172, 173, 174, 175, 176, 177, 178, 179, 180, 181, 182, 183, 184, 185, 186, 187, 188, 189, 190, 191, 192, 193, 194, 195, 196, 197, 198, 199, 200, 201, 202, 203, 204, 205, 206, 207, 208, 209, 210, 211, 212, 213, 214, 215, 216, 217, 218, 219, 220, 221, 222, 223, 224, 225, 226, 227, 228, 229, 230, 231, 232, 233, 234, 235, 236, 237, 238, 239, 240, 241, 242, 243, 244, 245, 246, 247, 248, 249, 250, 251, 252, 253, 254, 255, 256, 257, 258, 259, 260, 261, 262, 263, 264, 265, 266, 267, 268, 269, 270, 271, 272, 273, 274, 275, 276, 277, 278, 279, 280, 281, 282, 283, 284, 285, 286, 287, 288, 289, 290, 291, 292, 293, 294, 295, 296, 297, 298, 299, 300, 301, 302, 303, 304, 305, 306, 307, 308, 309, 310, 311, 312, 313, 314, 315, 316, 317, 318, 319, 320, 321, 322, 323, 324, 325, 326, 327, 328, 329, 330, 331, 332, 333, 334, 335, 336, 337, 338, 339, 340, 341, 342, 343, 344, 345, 346, 347, 348, 349, 350, 351, 352, 353, 354, 355, 356, 357, 358, 359, 360, 361, 362, 363, 364, 365, 366, 367, 368, 369, 370, 371, 372, 373, 374, 375, 376, 377, 378, 379, 380, 381, 382, 383, 384, 385, 386, 387, 388, 389, 390, 391, 392],
