{
  "AcquisitionMatrixPE": 88,
  "AcquisitionNumber": 1,
  "AcquisitionTime": "12:07:39.165000",
  "BandwidthPerPixelPhaseEncode": 19.592,
  "BaseResolution": 88,
  "BodyPartExamined": "BRAIN",
  "ConsistencyInfo": "N4_VE11C_LATEST_20160120",
  "ConversionSoftware": "dcm2niix",
  "ConversionSoftwareVersion": "v1.0.20190902",
  "DerivedVendorReportedEchoSpacing": 0.000580014,
  "DeviceSerialNumber": "67050",
  "DwellTime": 2.6e-06,
  "EchoTime": 0.033,
  "EchoTrainLength": 88,
  "EffectiveEchoSpacing": 0.000580014,
  "FlipAngle": 62,
  "ImageOrientationPatientDICOM": [0.990031, -0.0283668, 0.137965, 0.0207381, 0.998192, 0.0564206],
  "ImageType": [
    "ORIGINAL",
    "PRIMARY",
    "M",
    "ND",
    "MOSAIC"
],
  "ImagingFrequency": 123.251,
  "InPlanePhaseEncodingDirectionDICOM": "COL",
  "InstitutionAddress": "Olive_Street_60_Providence_RI_US_02912",
  "InstitutionName": "BROWN_UNIVERSITY_MRF",
  "InstitutionalDepartmentName": "Department",
  "MRAcquisitionType": "2D",
  "MagneticFieldStrength": 3,
  "Manufacturer": "Siemens",
  "ManufacturersModelName": "Prisma_fit",
  "Modality": "MR",
  "MultibandAccelerationFactor": 4,
  "PartialFourier": 1,
  "PatientPosition": "HFS",
  "PercentPhaseFOV": 100,
  "PhaseEncodingDirection": "j-",
  "PhaseEncodingSteps": 88,
  "PhaseResolution": 1,
  "PixelBandwidth": 2185,
  "ProcedureStepDescription": "ASHENHAV_1222",
  "ProtocolName": "func-bold_task-RDMcolor_run-05",
  "PulseSequenceDetails": "%SiemensSeq%_ep2d_bold",
  "ReceiveCoilActiveElements": "HC1-7",
  "ReceiveCoilName": "HeadNeck_64",
  "ReconMatrixPE": 88,
  "RefLinesPE": 8,
  "RepetitionTime": 1.2,
  "SAR": 0.0511488,
  "ScanOptions": "FS",
  "ScanningSequence": "EP",
  "SequenceName": "_epfid2d1_88",
  "SequenceVariant": "SK",
  "SeriesDescription": "func-bold_task-RDMcolor_run-05",
  "SeriesNumber": 16,
  "ShimSetting": [1780, -9115, 4430, 504, -89, -74, 28, 29],
  "SliceThickness": 2.4,
  "SliceTiming": [0.55, 0, 0.63, 0.0775, 0.7075, 0.1575, 0.7875, 0.235, 0.865, 0.315, 0.945, 0.3925, 1.0225, 0.4725, 1.1, 0.55, 0, 0.63, 0.0775, 0.7075, 0.1575, 0.7875, 0.235, 0.865, 0.315, 0.945, 0.3925, 1.0225, 0.4725, 1.1, 0.55, 0, 0.63, 0.0775, 0.7075, 0.1575, 0.7875, 0.235, 0.865, 0.315, 0.945, 0.3925, 1.0225, 0.4725, 1.1, 0.55, 0, 0.63, 0.0775, 0.7075, 0.1575, 0.7875, 0.235, 0.865, 0.315, 0.945, 0.3925, 1.0225, 0.4725, 1.1],
  "SoftwareVersions": "syngo_MR_E11",
  "SpacingBetweenSlices": 2.4,
  "StationName": "AWP67050",
  "TaskName": "RDMcolor",
  "TotalReadoutTime": 0.0504612,
  "TxRefAmp": 245.896,
  "dcmmeta_affine": [
    [-2.373823642730713, 0.04972442239522934, 0.3343591094017029, 101.50154113769531],
    [0.06801580637693405, 2.3933913707733154, 0.12719270586967468, -92.10521697998047],
    [0.33080318570137024, -0.13528114557266235, 2.3731889724731445, -67.49132537841797],
    [0.0, 0.0, 0.0, 1.0]
],
  "dcmmeta_reorient_transform": [
    [0.0, -1.0, 0.0, 87.0],
    [1.0, 0.0, 0.0, 0.0],
    [0.0, 0.0, 1.0, 0.0],
    [0.0, 0.0, 0.0, 1.0]
],
  "dcmmeta_shape": [88, 88, 60, 392],
  "dcmmeta_slice_dim": 2,
  "dcmmeta_version": 0.6,
  "global": {
    "const": {
      "AcquisitionMatrix": [88, 0, 0, 88],
      "AngioFlag": "N",
      "BitsAllocated": 16,
      "BitsStored": 12,
      "BodyPartExamined": "BRAIN",
      "Columns": 704,
      "DeidentificationMethodCodeSequence": [
        {
          "CodeMeaning": "XNAT DicomEdit 6 Script",
          "CodeValue": "3",
          "CodingSchemeDesignator": "XNAT",
          "CodingSchemeVersion": "1.0"}
],
      "EchoNumbers": 1,
      "EchoTime": 33.0,
      "EchoTrainLength": 88,
      "FlipAngle": 62.0,
      "HighBit": 11,
      "ImageOrientationPatient": [0.99003075620664, -0.0283667822897, 0.13796531240654, 0.02073814802468, 0.9981916890948, 0.05642057283102],
      "ImagePositionPatient": [-852.28039799593, -832.33551957021, -222.81475648875],
      "ImageType": [
        "ORIGINAL",
        "PRIMARY",
        "M",
        "ND",
        "MOSAIC"
],
      "ImagedNucleus": "1H",
      "ImagingFrequency": 123.250751,
      "InPlanePhaseEncodingDirection": "COL",
      "MRAcquisitionType": "2D",
      "MagneticFieldStrength": 3.0,
      "Manufacturer": "SIEMENS",
      "ManufacturerModelName": "Prisma_fit",
      "Modality": "MR",
      "NumberOfAverages": 1.0,
      "NumberOfPhaseEncodingSteps": 88,
      "PercentPhaseFieldOfView": 100.0,
      "PercentSampling": 100.0,
      "PerformedProcedureStepStartTime": "104915.366000",
      "PhotometricInterpretation": "MONOCHROME2",
      "PixelBandwidth": 2185.0,
      "PixelRepresentation": 0,
      "PixelSpacing": [2.3977272510529, 2.3977272510529],
      "ProtocolName": "func-bold_task-RDMcolor_run-05",
      "RepetitionTime": 1200.0,
      "Rows": 704,
      "SAR": 0.05114879932756,
      "SamplesPerPixel": 1,
      "ScanOptions": "FS",
      "ScanningSequence": "EP",
      "SequenceName": "*epfid2d1_88",
      "SequenceVariant": "SK",
      "SeriesDescription": "func-bold_task-RDMcolor_run-05",
      "SeriesNumber": 16,
      "SeriesTime": "120805.973000",
      "SliceLocation": -57.477836350794,
      "SliceThickness": 2.4000000953674,
      "SmallestImagePixelValue": 0,
      "SoftwareVersions": "syngo MR E11",
      "SpacingBetweenSlices": 2.4000000583567,
      "SpecificCharacterSet": "ISO_IR 100",
      "StudyID": "1",
      "StudyTime": "104915.286000",
      "TransmitCoilName": "Body",
      "VariableFlipAngleFlag": "N",
      "WindowCenterWidthExplanation": "Algo1",
      "dBdt": 0.0},
    "slices": {}
  },
  "time": {
    "samples": {
      "AcquisitionNumber": [1, 2, 3, 4, 5, 6, 7, 8, 9, 10, 11, 12, 13, 14, 15, 16, 17, 18, 19, 20, 21, 22, 23, 24, 25, 26, 27, 28, 29, 30, 31, 32, 33, 34, 35, 36, 37, 38, 39, 40, 41, 42, 43, 44, 45, 46, 47, 48, 49, 50, 51, 52, 53, 54, 55, 56, 57, 58, 59, 60, 61, 62, 63, 64, 65, 66, 67, 68, 69, 70, 71, 72, 73, 74, 75, 76, 77, 78, 79, 80, 81, 82, 83, 84, 85, 86, 87, 88, 89, 90, 91, 92, 93, 94, 95, 96, 97, 98, 99, 100, 101, 102, 103, 104, 105, 106, 107, 108, 109, 110, 111, 112, 113, 114, 115, 116, 117, 118, 119, 120, 121, 122, 123, 124, 125, 126, 127, 128, 129, 130, 131, 132, 133, 134, 135, 136, 137, 138, 139, 140, 141, 142, 143, 144, 145, 146, 147, 148, 149, 150, 151, 152, 153, 154, 155, 156, 157, 158, 159, 160, 161, 162, 163, 164, 165, 166, 167, 168, 169, 170, 171, 172, 173, 174, 175, 176, 177, 178, 179, 180, 181, 182, 183, 184, 185, 186, 187, 188, 189, 190, 191, 192, 193, 194, 195, 196, 197, 198, 199, 200, 201, 202, 203, 204, 205, 206, 207, 208, 209, 210, 211, 212, 213, 214, 215, 216, 217, 218, 219, 220, 221, 222, 223, 224, 225, 226, 227, 228, 229, 230, 231, 232, 233, 234, 235, 236, 237, 238, 239, 240, 241, 242, 243, 244, 245, 246, 247, 248, 249, 250, 251, 252, 253, 254, 255, 256, 257, 258, 259, 260, 261, 262, 263, 264, 265, 266, 267, 268, 269, 270, 271, 272, 273, 274, 275, 276, 277, 278, 279, 280, 281, 282, 283, 284, 285, 286, 287, 288, 289, 290, 291, 292, 293, 294, 295, 296, 297, 298, 299, 300, 301, 302, 303, 304, 305, 306, 307, 308, 309, 310, 311, 312, 313, 314, 315, 316, 317, 318, 319, 320, 321, 322, 323, 324, 325, 326, 327, 328, 329, 330, 331, 332, 333, 334, 335, 336, 337, 338, 339, 340, 341, 342, 343, 344, 345, 346, 347, 348, 349, 350, 351, 352, 353, 354, 355, 356, 357, 358, 359, 360, 361, 362, 363, 364, 365, 366, 367, 368, 369, 370, 371, 372, 373, 374, 375, 376, 377, 378, 379, 380, 381, 382, 383, 384, 385, 386, 387, 388, 389, 390, 391, 392],
      "AcquisitionTime": ["120739.165000", "120740.365000", "120741.565000", "120742.765000", "120743.965000", "120745.165000", "120746.365000", "120747.565000", "120748.765000", "120749.965000", "120751.165000", "120752.365000", "120753.565000", "120754.765000", "120755.965000", "120757.165000", "120758.365000", "120759.565000", "120800.765000", "120801.965000", "120803.165000", "120804.365000", "120805.565000", "120806.765000", "120807.965000", "120809.165000", "120810.365000", "120811.565000", "120812.765000", "120813.965000", "120815.165000", "120816.365000", "120817.565000", "120818.765000", "120819.965000", "120821.165000", "120822.365000", "120823.565000", "120824.765000", "120825.965000", "120827.165000", "120828.365000", "120829.565000", "120830.765000", "120831.965000", "120833.165000", "120834.365000", "120835.565000", "120836.765000", "120837.965000", "120839.165000", "120840.365000", "120841.565000", "120842.765000", "120843.965000", "120845.165000", "120846.365000", "120847.565000", "120848.765000", "120849.965000", "120851.165000", "120852.365000", "120853.565000", "120854.765000", "120855.965000", "120857.165000", "120858.365000", "120859.565000", "120900.765000", "120901.965000", "120903.165000", "120904.365000", "120905.565000", "120906.765000", "120907.965000", "120909.165000", "120910.365000", "120911.565000", "120912.765000", "120913.965000", "120915.165000", "120916.365000", "120917.565000", "120918.765000", "120919.965000", "120921.165000", "120922.365000", "120923.565000", "120924.765000", "120925.965000", "120927.165000", "120928.365000", "120929.565000", "120930.765000", "120931.965000", "120933.165000", "120934.365000", "120935.565000", "120936.765000", "120937.965000", "120939.165000", "120940.365000", "120941.565000", "120942.765000", "120943.965000", "120945.165000", "120946.365000", "120947.565000", "120948.765000", "120949.965000", "120951.165000", "120952.365000", "120953.565000", "120954.765000", "120955.965000", "120957.165000", "120958.365000", "120959.565000", "121000.765000", "121001.965000", "121003.165000", "121004.365000", "121005.565000", "121006.765000", "121007.965000", "121009.165000", "121010.365000", "121011.565000", "121012.765000", "121013.965000", "121015.165000", "121016.365000", "121017.565000", "121018.765000", "121019.965000", "121021.165000", "121022.365000", "121023.565000", "121024.765000", "121025.965000", "121027.165000", "121028.365000", "121029.565000", "121030.765000", "121031.965000", "121033.165000", "121034.365000", "121035.565000", "121036.765000", "121037.965000", "121039.165000", "121040.365000", "121041.565000", "121042.765000", "121043.965000", "121045.165000", "121046.365000", "121047.565000", "121048.765000", "121049.965000", "121051.165000", "121052.365000", "121053.565000", "121054.765000", "121055.965000", "121057.165000", "121058.365000", "121059.565000", "121100.765000", "121101.965000", "121103.165000", "121104.365000", "121105.565000", "121106.765000", "121107.965000", "121109.165000", "121110.365000", "121111.565000", "121112.765000", "121113.965000", "121115.165000", "121116.365000", "121117.565000", "121118.765000", "121119.965000", "121121.165000", "121122.365000", "121123.565000", "121124.765000", "121125.965000", "121127.165000", "121128.365000", "121129.565000", "121130.765000", "121131.965000", "121133.165000", "121134.365000", "121135.565000", "121136.765000", "121137.965000", "121139.165000", "121140.365000", "121141.565000", "121142.765000", "121143.965000", "121145.165000", "121146.365000", "121147.565000", "121148.765000", "121149.965000", "121151.165000", "121152.365000", "121153.565000", "121154.765000", "121155.965000", "121157.165000", "121158.365000", "121159.565000", "121200.765000", "121201.965000", "121203.165000", "121204.365000", "121205.565000", "121206.765000", "121207.965000", "121209.165000", "121210.365000", "121211.565000", "121212.765000", "121213.965000", "121215.165000", "121216.365000", "121217.565000", "121218.765000", "121219.965000", "121221.165000", "121222.365000", "121223.565000", "121224.765000", "121225.965000", "121227.165000", "121228.365000", "121229.565000", "121230.765000", "121231.965000", "121233.165000", "121234.365000", "121235.565000", "121236.765000", "121237.965000", "121239.165000", "121240.365000", "121241.565000", "121242.765000", "121243.965000", "121245.165000", "121246.365000", "121247.565000", "121248.765000", "121249.965000", "121251.165000", "121252.365000", "121253.565000", "121254.765000", "121255.965000", "121257.165000", "121258.365000", "121259.565000", "121300.765000", "121301.965000", "121303.165000", "121304.365000", "121305.565000", "121306.765000", "121307.965000", "121309.165000", "121310.365000", "121311.565000", "121312.765000", "121313.965000", "121315.165000", "121316.365000", "121317.565000", "121318.765000", "121319.965000", "121321.165000", "121322.365000", "121323.565000", "121324.765000", "121325.965000", "121327.165000", "121328.365000", "121329.565000", "121330.765000", "121331.965000", "121333.165000", "121334.365000", "121335.565000", "121336.765000", "121337.965000", "121339.165000", "121340.365000", "121341.565000", "121342.765000", "121343.965000", "121345.165000", "121346.365000", "121347.565000", "121348.765000", "121349.965000", "121351.165000", "121352.365000", "121353.565000", "121354.765000", "121355.965000", "121357.165000", "121358.365000", "121359.565000", "121400.765000", "121401.965000", "121403.165000", "121404.365000", "121405.565000", "121406.765000", "121407.965000", "121409.165000", "121410.365000", "121411.565000", "121412.765000", "121413.965000", "121415.165000", "121416.365000", "121417.565000", "121418.765000", "121419.965000", "121421.165000", "121422.365000", "121423.565000", "121424.765000", "121425.965000", "121427.165000", "121428.365000", "121429.565000", "121430.765000", "121431.965000", "121433.165000", "121434.365000", "121435.565000", "121436.765000", "121437.965000", "121439.165000", "121440.365000", "121441.565000", "121442.765000", "121443.965000", "121445.165000", "121446.365000", "121447.565000", "121448.765000", "121449.965000", "121451.165000", "121452.365000", "121453.565000", "121454.765000", "121455.965000", "121457.165000", "121458.365000", "121459.565000", "121500.765000", "121501.965000", "121503.165000", "121504.365000", "121505.565000", "121506.765000", "121507.965000", "121509.165000", "121510.365000", "121511.565000", "121512.765000", "121513.965000", "121515.165000", "121516.365000", "121517.565000", "121518.765000", "121519.965000", "121521.165000", "121522.365000", "121523.565000", "121524.765000", "121525.965000", "121527.165000", "121528.365000"],
      "ContentTime": ["120805.977000", "120805.980000", "120805.983000", "120805.985000", "120805.988000", "120806.001000", "120806.003000", "120806.006000", "120806.008000", "120806.011000", "120806.014000", "120806.016000", "120806.023000", "120806.026000", "120806.029000", "120806.032000", "120806.035000", "120806.037000", "120806.040000", "120806.043000", "120806.045000", "120845.972000", "120845.975000", "120845.978000", "120845.981000", "120845.983000", "120845.986000", "120845.992000", "120845.995000", "120845.997000", "120846.001000", "120846.003000", "120846.006000", "120846.009000", "120846.011000", "120846.014000", "120846.016000", "120846.019000", "120846.021000", "120846.024000", "120846.027000", "120846.029000", "120846.032000", "120846.034000", "120846.037000", "120846.040000", "120846.042000", "120846.045000", "120846.048000", "120846.050000", "120846.053000", "120846.056000", "120846.058000", "120846.061000", "120846.063000", "120925.972000", "120925.984000", "120925.989000", "120925.992000", "120926.000000", "120926.013000", "120926.016000", "120926.022000", "120926.031000", "120926.037000", "120926.040000", "120926.044000", "120926.047000", "120926.054000", "120926.057000", "120926.063000", "120926.065000", "120926.068000", "120926.070000", "120926.073000", "120926.076000", "120926.078000", "120926.082000", "120926.085000", "120926.088000", "120926.090000", "120926.093000", "120926.096000", "120926.098000", "120926.101000", "120926.103000", "120926.106000", "120926.108000", "121005.973000", "121005.976000", "121005.979000", "121005.981000", "121005.984000", "121005.987000", "121005.989000", "121005.992000", "121005.994000", "121005.997000", "121006.000000", "121006.003000", "121006.006000", "121006.008000", "121006.011000", "121006.013000", "121006.016000", "121006.019000", "121006.021000", "121006.024000", "121006.026000", "121006.029000", "121006.031000", "121006.034000", "121006.037000", "121006.040000", "121006.042000", "121006.045000", "121006.048000", "121006.079000", "121006.081000", "121006.084000", "121006.086000", "121045.972000", "121045.975000", "121045.978000", "121045.980000", "121045.983000", "121045.985000", "121045.988000", "121045.991000", "121045.993000", "121045.996000", "121045.998000", "121046.002000", "121046.004000", "121046.007000", "121046.010000", "121046.012000", "121046.015000", "121046.017000", "121046.020000", "121046.022000", "121046.025000", "121046.027000", "121046.030000", "121046.033000", "121046.035000", "121046.038000", "121046.040000", "121046.043000", "121046.045000", "121046.048000", "121046.051000", "121046.053000", "121046.056000", "121046.058000", "121125.973000", "121125.975000", "121125.978000", "121125.981000", "121125.983000", "121125.986000", "121125.989000", "121125.991000", "121125.994000", "121125.996000", "121126.000000", "121126.002000", "121126.005000", "121126.008000", "121126.010000", "121126.013000", "121126.015000", "121126.018000", "121126.021000", "121126.023000", "121126.032000", "121126.035000", "121126.038000", "121126.040000", "121126.043000", "121126.045000", "121126.048000", "121126.050000", "121126.053000", "121126.055000", "121126.058000", "121126.061000", "121126.063000", "121145.973000", "121145.976000", "121145.978000", "121145.981000", "121145.983000", "121145.986000", "121145.988000", "121145.991000", "121145.994000", "121145.996000", "121146.000000", "121146.003000", "121146.005000", "121146.008000", "121146.010000", "121146.013000", "121146.016000", "121225.973000", "121225.976000", "121225.979000", "121225.982000", "121225.984000", "121225.987000", "121225.989000", "121225.992000", "121225.995000", "121225.997000", "121226.001000", "121226.004000", "121226.006000", "121226.009000", "121226.011000", "121226.014000", "121226.017000", "121226.019000", "121226.022000", "121226.024000", "121226.027000", "121226.030000", "121226.032000", "121226.035000", "121226.037000", "121226.040000", "121226.042000", "121226.045000", "121226.048000", "121226.050000", "121226.053000", "121226.055000", "121226.058000", "121305.973000", "121305.975000", "121305.979000", "121305.981000", "121305.984000", "121305.986000", "121305.989000", "121305.992000", "121305.994000", "121305.997000", "121306.001000", "121306.003000", "121306.006000", "121306.008000", "121306.011000", "121306.014000", "121306.016000", "121306.019000", "121306.021000", "121306.024000", "121306.028000", "121306.030000", "121306.033000", "121306.036000", "121306.039000", "121306.042000", "121306.044000", "121306.047000", "121306.050000", "121306.052000", "121306.055000", "121306.058000", "121306.060000", "121345.972000", "121345.975000", "121345.978000", "121345.980000", "121345.983000", "121345.986000", "121345.988000", "121345.991000", "121345.993000", "121345.996000", "121345.998000", "121346.002000", "121346.004000", "121346.007000", "121346.009000", "121346.012000", "121346.015000", "121346.017000", "121346.020000", "121346.022000", "121346.025000", "121346.027000", "121346.030000", "121346.033000", "121346.035000", "121346.038000", "121346.041000", "121346.043000", "121346.046000", "121346.048000", "121346.051000", "121346.054000", "121346.056000", "121346.059000", "121425.973000", "121425.976000", "121425.979000", "121425.981000", "121425.984000", "121425.987000", "121425.989000", "121425.992000", "121425.995000", "121426.016000", "121426.018000", "121426.021000", "121426.024000", "121426.026000", "121426.029000", "121426.032000", "121426.034000", "121426.037000", "121426.039000", "121426.042000", "121426.045000", "121426.047000", "121426.050000", "121426.052000", "121426.055000", "121426.058000", "121426.060000", "121426.063000", "121426.066000", "121426.068000", "121426.071000", "121426.073000", "121426.076000", "121505.973000", "121505.975000", "121505.978000", "121505.980000", "121505.983000", "121505.986000", "121505.988000", "121505.991000", "121505.994000", "121505.996000", "121506.000000", "121506.002000", "121506.005000", "121506.008000", "121506.010000", "121506.013000", "121506.015000", "121506.018000", "121506.021000", "121506.023000", "121506.026000", "121506.028000", "121506.031000", "121506.034000", "121506.037000", "121506.040000", "121506.043000", "121506.046000", "121506.049000", "121506.051000", "121506.054000", "121506.057000", "121506.059000", "121530.130000", "121530.133000", "121530.136000", "121530.139000", "121530.142000", "121530.145000", "121530.147000", "121530.150000", "121530.152000", "121530.155000", "121530.158000", "121530.160000", "121530.163000", "121530.166000", "121530.168000", "121530.171000", "121530.173000", "121530.176000", "121530.178000", "121530.181000", "121530.184000"],
      "InstanceCreationTime": ["120805.977000", "120805.980000", "120805.983000", "120805.985000", "120805.988000", "120806.001000", "120806.003000", "120806.006000", "120806.008000", "120806.011000", "120806.014000", "120806.016000", "120806.023000", "120806.026000", "120806.029000", "120806.032000", "120806.035000", "120806.037000", "120806.040000", "120806.043000", "120806.045000", "120845.972000", "120845.975000", "120845.978000", "120845.981000", "120845.983000", "120845.986000", "120845.992000", "120845.995000", "120845.997000", "120846.001000", "120846.003000", "120846.006000", "120846.009000", "120846.011000", "120846.014000", "120846.016000", "120846.019000", "120846.021000", "120846.024000", "120846.027000", "120846.029000", "120846.032000", "120846.034000", "120846.037000", "120846.040000", "120846.042000", "120846.045000", "120846.048000", "120846.050000", "120846.053000", "120846.056000", "120846.058000", "120846.061000", "120846.063000", "120925.972000", "120925.984000", "120925.989000", "120925.992000", "120926.000000", "120926.013000", "120926.016000", "120926.022000", "120926.031000", "120926.037000", "120926.040000", "120926.044000", "120926.047000", "120926.054000", "120926.057000", "120926.063000", "120926.065000", "120926.068000", "120926.070000", "120926.073000", "120926.076000", "120926.078000", "120926.082000", "120926.085000", "120926.088000", "120926.090000", "120926.093000", "120926.096000", "120926.098000", "120926.101000", "120926.103000", "120926.106000", "120926.108000", "121005.973000", "121005.976000", "121005.979000", "121005.981000", "121005.984000", "121005.987000", "121005.989000", "121005.992000", "121005.994000", "121005.997000", "121006.000000", "121006.003000", "121006.006000", "121006.008000", "121006.011000", "121006.013000", "121006.016000", "121006.019000", "121006.021000", "121006.024000", "121006.026000", "121006.029000", "121006.031000", "121006.034000", "121006.037000", "121006.040000", "121006.042000", "121006.045000", "121006.048000", "121006.079000", "121006.081000", "121006.084000", "121006.086000", "121045.972000", "121045.975000", "121045.978000", "121045.980000", "121045.983000", "121045.985000", "121045.988000", "121045.991000", "121045.993000", "121045.996000", "121045.998000", "121046.002000", "121046.004000", "121046.007000", "121046.010000", "121046.012000", "121046.015000", "121046.017000", "121046.020000", "121046.022000", "121046.025000", "121046.027000", "121046.030000", "121046.033000", "121046.035000", "121046.038000", "121046.040000", "121046.043000", "121046.045000", "121046.048000", "121046.051000", "121046.053000", "121046.056000", "121046.058000", "121125.973000", "121125.975000", "121125.978000", "121125.981000", "121125.983000", "121125.986000", "121125.989000", "121125.991000", "121125.994000", "121125.996000", "121126.000000", "121126.002000", "121126.005000", "121126.008000", "121126.010000", "121126.013000", "121126.015000", "121126.018000", "121126.021000", "121126.023000", "121126.032000", "121126.035000", "121126.038000", "121126.040000", "121126.043000", "121126.045000", "121126.048000", "121126.050000", "121126.053000", "121126.055000", "121126.058000", "121126.061000", "121126.063000", "121145.973000", "121145.976000", "121145.978000", "121145.981000", "121145.983000", "121145.986000", "121145.988000", "121145.991000", "121145.994000", "121145.996000", "121146.000000", "121146.003000", "121146.005000", "121146.008000", "121146.010000", "121146.013000", "121146.016000", "121225.973000", "121225.976000", "121225.979000", "121225.982000", "121225.984000", "121225.987000", "121225.989000", "121225.992000", "121225.995000", "121225.997000", "121226.001000", "121226.004000", "121226.006000", "121226.009000", "121226.011000", "121226.014000", "121226.017000", "121226.019000", "121226.022000", "121226.024000", "121226.027000", "121226.030000", "121226.032000", "121226.035000", "121226.037000", "121226.040000", "121226.042000", "121226.045000", "121226.048000", "121226.050000", "121226.053000", "121226.055000", "121226.058000", "121305.973000", "121305.975000", "121305.979000", "121305.981000", "121305.984000", "121305.986000", "121305.989000", "121305.992000", "121305.994000", "121305.997000", "121306.001000", "121306.003000", "121306.006000", "121306.008000", "121306.011000", "121306.014000", "121306.016000", "121306.019000", "121306.021000", "121306.024000", "121306.028000", "121306.030000", "121306.033000", "121306.036000", "121306.039000", "121306.042000", "121306.044000", "121306.047000", "121306.050000", "121306.052000", "121306.055000", "121306.058000", "121306.060000", "121345.972000", "121345.975000", "121345.978000", "121345.980000", "121345.983000", "121345.986000", "121345.988000", "121345.991000", "121345.993000", "121345.996000", "121345.998000", "121346.002000", "121346.004000", "121346.007000", "121346.009000", "121346.012000", "121346.015000", "121346.017000", "121346.020000", "121346.022000", "121346.025000", "121346.027000", "121346.030000", "121346.033000", "121346.035000", "121346.038000", "121346.041000", "121346.043000", "121346.046000", "121346.048000", "121346.051000", "121346.054000", "121346.056000", "121346.059000", "121425.973000", "121425.976000", "121425.979000", "121425.981000", "121425.984000", "121425.987000", "121425.989000", "121425.992000", "121425.995000", "121426.016000", "121426.018000", "121426.021000", "121426.024000", "121426.026000", "121426.029000", "121426.032000", "121426.034000", "121426.037000", "121426.039000", "121426.042000", "121426.045000", "121426.047000", "121426.050000", "121426.052000", "121426.055000", "121426.058000", "121426.060000", "121426.063000", "121426.066000", "121426.068000", "121426.071000", "121426.073000", "121426.076000", "121505.973000", "121505.975000", "121505.978000", "121505.980000", "121505.983000", "121505.986000", "121505.988000", "121505.991000", "121505.994000", "121505.996000", "121506.000000", "121506.002000", "121506.005000", "121506.008000", "121506.010000", "121506.013000", "121506.015000", "121506.018000", "121506.021000", "121506.023000", "121506.026000", "121506.028000", "121506.031000", "121506.034000", "121506.037000", "121506.040000", "121506.043000", "121506.046000", "121506.049000", "121506.051000", "121506.054000", "121506.057000", "121506.059000", "121530.130000", "121530.133000", "121530.136000", "121530.139000", "121530.142000", "121530.145000", "121530.147000", "121530.150000", "121530.152000", "121530.155000", "121530.158000", "121530.160000", "121530.163000", "121530.166000", "121530.168000", "121530.171000", "121530.173000", "121530.176000", "121530.178000", "121530.181000", "121530.184000"],
      "InstanceNumber": [1, 2, 3, 4, 5, 6, 7, 8, 9, 10, 11, 12, 13, 14, 15, 16, 17, 18, 19, 20, 21, 22, 23, 24, 25, 26, 27, 28, 29, 30, 31, 32, 33, 34, 35, 36, 37, 38, 39, 40, 41, 42, 43, 44, 45, 46, 47, 48, 49, 50, 51, 52, 53, 54, 55, 56, 57, 58, 59, 60, 61, 62, 63, 64, 65, 66, 67, 68, 69, 70, 71, 72, 73, 74, 75, 76, 77, 78, 79, 80, 81, 82, 83, 84, 85, 86, 87, 88, 89, 90, 91, 92, 93, 94, 95, 96, 97, 98, 99, 100, 101, 102, 103, 104, 105, 106, 107, 108, 109, 110, 111, 112, 113, 114, 115, 116, 117, 118, 119, 120, 121, 122, 123, 124, 125, 126, 127, 128, 129, 130, 131, 132, 133, 134, 135, 136, 137, 138, 139, 140, 141, 142, 143, 144, 145, 146, 147, 148, 149, 150, 151, 152, 153, 154, 155, 156, 157, 158, 159, 160, 161, 162, 163, 164, 165, 166, 167, 168, 169, 170, 171, 172, 173, 174, 175, 176, 177, 178, 179, 180, 181, 182, 183, 184, 185, 186, 187, 188, 189, 190, 191, 192, 193, 194, 195, 196, 197, 198, 199, 200, 201, 202, 203, 204, 205, 206, 207, 208, 209, 210, 211, 212, 213, 214, 215, 216, 217, 218, 219, 220, 221, 222, 223, 224, 225, 226, 227, 228, 229, 230, 231, 232, 233, 234, 235, 236, 237, 238, 239, 240, 241, 242, 243, 244, 245, 246, 247, 248, 249, 250, 251, 252, 253, 254, 255, 256, 257, 258, 259, 260, 261, 262, 263, 264, 265, 266, 267, 268, 269, 270, 271, 272, 273, 274, 275, 276, 277, 278, 279, 280, 281, 282, 283, 284, 285, 286, 287, 288, 289, 290, 291, 292, 293, 294, 295, 296, 297, 298, 299, 300, 301, 302, 303, 304, 305, 306, 307, 308, 309, 310, 311, 312, 313, 314, 315, 316, 317, 318, 319, 320, 321, 322, 323, 324, 325, 326, 327, 328, 329, 330, 331, 332, 333, 334, 335, 336, 337, 338, 339, 340, 341, 342, 343, 344, 345, 346, 347, 348, 349, 350, 351, 352, 353, 354, 355, 356, 357, 358, 359, 360, 361, 362, 363, 364, 365, 366, 367, 368, 369, 370, 371, 372, 373, 374, 375, 376, 377, 378, 379, 380, 381, 382, 383, 384, 385, 386, 387, 388, 389, 390, 391, 392],
