{
  "AcquisitionMatrixPE": 88,
  "AcquisitionNumber": 1,
  "AcquisitionTime": "11:55:57.107500",
  "BandwidthPerPixelPhaseEncode": 19.592,
  "BaseResolution": 88,
  "BodyPartExamined": "BRAIN",
  "ConsistencyInfo": "N4_VE11C_LATEST_20160120",
  "ConversionSoftware": "dcm2niix",
  "ConversionSoftwareVersion": "v1.0.20190902",
  "DerivedVendorReportedEchoSpacing": 0.000580014,
  "DeviceSerialNumber": "67050",
  "DwellTime": 2.6e-06,
  "EchoTime": 0.033,
  "EchoTrainLength": 88,
  "EffectiveEchoSpacing": 0.000580014,
  "FlipAngle": 62,
  "ImageOrientationPatientDICOM": [0.990031, -0.0283668, 0.137965, 0.0207381, 0.998192, 0.0564206],
  "ImageType": [
    "ORIGINAL",
    "PRIMARY",
    "M",
    "ND",
    "MOSAIC"
],
  "ImagingFrequency": 123.251,
  "InPlanePhaseEncodingDirectionDICOM": "COL",
  "InstitutionAddress": "Olive_Street_60_Providence_RI_US_02912",
  "InstitutionName": "BROWN_UNIVERSITY_MRF",
  "InstitutionalDepartmentName": "Department",
  "MRAcquisitionType": "2D",
  "MagneticFieldStrength": 3,
  "Manufacturer": "Siemens",
  "ManufacturersModelName": "Prisma_fit",
  "Modality": "MR",
  "MultibandAccelerationFactor": 4,
  "PartialFourier": 1,
  "PatientPosition": "HFS",
  "PercentPhaseFOV": 100,
  "PhaseEncodingDirection": "j-",
  "PhaseEncodingSteps": 88,
  "PhaseResolution": 1,
  "PixelBandwidth": 2185,
  "ProcedureStepDescription": "ASHENHAV_1222",
  "ProtocolName": "func-bold_task-RDMcolor_run-04",
  "PulseSequenceDetails": "%SiemensSeq%_ep2d_bold",
  "ReceiveCoilActiveElements": "HC1-7",
  "ReceiveCoilName": "HeadNeck_64",
  "ReconMatrixPE": 88,
  "RefLinesPE": 8,
  "RepetitionTime": 1.2,
  "SAR": 0.0511488,
  "ScanOptions": "FS",
  "ScanningSequence": "EP",
  "SequenceName": "_epfid2d1_88",
  "SequenceVariant": "SK",
  "SeriesDescription": "func-bold_task-RDMcolor_run-04",
  "SeriesNumber": 14,
  "ShimSetting": [1780, -9115, 4430, 504, -89, -74, 28, 29],
  "SliceThickness": 2.4,
  "SliceTiming": [0.55, 0, 0.6275, 0.0775, 0.7075, 0.1575, 0.785, 0.235, 0.865, 0.315, 0.9425, 0.3925, 1.0225, 0.47, 1.1, 0.55, 0, 0.6275, 0.0775, 0.7075, 0.1575, 0.785, 0.235, 0.865, 0.315, 0.9425, 0.3925, 1.0225, 0.47, 1.1, 0.55, 0, 0.6275, 0.0775, 0.7075, 0.1575, 0.785, 0.235, 0.865, 0.315, 0.9425, 0.3925, 1.0225, 0.47, 1.1, 0.55, 0, 0.6275, 0.0775, 0.7075, 0.1575, 0.785, 0.235, 0.865, 0.315, 0.9425, 0.3925, 1.0225, 0.47, 1.1],
  "SoftwareVersions": "syngo_MR_E11",
  "SpacingBetweenSlices": 2.4,
  "StationName": "AWP67050",
  "TaskName": "RDMcolor",
  "TotalReadoutTime": 0.0504612,
  "TxRefAmp": 245.896,
  "dcmmeta_affine": [
    [-2.373823642730713, 0.04972442239522934, 0.3343591094017029, 101.50154113769531],
    [0.06801580637693405, 2.3933913707733154, 0.12719270586967468, -92.10521697998047],
    [0.33080318570137024, -0.13528114557266235, 2.3731889724731445, -67.49132537841797],
    [0.0, 0.0, 0.0, 1.0]
],
  "dcmmeta_reorient_transform": [
    [0.0, -1.0, 0.0, 87.0],
    [1.0, 0.0, 0.0, 0.0],
    [0.0, 0.0, 1.0, 0.0],
    [0.0, 0.0, 0.0, 1.0]
],
  "dcmmeta_shape": [88, 88, 60, 392],
  "dcmmeta_slice_dim": 2,
  "dcmmeta_version": 0.6,
  "global": {
    "const": {
      "AcquisitionMatrix": [88, 0, 0, 88],
      "AngioFlag": "N",
      "BitsAllocated": 16,
      "BitsStored": 12,
      "BodyPartExamined": "BRAIN",
      "Columns": 704,
      "DeidentificationMethodCodeSequence": [
        {
          "CodeMeaning": "XNAT DicomEdit 6 Script",
          "CodeValue": "3",
          "CodingSchemeDesignator": "XNAT",
          "CodingSchemeVersion": "1.0"}
],
      "EchoNumbers": 1,
      "EchoTime": 33.0,
      "EchoTrainLength": 88,
      "FlipAngle": 62.0,
      "HighBit": 11,
      "ImageOrientationPatient": [0.99003075620664, -0.0283667822897, 0.13796531240654, 0.02073814802468, 0.9981916890948, 0.05642057283102],
      "ImagePositionPatient": [-852.28039799593, -832.33551957021, -222.81475648875],
      "ImageType": [
        "ORIGINAL",
        "PRIMARY",
        "M",
        "ND",
        "MOSAIC"
],
      "ImagedNucleus": "1H",
      "ImagingFrequency": 123.250748,
      "InPlanePhaseEncodingDirection": "COL",
      "MRAcquisitionType": "2D",
      "MagneticFieldStrength": 3.0,
      "Manufacturer": "SIEMENS",
      "ManufacturerModelName": "Prisma_fit",
      "Modality": "MR",
      "NumberOfAverages": 1.0,
      "NumberOfPhaseEncodingSteps": 88,
      "PercentPhaseFieldOfView": 100.0,
      "PercentSampling": 100.0,
      "PerformedProcedureStepStartTime": "104915.366000",
      "PhotometricInterpretation": "MONOCHROME2",
      "PixelBandwidth": 2185.0,
      "PixelRepresentation": 0,
      "PixelSpacing": [2.3977272510529, 2.3977272510529],
      "ProtocolName": "func-bold_task-RDMcolor_run-04",
      "RepetitionTime": 1200.0,
      "Rows": 704,
      "SAR": 0.05114879932756,
      "SamplesPerPixel": 1,
      "ScanOptions": "FS",
      "ScanningSequence": "EP",
      "SequenceName": "*epfid2d1_88",
      "SequenceVariant": "SK",
      "SeriesDescription": "func-bold_task-RDMcolor_run-04",
      "SeriesNumber": 14,
      "SeriesTime": "115626.873000",
      "SliceLocation": -57.477836350794,
      "SliceThickness": 2.4000000953674,
      "SmallestImagePixelValue": 0,
      "SoftwareVersions": "syngo MR E11",
      "SpacingBetweenSlices": 2.4000000583567,
      "SpecificCharacterSet": "ISO_IR 100",
      "StudyID": "1",
      "StudyTime": "104915.286000",
      "TransmitCoilName": "Body",
      "VariableFlipAngleFlag": "N",
      "WindowCenterWidthExplanation": "Algo1",
      "dBdt": 0.0},
    "slices": {}
  },
  "time": {
    "samples": {
      "AcquisitionNumber": [1, 2, 3, 4, 5, 6, 7, 8, 9, 10, 11, 12, 13, 14, 15, 16, 17, 18, 19, 20, 21, 22, 23, 24, 25, 26, 27, 28, 29, 30, 31, 32, 33, 34, 35, 36, 37, 38, 39, 40, 41, 42, 43, 44, 45, 46, 47, 48, 49, 50, 51, 52, 53, 54, 55, 56, 57, 58, 59, 60, 61, 62, 63, 64, 65, 66, 67, 68, 69, 70, 71, 72, 73, 74, 75, 76, 77, 78, 79, 80, 81, 82, 83, 84, 85, 86, 87, 88, 89, 90, 91, 92, 93, 94, 95, 96, 97, 98, 99, 100, 101, 102, 103, 104, 105, 106, 107, 108, 109, 110, 111, 112, 113, 114, 115, 116, 117, 118, 119, 120, 121, 122, 123, 124, 125, 126, 127, 128, 129, 130, 131, 132, 133, 134, 135, 136, 137, 138, 139, 140, 141, 142, 143, 144, 145, 146, 147, 148, 149, 150, 151, 152, 153, 154, 155, 156, 157, 158, 159, 160, 161, 162, 163, 164, 165, 166, 167, 168, 169, 170, 171, 172, 173, 174, 175, 176, 177, 178, 179, 180, 181, 182, 183, 184, 185, 186, 187, 188, 189, 190, 191, 192, 193, 194, 195, 196, 197, 198, 199, 200, 201, 202, 203, 204, 205, 206, 207, 208, 209, 210, 211, 212, 213, 214, 215, 216, 217, 218, 219, 220, 221, 222, 223, 224, 225, 226, 227, 228, 229, 230, 231, 232, 233, 234, 235, 236, 237, 238, 239, 240, 241, 242, 243, 244, 245, 246, 247, 248, 249, 250, 251, 252, 253, 254, 255, 256, 257, 258, 259, 260, 261, 262, 263, 264, 265, 266, 267, 268, 269, 270, 271, 272, 273, 274, 275, 276, 277, 278, 279, 280, 281, 282, 283, 284, 285, 286, 287, 288, 289, 290, 291, 292, 293, 294, 295, 296, 297, 298, 299, 300, 301, 302, 303, 304, 305, 306, 307, 308, 309, 310, 311, 312, 313, 314, 315, 316, 317, 318, 319, 320, 321, 322, 323, 324, 325, 326, 327, 328, 329, 330, 331, 332, 333, 334, 335, 336, 337, 338, 339, 340, 341, 342, 343, 344, 345, 346, 347, 348, 349, 350, 351, 352, 353, 354, 355, 356, 357, 358, 359, 360, 361, 362, 363, 364, 365, 366, 367, 368, 369, 370, 371, 372, 373, 374, 375, 376, 377, 378, 379, 380, 381, 382, 383, 384, 385, 386, 387, 388, 389, 390, 391, 392],
      "AcquisitionTime": ["115557.107500", "115558.307500", "115559.507500", "115600.707500", "115601.907500", "115603.107500", "115604.307500", "115605.507500", "115606.707500", "115607.907500", "115609.107500", "115610.307500", "115611.507500", "115612.707500", "115613.907500", "115615.107500", "115616.307500", "115617.507500", "115618.707500", "115619.907500", "115621.107500", "115622.307500", "115623.507500", "115624.707500", "115625.907500", "115627.107500", "115628.307500", "115629.507500", "115630.707500", "115631.907500", "115633.107500", "115634.307500", "115635.507500", "115636.707500", "115637.907500", "115639.107500", "115640.307500", "115641.507500", "115642.707500", "115643.907500", "115645.107500", "115646.307500", "115647.507500", "115648.707500", "115649.907500", "115651.107500", "115652.307500", "115653.507500", "115654.707500", "115655.907500", "115657.107500", "115658.307500", "115659.507500", "115700.707500", "115701.907500", "115703.107500", "115704.307500", "115705.507500", "115706.707500", "115707.907500", "115709.107500", "115710.307500", "115711.507500", "115712.707500", "115713.907500", "115715.107500", "115716.307500", "115717.507500", "115718.707500", "115719.907500", "115721.107500", "115722.307500", "115723.507500", "115724.707500", "115725.907500", "115727.107500", "115728.307500", "115729.507500", "115730.707500", "115731.907500", "115733.107500", "115734.307500", "115735.507500", "115736.707500", "115737.907500", "115739.107500", "115740.307500", "115741.507500", "115742.707500", "115743.907500", "115745.107500", "115746.307500", "115747.507500", "115748.707500", "115749.907500", "115751.107500", "115752.307500", "115753.507500", "115754.707500", "115755.907500", "115757.107500", "115758.307500", "115759.507500", "115800.707500", "115801.907500", "115803.107500", "115804.307500", "115805.507500", "115806.707500", "115807.907500", "115809.107500", "115810.307500", "115811.507500", "115812.707500", "115813.907500", "115815.107500", "115816.307500", "115817.507500", "115818.707500", "115819.907500", "115821.107500", "115822.307500", "115823.507500", "115824.707500", "115825.907500", "115827.107500", "115828.307500", "115829.507500", "115830.707500", "115831.907500", "115833.107500", "115834.307500", "115835.507500", "115836.707500", "115837.907500", "115839.107500", "115840.307500", "115841.507500", "115842.707500", "115843.907500", "115845.107500", "115846.307500", "115847.507500", "115848.707500", "115849.907500", "115851.107500", "115852.307500", "115853.507500", "115854.707500", "115855.907500", "115857.107500", "115858.307500", "115859.507500", "115900.707500", "115901.907500", "115903.107500", "115904.307500", "115905.507500", "115906.707500", "115907.907500", "115909.107500", "115910.307500", "115911.507500", "115912.707500", "115913.907500", "115915.107500", "115916.307500", "115917.507500", "115918.707500", "115919.907500", "115921.107500", "115922.307500", "115923.507500", "115924.707500", "115925.907500", "115927.107500", "115928.307500", "115929.507500", "115930.707500", "115931.907500", "115933.107500", "115934.307500", "115935.507500", "115936.707500", "115937.907500", "115939.107500", "115940.307500", "115941.507500", "115942.707500", "115943.907500", "115945.107500", "115946.307500", "115947.507500", "115948.707500", "115949.907500", "115951.107500", "115952.307500", "115953.507500", "115954.707500", "115955.907500", "115957.107500", "115958.307500", "115959.507500", "120000.707500", "120001.907500", "120003.107500", "120004.307500", "120005.507500", "120006.707500", "120007.907500", "120009.107500", "120010.307500", "120011.507500", "120012.707500", "120013.907500", "120015.107500", "120016.307500", "120017.507500", "120018.707500", "120019.907500", "120021.107500", "120022.307500", "120023.507500", "120024.707500", "120025.907500", "120027.107500", "120028.307500", "120029.507500", "120030.707500", "120031.907500", "120033.107500", "120034.307500", "120035.507500", "120036.707500", "120037.907500", "120039.107500", "120040.307500", "120041.507500", "120042.707500", "120043.907500", "120045.107500", "120046.307500", "120047.507500", "120048.707500", "120049.907500", "120051.107500", "120052.307500", "120053.507500", "120054.707500", "120055.907500", "120057.107500", "120058.307500", "120059.507500", "120100.707500", "120101.907500", "120103.107500", "120104.307500", "120105.507500", "120106.707500", "120107.907500", "120109.107500", "120110.307500", "120111.507500", "120112.707500", "120113.907500", "120115.107500", "120116.307500", "120117.507500", "120118.707500", "120119.907500", "120121.107500", "120122.307500", "120123.507500", "120124.707500", "120125.907500", "120127.107500", "120128.307500", "120129.507500", "120130.707500", "120131.907500", "120133.107500", "120134.307500", "120135.507500", "120136.707500", "120137.907500", "120139.107500", "120140.307500", "120141.507500", "120142.707500", "120143.907500", "120145.107500", "120146.307500", "120147.507500", "120148.707500", "120149.907500", "120151.107500", "120152.307500", "120153.507500", "120154.707500", "120155.907500", "120157.107500", "120158.307500", "120159.507500", "120200.707500", "120201.907500", "120203.107500", "120204.307500", "120205.507500", "120206.707500", "120207.907500", "120209.107500", "120210.307500", "120211.507500", "120212.707500", "120213.907500", "120215.107500", "120216.307500", "120217.507500", "120218.707500", "120219.907500", "120221.107500", "120222.307500", "120223.507500", "120224.707500", "120225.907500", "120227.107500", "120228.307500", "120229.507500", "120230.707500", "120231.907500", "120233.107500", "120234.307500", "120235.507500", "120236.707500", "120237.907500", "120239.107500", "120240.307500", "120241.507500", "120242.707500", "120243.907500", "120245.107500", "120246.307500", "120247.507500", "120248.707500", "120249.907500", "120251.107500", "120252.307500", "120253.507500", "120254.707500", "120255.907500", "120257.107500", "120258.307500", "120259.507500", "120300.707500", "120301.907500", "120303.107500", "120304.307500", "120305.507500", "120306.707500", "120307.907500", "120309.107500", "120310.307500", "120311.507500", "120312.707500", "120313.907500", "120315.107500", "120316.307500", "120317.507500", "120318.707500", "120319.907500", "120321.107500", "120322.307500", "120323.507500", "120324.707500", "120325.907500", "120327.107500", "120328.307500", "120329.507500", "120330.707500", "120331.907500", "120333.107500", "120334.307500", "120335.507500", "120336.707500", "120337.907500", "120339.107500", "120340.307500", "120341.507500", "120342.707500", "120343.907500", "120345.107500", "120346.307500"],
      "ContentTime": ["115626.876000", "115626.880000", "115626.882000", "115626.885000", "115626.891000", "115626.894000", "115626.896000", "115626.899000", "115626.901000", "115626.904000", "115626.906000", "115626.914000", "115626.916000", "115626.919000", "115626.922000", "115626.924000", "115626.927000", "115626.937000", "115626.939000", "115626.942000", "115626.945000", "115626.947000", "115626.950000", "115626.952000", "115706.872000", "115706.886000", "115706.888000", "115706.891000", "115706.893000", "115706.896000", "115706.898000", "115706.901000", "115706.903000", "115706.906000", "115706.909000", "115706.911000", "115706.914000", "115706.916000", "115706.919000", "115706.921000", "115706.924000", "115706.926000", "115706.929000", "115706.931000", "115706.934000", "115706.936000", "115706.945000", "115706.948000", "115706.951000", "115706.953000", "115706.956000", "115706.958000", "115706.961000", "115706.963000", "115706.966000", "115706.969000", "115706.972000", "115746.870000", "115746.912000", "115746.914000", "115746.934000", "115746.937000", "115746.939000", "115746.942000", "115746.944000", "115746.947000", "115746.950000", "115746.953000", "115746.955000", "115746.958000", "115746.960000", "115746.963000", "115746.965000", "115746.968000", "115746.970000", "115746.973000", "115746.975000", "115746.978000", "115746.981000", "115746.983000", "115746.986000", "115746.988000", "115746.991000", "115746.993000", "115746.996000", "115746.998000", "115747.002000", "115747.004000", "115747.007000", "115747.009000", "115826.871000", "115826.890000", "115826.893000", "115826.895000", "115826.898000", "115826.900000", "115826.903000", "115826.905000", "115826.908000", "115826.910000", "115826.913000", "115826.916000", "115826.918000", "115826.921000", "115826.924000", "115826.926000", "115826.929000", "115826.931000", "115826.934000", "115826.936000", "115826.939000", "115826.941000", "115826.944000", "115826.946000", "115826.949000", "115826.951000", "115826.954000", "115826.957000", "115826.959000", "115826.962000", "115826.964000", "115826.967000", "115826.969000", "115826.972000", "115906.871000", "115906.874000", "115906.877000", "115906.879000", "115906.882000", "115906.884000", "115906.887000", "115906.890000", "115906.892000", "115906.895000", "115906.897000", "115906.900000", "115906.902000", "115906.905000", "115906.907000", "115906.910000", "115906.912000", "115906.915000", "115906.918000", "115906.920000", "115906.923000", "115906.925000", "115906.928000", "115906.931000", "115906.933000", "115906.936000", "115906.938000", "115906.941000", "115906.943000", "115906.946000", "115906.948000", "115906.951000", "115906.953000", "115946.871000", "115946.873000", "115946.876000", "115946.879000", "115946.881000", "115946.884000", "115946.886000", "115946.889000", "115946.891000", "115946.894000", "115946.897000", "115946.899000", "115946.902000", "115946.904000", "115946.907000", "115946.909000", "115946.912000", "115946.914000", "115946.917000", "115946.920000", "115946.922000", "115946.925000", "115946.927000", "115946.941000", "115946.943000", "115946.946000", "115946.949000", "115946.952000", "115946.954000", "115946.957000", "115946.960000", "115946.962000", "115946.965000", "120026.872000", "120026.874000", "120026.877000", "120026.879000", "120026.882000", "120026.885000", "120026.887000", "120026.890000", "120026.892000", "120026.895000", "120026.897000", "120026.900000", "120026.902000", "120026.905000", "120026.908000", "120026.910000", "120026.913000", "120026.915000", "120026.918000", "120026.920000", "120026.923000", "120026.926000", "120026.928000", "120026.931000", "120026.933000", "120026.936000", "120026.938000", "120026.941000", "120026.943000", "120026.946000", "120026.949000", "120026.951000", "120026.954000", "120026.957000", "120106.871000", "120106.874000", "120106.877000", "120106.880000", "120106.882000", "120106.885000", "120106.887000", "120106.890000", "120106.892000", "120106.895000", "120106.898000", "120106.900000", "120106.903000", "120106.905000", "120106.908000", "120106.910000", "120106.913000", "120106.916000", "120106.918000", "120106.921000", "120106.923000", "120106.926000", "120106.928000", "120106.931000", "120106.934000", "120106.936000", "120106.939000", "120106.941000", "120106.944000", "120106.946000", "120106.949000", "120106.951000", "120106.954000", "120146.871000", "120146.874000", "120146.877000", "120146.879000", "120146.882000", "120146.885000", "120146.887000", "120146.890000", "120146.893000", "120146.895000", "120146.898000", "120146.900000", "120146.903000", "120146.906000", "120146.908000", "120146.911000", "120146.913000", "120146.916000", "120146.919000", "120146.922000", "120146.924000", "120146.927000", "120146.929000", "120146.932000", "120146.935000", "120146.938000", "120146.940000", "120146.943000", "120146.946000", "120146.949000", "120146.951000", "120146.971000", "120146.973000", "120226.871000", "120226.874000", "120226.876000", "120226.879000", "120226.881000", "120226.884000", "120226.887000", "120226.889000", "120226.892000", "120226.894000", "120226.897000", "120226.900000", "120226.902000", "120226.905000", "120226.907000", "120226.910000", "120226.913000", "120226.915000", "120226.918000", "120226.920000", "120226.923000", "120226.926000", "120226.928000", "120226.931000", "120226.933000", "120226.936000", "120226.939000", "120226.941000", "120226.944000", "120226.946000", "120226.949000", "120226.951000", "120226.954000", "120226.956000", "120306.871000", "120306.874000", "120306.877000", "120306.880000", "120306.882000", "120306.885000", "120306.887000", "120306.890000", "120306.892000", "120306.895000", "120306.897000", "120306.900000", "120306.903000", "120306.905000", "120306.908000", "120306.910000", "120306.913000", "120306.917000", "120306.920000", "120306.922000", "120306.925000", "120306.928000", "120306.930000", "120306.933000", "120306.935000", "120306.938000", "120306.940000", "120306.943000", "120306.946000", "120306.948000", "120306.951000", "120306.953000", "120306.956000", "120346.872000", "120346.874000", "120346.877000", "120346.887000", "120346.890000", "120346.892000", "120346.895000", "120346.898000", "120346.900000", "120346.903000", "120346.905000", "120346.908000", "120346.911000", "120346.913000", "120346.916000", "120346.919000", "120346.922000", "120346.924000", "120346.927000", "120346.929000", "120346.932000", "120346.935000", "120346.938000", "120346.941000", "120346.944000", "120346.946000", "120346.949000", "120346.951000", "120346.954000", "120346.956000", "120346.959000", "120346.962000", "120346.964000", "120348.201000", "120348.204000"],
      "InstanceCreationTime": ["115626.876000", "115626.880000", "115626.882000", "115626.885000", "115626.891000", "115626.894000", "115626.896000", "115626.899000", "115626.901000", "115626.904000", "115626.906000", "115626.914000", "115626.916000", "115626.919000", "115626.922000", "115626.924000", "115626.927000", "115626.937000", "115626.939000", "115626.942000", "115626.945000", "115626.947000", "115626.950000", "115626.952000", "115706.872000", "115706.886000", "115706.888000", "115706.891000", "115706.893000", "115706.896000", "115706.898000", "115706.901000", "115706.903000", "115706.906000", "115706.909000", "115706.911000", "115706.914000", "115706.916000", "115706.919000", "115706.921000", "115706.924000", "115706.926000", "115706.929000", "115706.931000", "115706.934000", "115706.936000", "115706.945000", "115706.948000", "115706.951000", "115706.953000", "115706.956000", "115706.958000", "115706.961000", "115706.963000", "115706.966000", "115706.969000", "115706.972000", "115746.870000", "115746.912000", "115746.914000", "115746.934000", "115746.937000", "115746.939000", "115746.942000", "115746.944000", "115746.947000", "115746.950000", "115746.953000", "115746.955000", "115746.958000", "115746.960000", "115746.963000", "115746.965000", "115746.968000", "115746.970000", "115746.973000", "115746.975000", "115746.978000", "115746.981000", "115746.983000", "115746.986000", "115746.988000", "115746.991000", "115746.993000", "115746.996000", "115746.998000", "115747.002000", "115747.004000", "115747.007000", "115747.009000", "115826.871000", "115826.890000", "115826.893000", "115826.895000", "115826.898000", "115826.900000", "115826.903000", "115826.905000", "115826.908000", "115826.910000", "115826.913000", "115826.916000", "115826.918000", "115826.921000", "115826.924000", "115826.926000", "115826.929000", "115826.931000", "115826.934000", "115826.936000", "115826.939000", "115826.941000", "115826.944000", "115826.946000", "115826.949000", "115826.951000", "115826.954000", "115826.957000", "115826.959000", "115826.962000", "115826.964000", "115826.967000", "115826.969000", "115826.972000", "115906.871000", "115906.874000", "115906.877000", "115906.879000", "115906.882000", "115906.884000", "115906.887000", "115906.890000", "115906.892000", "115906.895000", "115906.897000", "115906.900000", "115906.902000", "115906.905000", "115906.907000", "115906.910000", "115906.912000", "115906.915000", "115906.918000", "115906.920000", "115906.923000", "115906.925000", "115906.928000", "115906.931000", "115906.933000", "115906.936000", "115906.938000", "115906.941000", "115906.943000", "115906.946000", "115906.948000", "115906.951000", "115906.953000", "115946.871000", "115946.873000", "115946.876000", "115946.879000", "115946.881000", "115946.884000", "115946.886000", "115946.889000", "115946.891000", "115946.894000", "115946.897000", "115946.899000", "115946.902000", "115946.904000", "115946.907000", "115946.909000", "115946.912000", "115946.914000", "115946.917000", "115946.920000", "115946.922000", "115946.925000", "115946.927000", "115946.941000", "115946.943000", "115946.946000", "115946.949000", "115946.952000", "115946.954000", "115946.957000", "115946.960000", "115946.962000", "115946.965000", "120026.872000", "120026.874000", "120026.877000", "120026.879000", "120026.882000", "120026.885000", "120026.887000", "120026.890000", "120026.892000", "120026.895000", "120026.897000", "120026.900000", "120026.902000", "120026.905000", "120026.908000", "120026.910000", "120026.913000", "120026.915000", "120026.918000", "120026.920000", "120026.923000", "120026.926000", "120026.928000", "120026.931000", "120026.933000", "120026.936000", "120026.938000", "120026.941000", "120026.943000", "120026.946000", "120026.949000", "120026.951000", "120026.954000", "120026.957000", "120106.871000", "120106.874000", "120106.877000", "120106.880000", "120106.882000", "120106.885000", "120106.887000", "120106.890000", "120106.892000", "120106.895000", "120106.898000", "120106.900000", "120106.903000", "120106.905000", "120106.908000", "120106.910000", "120106.913000", "120106.916000", "120106.918000", "120106.921000", "120106.923000", "120106.926000", "120106.928000", "120106.931000", "120106.934000", "120106.936000", "120106.939000", "120106.941000", "120106.944000", "120106.946000", "120106.949000", "120106.951000", "120106.954000", "120146.871000", "120146.874000", "120146.877000", "120146.879000", "120146.882000", "120146.885000", "120146.887000", "120146.890000", "120146.893000", "120146.895000", "120146.898000", "120146.900000", "120146.903000", "120146.906000", "120146.908000", "120146.911000", "120146.913000", "120146.916000", "120146.919000", "120146.922000", "120146.924000", "120146.927000", "120146.929000", "120146.932000", "120146.935000", "120146.938000", "120146.940000", "120146.943000", "120146.946000", "120146.949000", "120146.951000", "120146.971000", "120146.973000", "120226.871000", "120226.874000", "120226.876000", "120226.879000", "120226.881000", "120226.884000", "120226.887000", "120226.889000", "120226.892000", "120226.894000", "120226.897000", "120226.900000", "120226.902000", "120226.905000", "120226.907000", "120226.910000", "120226.913000", "120226.915000", "120226.918000", "120226.920000", "120226.923000", "120226.926000", "120226.928000", "120226.931000", "120226.933000", "120226.936000", "120226.939000", "120226.941000", "120226.944000", "120226.946000", "120226.949000", "120226.951000", "120226.954000", "120226.956000", "120306.871000", "120306.874000", "120306.877000", "120306.880000", "120306.882000", "120306.885000", "120306.887000", "120306.890000", "120306.892000", "120306.895000", "120306.897000", "120306.900000", "120306.903000", "120306.905000", "120306.908000", "120306.910000", "120306.913000", "120306.917000", "120306.920000", "120306.922000", "120306.925000", "120306.928000", "120306.930000", "120306.933000", "120306.935000", "120306.938000", "120306.940000", "120306.943000", "120306.946000", "120306.948000", "120306.951000", "120306.953000", "120306.956000", "120346.872000", "120346.874000", "120346.877000", "120346.887000", "120346.890000", "120346.892000", "120346.895000", "120346.898000", "120346.900000", "120346.903000", "120346.905000", "120346.908000", "120346.911000", "120346.913000", "120346.916000", "120346.919000", "120346.922000", "120346.924000", "120346.927000", "120346.929000", "120346.932000", "120346.935000", "120346.938000", "120346.941000", "120346.944000", "120346.946000", "120346.949000", "120346.951000", "120346.954000", "120346.956000", "120346.959000", "120346.962000", "120346.964000", "120348.201000", "120348.204000"],
      "InstanceNumber": [1, 2, 3, 4, 5, 6, 7, 8, 9, 10, 11, 12, 13, 14, 15, 16, 17, 18, 19, 20, 21, 22, 23, 24, 25, 26, 27, 28, 29, 30, 31, 32, 33, 34, 35, 36, 37, 38, 39, 40, 41, 42, 43, 44, 45, 46, 47, 48, 49, 50, 51, 52, 53, 54, 55, 56, 57, 58, 59, 60, 61, 62, 63, 64, 65, 66, 67, 68, 69, 70, 71, 72, 73, 74, 75, 76, 77, 78, 79, 80, 81, 82, 83, 84, 85, 86, 87, 88, 89, 90, 91, 92, 93, 94, 95, 96, 97, 98, 99, 100, 101, 102, 103, 104, 105, 106, 107, 108, 109, 110, 111, 112, 113, 114, 115, 116, 117, 118, 119, 120, 121, 122, 123, 124, 125, 126, 127, 128, 129, 130, 131, 132, 133, 134, 135, 136, 137, 138, 139, 140, 141, 142, 143, 144, 145, 146, 147, 148, 149, 150, 151, 152, 153, 154, 155, 156, 157, 158, 159, 160, 161, 162, 163, 164, 165, 166, 167, 168, 169, 170, 171, 172, 173, 174, 175, 176, 177, 178, 179, 180, 181, 182, 183, 184, 185, 186, 187, 188, 189, 190, 191, 192, 193, 194, 195, 196, 197, 198, 199, 200, 201, 202, 203, 204, 205, 206, 207, 208, 209, 210, 211, 212, 213, 214, 215, 216, 217, 218, 219, 220, 221, 222, 223, 224, 225, 226, 227, 228, 229, 230, 231, 232, 233, 234, 235, 236, 237, 238, 239, 240, 241, 242, 243, 244, 245, 246, 247, 248, 249, 250, 251, 252, 253, 254, 255, 256, 257, 258, 259, 260, 261, 262, 263, 264, 265, 266, 267, 268, 269, 270, 271, 272, 273, 274, 275, 276, 277, 278, 279, 280, 281, 282, 283, 284, 285, 286, 287, 288, 289, 290, 291, 292, 293, 294, 295, 296, 297, 298, 299, 300, 301, 302, 303, 304, 305, 306, 307, 308, 309, 310, 311, 312, 313, 314, 315, 316, 317, 318, 319, 320, 321, 322, 323, 324, 325, 326, 327, 328, 329, 330, 331, 332, 333, 334, 335, 336, 337, 338, 339, 340, 341, 342, 343, 344, 345, 346, 347, 348, 349, 350, 351, 352, 353, 354, 355, 356, 357, 358, 359, 360, 361, 362, 363, 364, 365, 366, 367, 368, 369, 370, 371, 372, 373, 374, 375, 376, 377, 378, 379, 380, 381, 382, 383, 384, 385, 386, 387, 388, 389, 390, 391, 392],
