{
  "AcquisitionMatrixPE": 88,
  "AcquisitionNumber": 1,
  "AcquisitionTime": "11:52:48.630000",
  "BandwidthPerPixelPhaseEncode": 19.592,
  "BaseResolution": 88,
  "BodyPartExamined": "BRAIN",
  "ConsistencyInfo": "N4_VE11C_LATEST_20160120",
  "ConversionSoftware": "dcm2niix",
  "ConversionSoftwareVersion": "v1.0.20190902",
  "DerivedVendorReportedEchoSpacing": 0.000580014,
  "DeviceSerialNumber": "67050",
  "DwellTime": 2.6e-06,
  "EchoTime": 0.033,
  "EchoTrainLength": 88,
  "EffectiveEchoSpacing": 0.000580014,
  "FlipAngle": 62,
  "ImageOrientationPatientDICOM": [0.990031, -0.0283668, 0.137965, 0.0207381, 0.998192, 0.0564206],
  "ImageType": [
    "ORIGINAL",
    "PRIMARY",
    "M",
    "ND",
    "MOSAIC"
],
  "ImagingFrequency": 123.251,
  "InPlanePhaseEncodingDirectionDICOM": "COL",
  "InstitutionAddress": "Olive_Street_60_Providence_RI_US_02912",
  "InstitutionName": "BROWN_UNIVERSITY_MRF",
  "InstitutionalDepartmentName": "Department",
  "MRAcquisitionType": "2D",
  "MagneticFieldStrength": 3,
  "Manufacturer": "Siemens",
  "ManufacturersModelName": "Prisma_fit",
  "Modality": "MR",
  "MultibandAccelerationFactor": 4,
  "PartialFourier": 1,
  "PatientPosition": "HFS",
  "PercentPhaseFOV": 100,
  "PhaseEncodingDirection": "j-",
  "PhaseEncodingSteps": 88,
  "PhaseResolution": 1,
  "PixelBandwidth": 2185,
  "ProcedureStepDescription": "ASHENHAV_1222",
  "ProtocolName": "func-bold_task-RDMmotion_run-04",
  "PulseSequenceDetails": "%SiemensSeq%_ep2d_bold",
  "ReceiveCoilActiveElements": "HC1-7",
  "ReceiveCoilName": "HeadNeck_64",
  "ReconMatrixPE": 88,
  "RefLinesPE": 8,
  "RepetitionTime": 1.2,
  "SAR": 0.0506296,
  "ScanOptions": "FS",
  "ScanningSequence": "EP",
  "SequenceName": "_epfid2d1_88",
  "SequenceVariant": "SK",
  "SeriesDescription": "func-bold_task-RDMmotion_run-04",
  "SeriesNumber": 13,
  "ShimSetting": [1780, -9115, 4430, 504, -89, -74, 28, 29],
  "SliceThickness": 2.4,
  "SliceTiming": [0.5525, 0, 0.63, 0.08, 0.7075, 0.1575, 0.7875, 0.2375, 0.865, 0.315, 0.945, 0.395, 1.0225, 0.4725, 1.1025, 0.5525, 0, 0.63, 0.08, 0.7075, 0.1575, 0.7875, 0.2375, 0.865, 0.315, 0.945, 0.395, 1.0225, 0.4725, 1.1025, 0.5525, 0, 0.63, 0.08, 0.7075, 0.1575, 0.7875, 0.2375, 0.865, 0.315, 0.945, 0.395, 1.0225, 0.4725, 1.1025, 0.5525, 0, 0.63, 0.08, 0.7075, 0.1575, 0.7875, 0.2375, 0.865, 0.315, 0.945, 0.395, 1.0225, 0.4725, 1.1025],
  "SoftwareVersions": "syngo_MR_E11",
  "SpacingBetweenSlices": 2.4,
  "StationName": "AWP67050",
  "TaskName": "RDMmotion",
  "TotalReadoutTime": 0.0504612,
  "TxRefAmp": 245.896,
  "dcmmeta_affine": [
    [-2.373823642730713, 0.04972442239522934, 0.3343591094017029, 101.50154113769531],
    [0.06801580637693405, 2.3933913707733154, 0.12719270586967468, -92.10521697998047],
    [0.33080318570137024, -0.13528114557266235, 2.3731889724731445, -67.49132537841797],
    [0.0, 0.0, 0.0, 1.0]
],
  "dcmmeta_reorient_transform": [
    [0.0, -1.0, 0.0, 87.0],
    [1.0, 0.0, 0.0, 0.0],
    [0.0, 0.0, 1.0, 0.0],
    [0.0, 0.0, 0.0, 1.0]
],
  "dcmmeta_shape": [88, 88, 60, 125],
  "dcmmeta_slice_dim": 2,
  "dcmmeta_version": 0.6,
  "global": {
    "const": {
      "AcquisitionMatrix": [88, 0, 0, 88],
      "AngioFlag": "N",
      "BitsAllocated": 16,
      "BitsStored": 12,
      "BodyPartExamined": "BRAIN",
      "Columns": 704,
      "DeidentificationMethodCodeSequence": [
        {
          "CodeMeaning": "XNAT DicomEdit 6 Script",
          "CodeValue": "3",
          "CodingSchemeDesignator": "XNAT",
          "CodingSchemeVersion": "1.0"}
],
      "EchoNumbers": 1,
      "EchoTime": 33.0,
      "EchoTrainLength": 88,
      "FlipAngle": 62.0,
      "HighBit": 11,
      "ImageOrientationPatient": [0.99003075620664, -0.0283667822897, 0.13796531240654, 0.02073814802468, 0.9981916890948, 0.05642057283102],
      "ImagePositionPatient": [-852.28039799593, -832.33551957021, -222.81475648875],
      "ImageType": [
        "ORIGINAL",
        "PRIMARY",
        "M",
        "ND",
        "MOSAIC"
],
      "ImagedNucleus": "1H",
      "ImagingFrequency": 123.250747,
      "InPlanePhaseEncodingDirection": "COL",
      "MRAcquisitionType": "2D",
      "MagneticFieldStrength": 3.0,
      "Manufacturer": "SIEMENS",
      "ManufacturerModelName": "Prisma_fit",
      "Modality": "MR",
      "NumberOfAverages": 1.0,
      "NumberOfPhaseEncodingSteps": 88,
      "PercentPhaseFieldOfView": 100.0,
      "PercentSampling": 100.0,
      "PerformedProcedureStepStartTime": "104915.366000",
      "PhotometricInterpretation": "MONOCHROME2",
      "PixelBandwidth": 2185.0,
      "PixelRepresentation": 0,
      "PixelSpacing": [2.3977272510529, 2.3977272510529],
      "ProtocolName": "func-bold_task-RDMmotion_run-04",
      "RepetitionTime": 1200.0,
      "Rows": 704,
      "SAR": 0.05062961971393,
      "SamplesPerPixel": 1,
      "ScanOptions": "FS",
      "ScanningSequence": "EP",
      "SequenceName": "*epfid2d1_88",
      "SequenceVariant": "SK",
      "SeriesDescription": "func-bold_task-RDMmotion_run-04",
      "SeriesNumber": 13,
      "SeriesTime": "115325.975000",
      "SliceLocation": -57.477836350794,
      "SliceThickness": 2.4000000953674,
      "SmallestImagePixelValue": 0,
      "SoftwareVersions": "syngo MR E11",
      "SpacingBetweenSlices": 2.4000000583567,
      "SpecificCharacterSet": "ISO_IR 100",
      "StudyID": "1",
      "StudyTime": "104915.286000",
      "TransmitCoilName": "Body",
      "VariableFlipAngleFlag": "N",
      "WindowCenterWidthExplanation": "Algo1",
      "dBdt": 0.0},
    "slices": {}
  },
  "time": {
    "samples": {
      "AcquisitionNumber": [1, 2, 3, 4, 5, 6, 7, 8, 9, 10, 11, 12, 13, 14, 15, 16, 17, 18, 19, 20, 21, 22, 23, 24, 25, 26, 27, 28, 29, 30, 31, 32, 33, 34, 35, 36, 37, 38, 39, 40, 41, 42, 43, 44, 45, 46, 47, 48, 49, 50, 51, 52, 53, 54, 55, 56, 57, 58, 59, 60, 61, 62, 63, 64, 65, 66, 67, 68, 69, 70, 71, 72, 73, 74, 75, 76, 77, 78, 79, 80, 81, 82, 83, 84, 85, 86, 87, 88, 89, 90, 91, 92, 93, 94, 95, 96, 97, 98, 99, 100, 101, 102, 103, 104, 105, 106, 107, 108, 109, 110, 111, 112, 113, 114, 115, 116, 117, 118, 119, 120, 121, 122, 123, 124, 125],
      "AcquisitionTime": ["115248.630000", "115249.830000", "115251.030000", "115252.230000", "115253.430000", "115254.630000", "115255.830000", "115257.030000", "115258.230000", "115259.430000", "115300.630000", "115301.830000", "115303.030000", "115304.230000", "115305.430000", "115306.630000", "115307.830000", "115309.030000", "115310.230000", "115311.430000", "115312.630000", "115313.830000", "115315.030000", "115316.230000", "115317.430000", "115318.630000", "115319.830000", "115321.030000", "115322.230000", "115323.430000", "115324.630000", "115325.830000", "115327.030000", "115328.230000", "115329.430000", "115330.630000", "115331.830000", "115333.030000", "115334.230000", "115335.430000", "115336.630000", "115337.830000", "115339.030000", "115340.230000", "115341.430000", "115342.630000", "115343.830000", "115345.030000", "115346.230000", "115347.430000", "115348.630000", "115349.830000", "115351.030000", "115352.230000", "115353.430000", "115354.630000", "115355.830000", "115357.030000", "115358.230000", "115359.430000", "115400.630000", "115401.830000", "115403.030000", "115404.230000", "115405.430000", "115406.630000", "115407.830000", "115409.030000", "115410.230000", "115411.430000", "115412.630000", "115413.830000", "115415.030000", "115416.230000", "115417.430000", "115418.630000", "115419.830000", "115421.030000", "115422.230000", "115423.430000", "115424.630000", "115425.830000", "115427.030000", "115428.230000", "115429.430000", "115430.630000", "115431.830000", "115433.030000", "115434.230000", "115435.430000", "115436.630000", "115437.830000", "115439.030000", "115440.230000", "115441.430000", "115442.630000", "115443.830000", "115445.030000", "115446.230000", "115447.430000", "115448.630000", "115449.830000", "115451.030000", "115452.230000", "115453.430000", "115454.630000", "115455.830000", "115457.030000", "115458.230000", "115459.430000", "115500.630000", "115501.830000", "115503.030000", "115504.230000", "115505.430000", "115506.630000", "115507.830000", "115509.030000", "115510.230000", "115511.430000", "115512.630000", "115513.830000", "115515.030000", "115516.230000", "115517.430000"],
      "ContentTime": ["115325.978000", "115325.981000", "115325.984000", "115325.986000", "115325.989000", "115325.991000", "115325.994000", "115325.997000", "115325.999000", "115326.002000", "115326.015000", "115326.018000", "115326.020000", "115326.023000", "115326.026000", "115326.028000", "115326.031000", "115326.034000", "115326.036000", "115326.039000", "115326.041000", "115326.044000", "115326.046000", "115326.049000", "115326.051000", "115326.054000", "115326.056000", "115326.059000", "115326.061000", "115326.064000", "115405.973000", "115405.976000", "115405.979000", "115405.981000", "115405.984000", "115405.986000", "115405.989000", "115405.992000", "115405.994000", "115406.011000", "115406.013000", "115406.016000", "115406.018000", "115406.021000", "115406.023000", "115406.031000", "115406.034000", "115406.036000", "115406.039000", "115406.041000", "115406.044000", "115406.046000", "115406.049000", "115406.052000", "115406.054000", "115406.057000", "115406.060000", "115406.062000", "115406.065000", "115406.067000", "115406.070000", "115406.073000", "115406.076000", "115445.973000", "115445.976000", "115445.978000", "115445.981000", "115445.983000", "115445.986000", "115445.988000", "115445.991000", "115445.993000", "115445.996000", "115446.000000", "115446.002000", "115446.005000", "115446.007000", "115446.010000", "115446.012000", "115446.015000", "115446.018000", "115446.020000", "115446.023000", "115446.025000", "115446.028000", "115446.030000", "115446.033000", "115446.035000", "115446.038000", "115446.041000", "115446.043000", "115446.046000", "115446.048000", "115446.051000", "115446.053000", "115446.056000", "115446.059000", "115519.365000", "115519.368000", "115519.370000", "115519.373000", "115519.376000", "115519.378000", "115519.381000", "115519.383000", "115519.386000", "115519.389000", "115519.395000", "115519.398000", "115519.401000", "115519.403000", "115519.406000", "115519.408000", "115519.411000", "115519.413000", "115519.416000", "115519.419000", "115519.421000", "115519.424000", "115519.426000", "115519.429000", "115519.431000", "115519.434000", "115519.437000", "115519.439000"],
      "InstanceCreationTime": ["115325.978000", "115325.981000", "115325.984000", "115325.986000", "115325.989000", "115325.991000", "115325.994000", "115325.997000", "115325.999000", "115326.002000", "115326.015000", "115326.018000", "115326.020000", "115326.023000", "115326.026000", "115326.028000", "115326.031000", "115326.034000", "115326.036000", "115326.039000", "115326.041000", "115326.044000", "115326.046000", "115326.049000", "115326.051000", "115326.054000", "115326.056000", "115326.059000", "115326.061000", "115326.064000", "115405.973000", "115405.976000", "115405.979000", "115405.981000", "115405.984000", "115405.986000", "115405.989000", "115405.992000", "115405.994000", "115406.011000", "115406.013000", "115406.016000", "115406.018000", "115406.021000", "115406.023000", "115406.031000", "115406.034000", "115406.036000", "115406.039000", "115406.041000", "115406.044000", "115406.046000", "115406.049000", "115406.052000", "115406.054000", "115406.057000", "115406.060000", "115406.062000", "115406.065000", "115406.067000", "115406.070000", "115406.073000", "115406.076000", "115445.973000", "115445.976000", "115445.978000", "115445.981000", "115445.983000", "115445.986000", "115445.988000", "115445.991000", "115445.993000", "115445.996000", "115446.000000", "115446.002000", "115446.005000", "115446.007000", "115446.010000", "115446.012000", "115446.015000", "115446.018000", "115446.020000", "115446.023000", "115446.025000", "115446.028000", "115446.030000", "115446.033000", "115446.035000", "115446.038000", "115446.041000", "115446.043000", "115446.046000", "115446.048000", "115446.051000", "115446.053000", "115446.056000", "115446.059000", "115519.365000", "115519.368000", "115519.370000", "115519.373000", "115519.376000", "115519.378000", "115519.381000", "115519.383000", "115519.386000", "115519.389000", "115519.395000", "115519.398000", "115519.401000", "115519.403000", "115519.406000", "115519.408000", "115519.411000", "115519.413000", "115519.416000", "115519.419000", "115519.421000", "115519.424000", "115519.426000", "115519.429000", "115519.431000", "115519.434000", "115519.437000", "115519.439000"],
      "InstanceNumber": [1, 2, 3, 4, 5, 6, 7, 8, 9, 10, 11, 12, 13, 14, 15, 16, 17, 18, 19, 20, 21, 22, 23, 24, 25, 26, 27, 28, 29, 30, 31, 32, 33, 34, 35, 36, 37, 38, 39, 40, 41, 42, 43, 44, 45, 46, 47, 48, 49, 50, 51, 52, 53, 54, 55, 56, 57, 58, 59, 60, 61, 62, 63, 64, 65, 66, 67, 68, 69, 70, 71, 72, 73, 74, 75, 76, 77, 78, 79, 80, 81, 82, 83, 84, 85, 86, 87, 88, 89, 90, 91, 92, 93, 94, 95, 96, 97, 98, 99, 100, 101, 102, 103, 104, 105, 106, 107, 108, 109, 110, 111, 112, 113, 114, 115, 116, 117, 118, 119, 120, 121, 122, 123, 124, 125],
      "LargestImagePixelValue": [2856, 2769, 2684, 2641, 2623, 2619, 2630, 2637, 2608, 2612, 2628, 2619, 2609, 2605, 2612, 2610, 2593, 2590, 2600, 2593, 2568, 2568, 2599, 2606, 2597, 2567, 2566, 2600, 2585, 2575, 2588, 2579, 2604, 2613, 2579, 2590, 2600, 2610, 2587, 2566, 2584, 2617, 2612, 2604, 2624, 2604, 2590, 2583, 2587, 2578, 2603, 2607, 2588, 2580, 2590, 2573, 2572, 2560, 2546, 2568, 2554, 2536, 2546, 2563, 2558, 2556, 2543, 2549, 2550, 2531, 2541, 2576, 2569, 2545, 2556, 2552, 2545, 2535, 2554, 2526, 2533, 2565, 2558, 2566, 2602, 2577, 2569, 2568, 2595, 2592, 2602, 2581, 2591, 2576, 2558, 2547, 2549, 2544, 2536, 2570, 2553, 2552, 2574, 2541, 2543, 2560, 2530, 2552, 2528, 2524, 2543, 2543, 2559, 2527, 2536, 2521, 2531, 2528, 2556, 2541, 2520, 2519, 2545, 2518, 2533],
      "WindowCenter": [649.0, 645.0, 643.0, 642.0, 642.0, 642.0, 642.0, 642.0, 641.0, 641.0, 641.0, 642.0, 641.0, 641.0, 641.0, 640.0, 641.0, 640.0, 640.0, 641.0, 640.0, 640.0, 640.0, 640.0, 641.0, 641.0, 640.0, 641.0, 642.0, 642.0, 641.0, 641.0, 640.0, 640.0, 639.0, 640.0, 640.0, 641.0, 639.0, 639.0, 639.0, 639.0, 639.0, 639.0, 640.0, 641.0, 641.0, 640.0, 639.0, 639.0, 639.0, 639.0, 639.0, 639.0, 640.0, 640.0, 639.0, 639.0, 639.0, 640.0, 640.0, 640.0, 639.0, 639.0, 639.0, 639.0, 639.0, 639.0, 639.0, 639.0, 638.0, 638.0, 638.0, 638.0, 639.0, 639.0, 639.0, 639.0, 639.0, 639.0, 639.0, 639.0, 639.0, 639.0, 640.0, 639.0, 638.0, 639.0, 639.0, 639.0, 638.0, 638.0, 639.0, 639.0, 639.0, 639.0, 639.0, 638.0, 638.0, 639.0, 639.0, 640.0, 640.0, 640.0, 640.0, 639.0, 639.0, 639.0, 638.0, 638.0, 640.0, 640.0, 639.0, 639.0, 639.0, 638.0, 638.0, 638.0, 639.0, 640.0, 640.0, 641.0, 641.0, 640.0, 640.0],
      "WindowWidth": [1380.0, 1372.0, 1367.0, 1364.0, 1364.0, 1365.0, 1364.0, 1364.0, 1363.0, 1363.0, 1362.0, 1363.0, 1362.0, 1362.0, 1361.0, 1360.0, 1361.0, 1360.0, 1360.0, 1361.0, 1360.0, 1359.0, 1360.0, 1361.0, 1361.0, 1362.0, 1361.0, 1362.0, 1364.0, 1363.0, 1363.0, 1361.0, 1359.0, 1359.0, 1358.0, 1360.0, 1360.0, 1361.0, 1359.0, 1359.0, 1358.0, 1357.0, 1358.0, 1358.0, 1361.0, 1362.0, 1362.0, 1360.0, 1358.0, 1357.0, 1358.0, 1358.0, 1358.0, 1359.0, 1360.0, 1361.0, 1359.0, 1359.0, 1358.0, 1359.0, 1360.0, 1359.0, 1359.0, 1359.0, 1358.0, 1357.0, 1357.0, 1358.0, 1359.0, 1358.0, 1357.0, 1356.0, 1356.0, 1356.0, 1357.0, 1357.0, 1358.0, 1359.0, 1358.0, 1357.0, 1358.0, 1357.0, 1358.0, 1359.0, 1359.0, 1358.0, 1356.0, 1357.0, 1357.0, 1357.0, 1356.0, 1355.0, 1357.0, 1357.0, 1358.0, 1358.0, 1357.0, 1356.0, 1356.0, 1358.0, 1358.0, 1359.0, 1361.0, 1359.0, 1359.0, 1358.0, 1358.0, 1357.0, 1357.0, 1357.0, 1359.0, 1359.0, 1359.0, 1357.0, 1357.0, 1356.0, 1355.0, 1355.0, 1358.0, 1360.0, 1361.0, 1362.0, 1363.0, 1361.0, 1360.0]
    },
    "slices": {}
  }
}