{
  "AcquisitionMatrixPE": 88,
  "AcquisitionNumber": 1,
  "AcquisitionTime": "11:17:26.050000",
  "BandwidthPerPixelPhaseEncode": 19.592,
  "BaseResolution": 88,
  "BodyPartExamined": "BRAIN",
  "ConsistencyInfo": "N4_VE11C_LATEST_20160120",
  "ConversionSoftware": "dcm2niix",
  "ConversionSoftwareVersion": "v1.0.20190902",
  "DerivedVendorReportedEchoSpacing": 0.000580014,
  "DeviceSerialNumber": "67050",
  "DwellTime": 2.6e-06,
  "EchoTime": 0.033,
  "EchoTrainLength": 88,
  "EffectiveEchoSpacing": 0.000580014,
  "FlipAngle": 62,
  "ImageOrientationPatientDICOM": [0.990031, -0.0283668, 0.137965, 0.0207381, 0.998192, 0.0564206],
  "ImageType": [
    "ORIGINAL",
    "PRIMARY",
    "M",
    "ND",
    "MOSAIC"
],
  "ImagingFrequency": 123.251,
  "InPlanePhaseEncodingDirectionDICOM": "COL",
  "InstitutionAddress": "Olive_Street_60_Providence_RI_US_02912",
  "InstitutionName": "BROWN_UNIVERSITY_MRF",
  "InstitutionalDepartmentName": "Department",
  "MRAcquisitionType": "2D",
  "MagneticFieldStrength": 3,
  "Manufacturer": "Siemens",
  "ManufacturersModelName": "Prisma_fit",
  "Modality": "MR",
  "MultibandAccelerationFactor": 4,
  "PartialFourier": 1,
  "PatientPosition": "HFS",
  "PercentPhaseFOV": 100,
  "PhaseEncodingDirection": "j-",
  "PhaseEncodingSteps": 88,
  "PhaseResolution": 1,
  "PixelBandwidth": 2185,
  "ProcedureStepDescription": "ASHENHAV_1222",
  "ProtocolName": "func-bold_task-RDMmotion_run-01",
  "PulseSequenceDetails": "%SiemensSeq%_ep2d_bold",
  "ReceiveCoilActiveElements": "HC1-7",
  "ReceiveCoilName": "HeadNeck_64",
  "ReconMatrixPE": 88,
  "RefLinesPE": 8,
  "RepetitionTime": 1.2,
  "SAR": 0.0506296,
  "ScanOptions": "FS",
  "ScanningSequence": "EP",
  "SequenceName": "_epfid2d1_88",
  "SequenceVariant": "SK",
  "SeriesDescription": "func-bold_task-RDMmotion_run-01",
  "SeriesNumber": 7,
  "ShimSetting": [1780, -9115, 4430, 504, -89, -74, 28, 29],
  "SliceThickness": 2.4,
  "SliceTiming": [0.55, 0, 0.6275, 0.0775, 0.7075, 0.1575, 0.785, 0.235, 0.865, 0.315, 0.9425, 0.3925, 1.0225, 0.47, 1.1, 0.55, 0, 0.6275, 0.0775, 0.7075, 0.1575, 0.785, 0.235, 0.865, 0.315, 0.9425, 0.3925, 1.0225, 0.47, 1.1, 0.55, 0, 0.6275, 0.0775, 0.7075, 0.1575, 0.785, 0.235, 0.865, 0.315, 0.9425, 0.3925, 1.0225, 0.47, 1.1, 0.55, 0, 0.6275, 0.0775, 0.7075, 0.1575, 0.785, 0.235, 0.865, 0.315, 0.9425, 0.3925, 1.0225, 0.47, 1.1],
  "SoftwareVersions": "syngo_MR_E11",
  "SpacingBetweenSlices": 2.4,
  "StationName": "AWP67050",
  "TaskName": "RDMmotion",
  "TotalReadoutTime": 0.0504612,
  "TxRefAmp": 245.896,
  "dcmmeta_affine": [
    [-2.373823642730713, 0.04972442239522934, 0.3343591094017029, 101.50154113769531],
    [0.06801580637693405, 2.3933913707733154, 0.12719270586967468, -92.10521697998047],
    [0.33080318570137024, -0.13528114557266235, 2.3731889724731445, -67.49132537841797],
    [0.0, 0.0, 0.0, 1.0]
],
  "dcmmeta_reorient_transform": [
    [0.0, -1.0, 0.0, 87.0],
    [1.0, 0.0, 0.0, 0.0],
    [0.0, 0.0, 1.0, 0.0],
    [0.0, 0.0, 0.0, 1.0]
],
  "dcmmeta_shape": [88, 88, 60, 125],
  "dcmmeta_slice_dim": 2,
  "dcmmeta_version": 0.6,
  "global": {
    "const": {
      "AcquisitionMatrix": [88, 0, 0, 88],
      "AngioFlag": "N",
      "BitsAllocated": 16,
      "BitsStored": 12,
      "BodyPartExamined": "BRAIN",
      "Columns": 704,
      "DeidentificationMethodCodeSequence": [
        {
          "CodeMeaning": "XNAT DicomEdit 6 Script",
          "CodeValue": "3",
          "CodingSchemeDesignator": "XNAT",
          "CodingSchemeVersion": "1.0"}
],
      "EchoNumbers": 1,
      "EchoTime": 33.0,
      "EchoTrainLength": 88,
      "FlipAngle": 62.0,
      "HighBit": 11,
      "ImageOrientationPatient": [0.99003075620664, -0.0283667822897, 0.13796531240654, 0.02073814802468, 0.9981916890948, 0.05642057283102],
      "ImagePositionPatient": [-852.28039799593, -832.33551957021, -222.81475648875],
      "ImageType": [
        "ORIGINAL",
        "PRIMARY",
        "M",
        "ND",
        "MOSAIC"
],
      "ImagedNucleus": "1H",
      "ImagingFrequency": 123.250728,
      "InPlanePhaseEncodingDirection": "COL",
      "MRAcquisitionType": "2D",
      "MagneticFieldStrength": 3.0,
      "Manufacturer": "SIEMENS",
      "ManufacturerModelName": "Prisma_fit",
      "Modality": "MR",
      "NumberOfAverages": 1.0,
      "NumberOfPhaseEncodingSteps": 88,
      "PercentPhaseFieldOfView": 100.0,
      "PercentSampling": 100.0,
      "PerformedProcedureStepStartTime": "104915.366000",
      "PhotometricInterpretation": "MONOCHROME2",
      "PixelBandwidth": 2185.0,
      "PixelRepresentation": 0,
      "PixelSpacing": [2.3977272510529, 2.3977272510529],
      "ProtocolName": "func-bold_task-RDMmotion_run-01",
      "RepetitionTime": 1200.0,
      "Rows": 704,
      "SAR": 0.05062961971393,
      "SamplesPerPixel": 1,
      "ScanOptions": "FS",
      "ScanningSequence": "EP",
      "SequenceName": "*epfid2d1_88",
      "SequenceVariant": "SK",
      "SeriesDescription": "func-bold_task-RDMmotion_run-01",
      "SeriesNumber": 7,
      "SeriesTime": "111805.974000",
      "SliceLocation": -57.477836350794,
      "SliceThickness": 2.4000000953674,
      "SmallestImagePixelValue": 0,
      "SoftwareVersions": "syngo MR E11",
      "SpacingBetweenSlices": 2.4000000583567,
      "SpecificCharacterSet": "ISO_IR 100",
      "StudyID": "1",
      "StudyTime": "104915.286000",
      "TransmitCoilName": "Body",
      "VariableFlipAngleFlag": "N",
      "WindowCenterWidthExplanation": "Algo1",
      "dBdt": 0.0},
    "slices": {}
  },
  "time": {
    "samples": {
      "AcquisitionNumber": [1, 2, 3, 4, 5, 6, 7, 8, 9, 10, 11, 12, 13, 14, 15, 16, 17, 18, 19, 20, 21, 22, 23, 24, 25, 26, 27, 28, 29, 30, 31, 32, 33, 34, 35, 36, 37, 38, 39, 40, 41, 42, 43, 44, 45, 46, 47, 48, 49, 50, 51, 52, 53, 54, 55, 56, 57, 58, 59, 60, 61, 62, 63, 64, 65, 66, 67, 68, 69, 70, 71, 72, 73, 74, 75, 76, 77, 78, 79, 80, 81, 82, 83, 84, 85, 86, 87, 88, 89, 90, 91, 92, 93, 94, 95, 96, 97, 98, 99, 100, 101, 102, 103, 104, 105, 106, 107, 108, 109, 110, 111, 112, 113, 114, 115, 116, 117, 118, 119, 120, 121, 122, 123, 124, 125],
      "AcquisitionTime": ["111726.050000", "111727.250000", "111728.450000", "111729.650000", "111730.850000", "111732.050000", "111733.250000", "111734.450000", "111735.650000", "111736.850000", "111738.050000", "111739.250000", "111740.450000", "111741.650000", "111742.850000", "111744.050000", "111745.250000", "111746.450000", "111747.650000", "111748.850000", "111750.050000", "111751.250000", "111752.450000", "111753.650000", "111754.850000", "111756.050000", "111757.250000", "111758.450000", "111759.650000", "111800.850000", "111802.050000", "111803.250000", "111804.450000", "111805.650000", "111806.850000", "111808.050000", "111809.250000", "111810.450000", "111811.650000", "111812.850000", "111814.050000", "111815.250000", "111816.450000", "111817.650000", "111818.850000", "111820.050000", "111821.250000", "111822.450000", "111823.650000", "111824.850000", "111826.050000", "111827.250000", "111828.450000", "111829.650000", "111830.850000", "111832.050000", "111833.250000", "111834.450000", "111835.650000", "111836.850000", "111838.050000", "111839.250000", "111840.450000", "111841.650000", "111842.850000", "111844.050000", "111845.250000", "111846.450000", "111847.650000", "111848.850000", "111850.050000", "111851.250000", "111852.450000", "111853.650000", "111854.850000", "111856.050000", "111857.250000", "111858.450000", "111859.650000", "111900.850000", "111902.050000", "111903.250000", "111904.450000", "111905.650000", "111906.850000", "111908.050000", "111909.250000", "111910.450000", "111911.650000", "111912.850000", "111914.050000", "111915.250000", "111916.450000", "111917.650000", "111918.850000", "111920.050000", "111921.250000", "111922.450000", "111923.650000", "111924.850000", "111926.050000", "111927.250000", "111928.450000", "111929.650000", "111930.850000", "111932.050000", "111933.250000", "111934.450000", "111935.650000", "111936.850000", "111938.050000", "111939.250000", "111940.450000", "111941.650000", "111942.850000", "111944.050000", "111945.250000", "111946.450000", "111947.650000", "111948.850000", "111950.050000", "111951.250000", "111952.450000", "111953.650000", "111954.850000"],
      "ContentTime": ["111805.977000", "111805.980000", "111805.983000", "111805.985000", "111805.988000", "111805.990000", "111805.993000", "111805.996000", "111805.998000", "111806.002000", "111806.004000", "111806.007000", "111806.009000", "111806.023000", "111806.026000", "111806.028000", "111806.031000", "111806.033000", "111806.036000", "111806.039000", "111806.041000", "111806.044000", "111806.046000", "111806.049000", "111806.051000", "111806.054000", "111806.057000", "111806.059000", "111806.062000", "111806.064000", "111806.067000", "111806.069000", "111806.072000", "111845.973000", "111845.976000", "111845.979000", "111845.981000", "111845.984000", "111845.993000", "111845.996000", "111845.998000", "111846.001000", "111846.003000", "111846.006000", "111846.009000", "111846.011000", "111846.014000", "111846.016000", "111846.019000", "111846.021000", "111846.024000", "111846.026000", "111846.029000", "111846.031000", "111846.034000", "111846.037000", "111846.039000", "111846.042000", "111846.044000", "111846.047000", "111846.049000", "111846.052000", "111846.054000", "111846.057000", "111846.059000", "111846.062000", "111925.972000", "111925.975000", "111925.978000", "111925.980000", "111925.983000", "111925.985000", "111925.988000", "111925.991000", "111925.994000", "111925.996000", "111925.999000", "111926.001000", "111926.004000", "111926.006000", "111926.009000", "111926.019000", "111926.021000", "111926.024000", "111926.026000", "111926.029000", "111926.031000", "111926.034000", "111926.036000", "111926.039000", "111926.042000", "111926.044000", "111926.047000", "111926.049000", "111926.052000", "111926.054000", "111926.057000", "111926.059000", "111926.062000", "111956.326000", "111956.329000", "111956.332000", "111956.334000", "111956.337000", "111956.340000", "111956.343000", "111956.345000", "111956.348000", "111956.351000", "111956.353000", "111956.356000", "111956.359000", "111956.362000", "111956.364000", "111956.367000", "111956.370000", "111956.373000", "111956.396000", "111956.399000", "111956.402000", "111956.405000", "111956.411000", "111956.414000", "111956.417000", "111956.419000"],
      "InstanceCreationTime": ["111805.977000", "111805.980000", "111805.983000", "111805.985000", "111805.988000", "111805.990000", "111805.993000", "111805.996000", "111805.998000", "111806.002000", "111806.004000", "111806.007000", "111806.009000", "111806.023000", "111806.026000", "111806.028000", "111806.031000", "111806.033000", "111806.036000", "111806.039000", "111806.041000", "111806.044000", "111806.046000", "111806.049000", "111806.051000", "111806.054000", "111806.057000", "111806.059000", "111806.062000", "111806.064000", "111806.067000", "111806.069000", "111806.072000", "111845.973000", "111845.976000", "111845.979000", "111845.981000", "111845.984000", "111845.993000", "111845.996000", "111845.998000", "111846.001000", "111846.003000", "111846.006000", "111846.009000", "111846.011000", "111846.014000", "111846.016000", "111846.019000", "111846.021000", "111846.024000", "111846.026000", "111846.029000", "111846.031000", "111846.034000", "111846.037000", "111846.039000", "111846.042000", "111846.044000", "111846.047000", "111846.049000", "111846.052000", "111846.054000", "111846.057000", "111846.059000", "111846.062000", "111925.972000", "111925.975000", "111925.978000", "111925.980000", "111925.983000", "111925.985000", "111925.988000", "111925.991000", "111925.994000", "111925.996000", "111925.999000", "111926.001000", "111926.004000", "111926.006000", "111926.009000", "111926.019000", "111926.021000", "111926.024000", "111926.026000", "111926.029000", "111926.031000", "111926.034000", "111926.036000", "111926.039000", "111926.042000", "111926.044000", "111926.047000", "111926.049000", "111926.052000", "111926.054000", "111926.057000", "111926.059000", "111926.062000", "111956.326000", "111956.329000", "111956.332000", "111956.334000", "111956.337000", "111956.340000", "111956.343000", "111956.345000", "111956.348000", "111956.351000", "111956.353000", "111956.356000", "111956.359000", "111956.362000", "111956.364000", "111956.367000", "111956.370000", "111956.373000", "111956.396000", "111956.399000", "111956.402000", "111956.405000", "111956.411000", "111956.414000", "111956.417000", "111956.419000"],
      "InstanceNumber": [1, 2, 3, 4, 5, 6, 7, 8, 9, 10, 11, 12, 13, 14, 15, 16, 17, 18, 19, 20, 21, 22, 23, 24, 25, 26, 27, 28, 29, 30, 31, 32, 33, 34, 35, 36, 37, 38, 39, 40, 41, 42, 43, 44, 45, 46, 47, 48, 49, 50, 51, 52, 53, 54, 55, 56, 57, 58, 59, 60, 61, 62, 63, 64, 65, 66, 67, 68, 69, 70, 71, 72, 73, 74, 75, 76, 77, 78, 79, 80, 81, 82, 83, 84, 85, 86, 87, 88, 89, 90, 91, 92, 93, 94, 95, 96, 97, 98, 99, 100, 101, 102, 103, 104, 105, 106, 107, 108, 109, 110, 111, 112, 113, 114, 115, 116, 117, 118, 119, 120, 121, 122, 123, 124, 125],
      "LargestImagePixelValue": [2897, 2806, 2778, 2702, 2709, 2653, 2688, 2655, 2689, 2669, 2646, 2666, 2683, 2669, 2698, 2684, 2683, 2650, 2660, 2659, 2658, 2661, 2655, 2677, 2657, 2674, 2661, 2686, 2659, 2670, 2673, 2685, 2651, 2682, 2683, 2681, 2677, 2684, 2676, 2667, 2678, 2690, 2666, 2657, 2681, 2692, 2696, 2660, 2683, 2648, 2649, 2672, 2646, 2672, 2670, 2704, 2671, 2670, 2682, 2671, 2664, 2681, 2682, 2698, 2679, 2670, 2670, 2674, 2676, 2674, 2659, 2656, 2663, 2660, 2654, 2677, 2665, 2653, 2679, 2662, 2663, 2672, 2660, 2663, 2660, 2673, 2646, 2650, 2655, 2658, 2655, 2643, 2655, 2654, 2682, 2658, 2650, 2651, 2656, 2661, 2647, 2653, 2653, 2651, 2672, 2661, 2667, 2660, 2664, 2639, 2680, 2655, 2646, 2662, 2668, 2656, 2666, 2658, 2656, 2667, 2666, 2668, 2669, 2673, 2672],
      "WindowCenter": [656.0, 653.0, 652.0, 651.0, 651.0, 651.0, 651.0, 651.0, 650.0, 650.0, 649.0, 649.0, 649.0, 649.0, 650.0, 650.0, 650.0, 649.0, 650.0, 649.0, 649.0, 649.0, 649.0, 649.0, 649.0, 649.0, 649.0, 649.0, 649.0, 649.0, 649.0, 649.0, 649.0, 649.0, 649.0, 650.0, 651.0, 651.0, 651.0, 650.0, 650.0, 649.0, 649.0, 649.0, 651.0, 651.0, 651.0, 650.0, 650.0, 649.0, 649.0, 649.0, 648.0, 648.0, 648.0, 648.0, 648.0, 648.0, 648.0, 648.0, 648.0, 649.0, 649.0, 649.0, 649.0, 650.0, 650.0, 650.0, 649.0, 649.0, 648.0, 648.0, 649.0, 648.0, 648.0, 649.0, 649.0, 649.0, 649.0, 648.0, 649.0, 650.0, 649.0, 649.0, 649.0, 648.0, 647.0, 647.0, 647.0, 648.0, 648.0, 648.0, 648.0, 648.0, 649.0, 649.0, 649.0, 649.0, 648.0, 648.0, 648.0, 648.0, 648.0, 649.0, 650.0, 650.0, 649.0, 649.0, 648.0, 648.0, 649.0, 649.0, 649.0, 650.0, 648.0, 648.0, 648.0, 648.0, 647.0, 647.0, 648.0, 648.0, 649.0, 650.0, 649.0],
      "WindowWidth": [1398.0, 1391.0, 1390.0, 1387.0, 1387.0, 1386.0, 1387.0, 1386.0, 1385.0, 1384.0, 1382.0, 1382.0, 1382.0, 1383.0, 1385.0, 1384.0, 1383.0, 1382.0, 1383.0, 1382.0, 1382.0, 1382.0, 1383.0, 1382.0, 1382.0, 1382.0, 1381.0, 1382.0, 1381.0, 1382.0, 1383.0, 1383.0, 1382.0, 1383.0, 1382.0, 1383.0, 1386.0, 1387.0, 1386.0, 1384.0, 1383.0, 1382.0, 1381.0, 1383.0, 1386.0, 1387.0, 1387.0, 1385.0, 1385.0, 1383.0, 1381.0, 1381.0, 1380.0, 1380.0, 1380.0, 1380.0, 1378.0, 1379.0, 1380.0, 1380.0, 1380.0, 1382.0, 1381.0, 1382.0, 1382.0, 1385.0, 1384.0, 1384.0, 1382.0, 1381.0, 1380.0, 1380.0, 1381.0, 1380.0, 1380.0, 1382.0, 1381.0, 1382.0, 1381.0, 1380.0, 1382.0, 1385.0, 1383.0, 1383.0, 1381.0, 1379.0, 1378.0, 1378.0, 1377.0, 1378.0, 1380.0, 1379.0, 1380.0, 1379.0, 1380.0, 1381.0, 1381.0, 1381.0, 1380.0, 1380.0, 1381.0, 1380.0, 1381.0, 1383.0, 1385.0, 1384.0, 1382.0, 1381.0, 1380.0, 1379.0, 1381.0, 1382.0, 1383.0, 1383.0, 1380.0, 1379.0, 1380.0, 1379.0, 1377.0, 1378.0, 1379.0, 1380.0, 1383.0, 1384.0, 1383.0]
    },
    "slices": {}
  }
}