{
  "AcquisitionMatrixPE": 88,
  "AcquisitionNumber": 1,
  "AcquisitionTime": "11:20:31.960000",
  "BandwidthPerPixelPhaseEncode": 19.592,
  "BaseResolution": 88,
  "BodyPartExamined": "BRAIN",
  "ConsistencyInfo": "N4_VE11C_LATEST_20160120",
  "ConversionSoftware": "dcm2niix",
  "ConversionSoftwareVersion": "v1.0.20190902",
  "DerivedVendorReportedEchoSpacing": 0.000580014,
  "DeviceSerialNumber": "67050",
  "DwellTime": 2.6e-06,
  "EchoTime": 0.033,
  "EchoTrainLength": 88,
  "EffectiveEchoSpacing": 0.000580014,
  "FlipAngle": 62,
  "ImageOrientationPatientDICOM": [0.990031, -0.0283668, 0.137965, 0.0207381, 0.998192, 0.0564206],
  "ImageType": [
    "ORIGINAL",
    "PRIMARY",
    "M",
    "ND",
    "MOSAIC"
],
  "ImagingFrequency": 123.251,
  "InPlanePhaseEncodingDirectionDICOM": "COL",
  "InstitutionAddress": "Olive_Street_60_Providence_RI_US_02912",
  "InstitutionName": "BROWN_UNIVERSITY_MRF",
  "InstitutionalDepartmentName": "Department",
  "MRAcquisitionType": "2D",
  "MagneticFieldStrength": 3,
  "Manufacturer": "Siemens",
  "ManufacturersModelName": "Prisma_fit",
  "Modality": "MR",
  "MultibandAccelerationFactor": 4,
  "PartialFourier": 1,
  "PatientPosition": "HFS",
  "PercentPhaseFOV": 100,
  "PhaseEncodingDirection": "j-",
  "PhaseEncodingSteps": 88,
  "PhaseResolution": 1,
  "PixelBandwidth": 2185,
  "ProcedureStepDescription": "ASHENHAV_1222",
  "ProtocolName": "func-bold_task-RDMcolor_run-01",
  "PulseSequenceDetails": "%SiemensSeq%_ep2d_bold",
  "ReceiveCoilActiveElements": "HC1-7",
  "ReceiveCoilName": "HeadNeck_64",
  "ReconMatrixPE": 88,
  "RefLinesPE": 8,
  "RepetitionTime": 1.2,
  "SAR": 0.0511488,
  "ScanOptions": "FS",
  "ScanningSequence": "EP",
  "SequenceName": "_epfid2d1_88",
  "SequenceVariant": "SK",
  "SeriesDescription": "func-bold_task-RDMcolor_run-01",
  "SeriesNumber": 8,
  "ShimSetting": [1780, -9115, 4430, 504, -89, -74, 28, 29],
  "SliceThickness": 2.4,
  "SliceTiming": [0.55, 0, 0.63, 0.08, 0.7075, 0.1575, 0.7875, 0.2375, 0.865, 0.315, 0.945, 0.395, 1.0225, 0.4725, 1.1025, 0.55, 0, 0.63, 0.08, 0.7075, 0.1575, 0.7875, 0.2375, 0.865, 0.315, 0.945, 0.395, 1.0225, 0.4725, 1.1025, 0.55, 0, 0.63, 0.08, 0.7075, 0.1575, 0.7875, 0.2375, 0.865, 0.315, 0.945, 0.395, 1.0225, 0.4725, 1.1025, 0.55, 0, 0.63, 0.08, 0.7075, 0.1575, 0.7875, 0.2375, 0.865, 0.315, 0.945, 0.395, 1.0225, 0.4725, 1.1025],
  "SoftwareVersions": "syngo_MR_E11",
  "SpacingBetweenSlices": 2.4,
  "StationName": "AWP67050",
  "TaskName": "RDMcolor",
  "TotalReadoutTime": 0.0504612,
  "TxRefAmp": 245.896,
  "dcmmeta_affine": [
    [-2.373823642730713, 0.04972442239522934, 0.3343591094017029, 101.50154113769531],
    [0.06801580637693405, 2.3933913707733154, 0.12719270586967468, -92.10521697998047],
    [0.33080318570137024, -0.13528114557266235, 2.3731889724731445, -67.49132537841797],
    [0.0, 0.0, 0.0, 1.0]
],
  "dcmmeta_reorient_transform": [
    [0.0, -1.0, 0.0, 87.0],
    [1.0, 0.0, 0.0, 0.0],
    [0.0, 0.0, 1.0, 0.0],
    [0.0, 0.0, 0.0, 1.0]
],
  "dcmmeta_shape": [88, 88, 60, 392],
  "dcmmeta_slice_dim": 2,
  "dcmmeta_version": 0.6,
  "global": {
    "const": {
      "AcquisitionMatrix": [88, 0, 0, 88],
      "AngioFlag": "N",
      "BitsAllocated": 16,
      "BitsStored": 12,
      "BodyPartExamined": "BRAIN",
      "Columns": 704,
      "DeidentificationMethodCodeSequence": [
        {
          "CodeMeaning": "XNAT DicomEdit 6 Script",
          "CodeValue": "3",
          "CodingSchemeDesignator": "XNAT",
          "CodingSchemeVersion": "1.0"}
],
      "EchoNumbers": 1,
      "EchoTime": 33.0,
      "EchoTrainLength": 88,
      "FlipAngle": 62.0,
      "HighBit": 11,
      "ImageOrientationPatient": [0.99003075620664, -0.0283667822897, 0.13796531240654, 0.02073814802468, 0.9981916890948, 0.05642057283102],
      "ImagePositionPatient": [-852.28039799593, -832.33551957021, -222.81475648875],
      "ImageType": [
        "ORIGINAL",
        "PRIMARY",
        "M",
        "ND",
        "MOSAIC"
],
      "ImagedNucleus": "1H",
      "ImagingFrequency": 123.25073,
      "InPlanePhaseEncodingDirection": "COL",
      "MRAcquisitionType": "2D",
      "MagneticFieldStrength": 3.0,
      "Manufacturer": "SIEMENS",
      "ManufacturerModelName": "Prisma_fit",
      "Modality": "MR",
      "NumberOfAverages": 1.0,
      "NumberOfPhaseEncodingSteps": 88,
      "PercentPhaseFieldOfView": 100.0,
      "PercentSampling": 100.0,
      "PerformedProcedureStepStartTime": "104915.366000",
      "PhotometricInterpretation": "MONOCHROME2",
      "PixelBandwidth": 2185.0,
      "PixelRepresentation": 0,
      "PixelSpacing": [2.3977272510529, 2.3977272510529],
      "ProtocolName": "func-bold_task-RDMcolor_run-01",
      "RepetitionTime": 1200.0,
      "Rows": 704,
      "SAR": 0.05114879932756,
      "SamplesPerPixel": 1,
      "ScanOptions": "FS",
      "ScanningSequence": "EP",
      "SequenceName": "*epfid2d1_88",
      "SequenceVariant": "SK",
      "SeriesDescription": "func-bold_task-RDMcolor_run-01",
      "SeriesNumber": 8,
      "SeriesTime": "112106.872000",
      "SliceLocation": -57.477836350794,
      "SliceThickness": 2.4000000953674,
      "SmallestImagePixelValue": 0,
      "SoftwareVersions": "syngo MR E11",
      "SpacingBetweenSlices": 2.4000000583567,
      "SpecificCharacterSet": "ISO_IR 100",
      "StudyID": "1",
      "StudyTime": "104915.286000",
      "TransmitCoilName": "Body",
      "VariableFlipAngleFlag": "N",
      "WindowCenterWidthExplanation": "Algo1",
      "dBdt": 0.0},
    "slices": {}
  },
  "time": {
    "samples": {
      "AcquisitionNumber": [1, 2, 3, 4, 5, 6, 7, 8, 9, 10, 11, 12, 13, 14, 15, 16, 17, 18, 19, 20, 21, 22, 23, 24, 25, 26, 27, 28, 29, 30, 31, 32, 33, 34, 35, 36, 37, 38, 39, 40, 41, 42, 43, 44, 45, 46, 47, 48, 49, 50, 51, 52, 53, 54, 55, 56, 57, 58, 59, 60, 61, 62, 63, 64, 65, 66, 67, 68, 69, 70, 71, 72, 73, 74, 75, 76, 77, 78, 79, 80, 81, 82, 83, 84, 85, 86, 87, 88, 89, 90, 91, 92, 93, 94, 95, 96, 97, 98, 99, 100, 101, 102, 103, 104, 105, 106, 107, 108, 109, 110, 111, 112, 113, 114, 115, 116, 117, 118, 119, 120, 121, 122, 123, 124, 125, 126, 127, 128, 129, 130, 131, 132, 133, 134, 135, 136, 137, 138, 139, 140, 141, 142, 143, 144, 145, 146, 147, 148, 149, 150, 151, 152, 153, 154, 155, 156, 157, 158, 159, 160, 161, 162, 163, 164, 165, 166, 167, 168, 169, 170, 171, 172, 173, 174, 175, 176, 177, 178, 179, 180, 181, 182, 183, 184, 185, 186, 187, 188, 189, 190, 191, 192, 193, 194, 195, 196, 197, 198, 199, 200, 201, 202, 203, 204, 205, 206, 207, 208, 209, 210, 211, 212, 213, 214, 215, 216, 217, 218, 219, 220, 221, 222, 223, 224, 225, 226, 227, 228, 229, 230, 231, 232, 233, 234, 235, 236, 237, 238, 239, 240, 241, 242, 243, 244, 245, 246, 247, 248, 249, 250, 251, 252, 253, 254, 255, 256, 257, 258, 259, 260, 261, 262, 263, 264, 265, 266, 267, 268, 269, 270, 271, 272, 273, 274, 275, 276, 277, 278, 279, 280, 281, 282, 283, 284, 285, 286, 287, 288, 289, 290, 291, 292, 293, 294, 295, 296, 297, 298, 299, 300, 301, 302, 303, 304, 305, 306, 307, 308, 309, 310, 311, 312, 313, 314, 315, 316, 317, 318, 319, 320, 321, 322, 323, 324, 325, 326, 327, 328, 329, 330, 331, 332, 333, 334, 335, 336, 337, 338, 339, 340, 341, 342, 343, 344, 345, 346, 347, 348, 349, 350, 351, 352, 353, 354, 355, 356, 357, 358, 359, 360, 361, 362, 363, 364, 365, 366, 367, 368, 369, 370, 371, 372, 373, 374, 375, 376, 377, 378, 379, 380, 381, 382, 383, 384, 385, 386, 387, 388, 389, 390, 391, 392],
      "AcquisitionTime": ["112031.960000", "112033.160000", "112034.360000", "112035.560000", "112036.760000", "112037.960000", "112039.160000", "112040.360000", "112041.560000", "112042.760000", "112043.960000", "112045.160000", "112046.360000", "112047.560000", "112048.760000", "112049.960000", "112051.160000", "112052.360000", "112053.560000", "112054.760000", "112055.960000", "112057.160000", "112058.360000", "112059.560000", "112100.760000", "112101.960000", "112103.160000", "112104.360000", "112105.560000", "112106.760000", "112107.960000", "112109.160000", "112110.360000", "112111.560000", "112112.760000", "112113.960000", "112115.160000", "112116.360000", "112117.560000", "112118.760000", "112119.960000", "112121.160000", "112122.360000", "112123.560000", "112124.760000", "112125.960000", "112127.160000", "112128.360000", "112129.560000", "112130.760000", "112131.960000", "112133.160000", "112134.360000", "112135.560000", "112136.760000", "112137.960000", "112139.160000", "112140.360000", "112141.560000", "112142.760000", "112143.960000", "112145.160000", "112146.360000", "112147.560000", "112148.760000", "112149.960000", "112151.160000", "112152.360000", "112153.560000", "112154.760000", "112155.960000", "112157.160000", "112158.360000", "112159.560000", "112200.760000", "112201.960000", "112203.160000", "112204.360000", "112205.560000", "112206.760000", "112207.960000", "112209.160000", "112210.360000", "112211.560000", "112212.760000", "112213.960000", "112215.160000", "112216.360000", "112217.560000", "112218.760000", "112219.960000", "112221.160000", "112222.360000", "112223.560000", "112224.760000", "112225.960000", "112227.160000", "112228.360000", "112229.560000", "112230.760000", "112231.960000", "112233.160000", "112234.360000", "112235.560000", "112236.760000", "112237.960000", "112239.160000", "112240.360000", "112241.560000", "112242.760000", "112243.960000", "112245.160000", "112246.360000", "112247.560000", "112248.760000", "112249.960000", "112251.160000", "112252.360000", "112253.560000", "112254.760000", "112255.960000", "112257.160000", "112258.360000", "112259.560000", "112300.760000", "112301.960000", "112303.160000", "112304.360000", "112305.560000", "112306.760000", "112307.960000", "112309.160000", "112310.360000", "112311.560000", "112312.760000", "112313.960000", "112315.160000", "112316.360000", "112317.560000", "112318.760000", "112319.960000", "112321.160000", "112322.360000", "112323.560000", "112324.760000", "112325.960000", "112327.160000", "112328.360000", "112329.560000", "112330.760000", "112331.960000", "112333.160000", "112334.360000", "112335.560000", "112336.760000", "112337.960000", "112339.160000", "112340.360000", "112341.560000", "112342.760000", "112343.960000", "112345.160000", "112346.360000", "112347.560000", "112348.760000", "112349.960000", "112351.160000", "112352.360000", "112353.560000", "112354.760000", "112355.960000", "112357.160000", "112358.360000", "112359.560000", "112400.760000", "112401.960000", "112403.160000", "112404.360000", "112405.560000", "112406.760000", "112407.960000", "112409.160000", "112410.360000", "112411.560000", "112412.760000", "112413.960000", "112415.160000", "112416.360000", "112417.560000", "112418.760000", "112419.960000", "112421.160000", "112422.360000", "112423.560000", "112424.760000", "112425.960000", "112427.160000", "112428.360000", "112429.560000", "112430.760000", "112431.960000", "112433.160000", "112434.360000", "112435.560000", "112436.760000", "112437.960000", "112439.160000", "112440.360000", "112441.560000", "112442.760000", "112443.960000", "112445.160000", "112446.360000", "112447.560000", "112448.760000", "112449.960000", "112451.160000", "112452.360000", "112453.560000", "112454.760000", "112455.960000", "112457.160000", "112458.360000", "112459.560000", "112500.760000", "112501.960000", "112503.160000", "112504.360000", "112505.560000", "112506.760000", "112507.960000", "112509.160000", "112510.360000", "112511.560000", "112512.760000", "112513.960000", "112515.160000", "112516.360000", "112517.560000", "112518.760000", "112519.960000", "112521.160000", "112522.360000", "112523.560000", "112524.760000", "112525.960000", "112527.160000", "112528.360000", "112529.560000", "112530.760000", "112531.960000", "112533.160000", "112534.360000", "112535.560000", "112536.760000", "112537.960000", "112539.160000", "112540.360000", "112541.560000", "112542.760000", "112543.960000", "112545.160000", "112546.360000", "112547.560000", "112548.760000", "112549.960000", "112551.160000", "112552.360000", "112553.560000", "112554.760000", "112555.960000", "112557.160000", "112558.360000", "112559.560000", "112600.760000", "112601.960000", "112603.160000", "112604.360000", "112605.560000", "112606.760000", "112607.960000", "112609.160000", "112610.360000", "112611.560000", "112612.760000", "112613.960000", "112615.160000", "112616.360000", "112617.560000", "112618.760000", "112619.960000", "112621.160000", "112622.360000", "112623.560000", "112624.760000", "112625.960000", "112627.160000", "112628.360000", "112629.560000", "112630.760000", "112631.960000", "112633.160000", "112634.360000", "112635.560000", "112636.760000", "112637.960000", "112639.160000", "112640.360000", "112641.560000", "112642.760000", "112643.960000", "112645.160000", "112646.360000", "112647.560000", "112648.760000", "112649.960000", "112651.160000", "112652.360000", "112653.560000", "112654.760000", "112655.960000", "112657.160000", "112658.360000", "112659.560000", "112700.760000", "112701.960000", "112703.160000", "112704.360000", "112705.560000", "112706.760000", "112707.960000", "112709.160000", "112710.360000", "112711.560000", "112712.760000", "112713.960000", "112715.160000", "112716.360000", "112717.560000", "112718.760000", "112719.960000", "112721.160000", "112722.360000", "112723.560000", "112724.760000", "112725.960000", "112727.160000", "112728.360000", "112729.560000", "112730.760000", "112731.960000", "112733.160000", "112734.360000", "112735.560000", "112736.760000", "112737.960000", "112739.160000", "112740.360000", "112741.560000", "112742.760000", "112743.960000", "112745.160000", "112746.360000", "112747.560000", "112748.760000", "112749.960000", "112751.160000", "112752.360000", "112753.560000", "112754.760000", "112755.960000", "112757.160000", "112758.360000", "112759.560000", "112800.760000", "112801.960000", "112803.160000", "112804.360000", "112805.560000", "112806.760000", "112807.960000", "112809.160000", "112810.360000", "112811.560000", "112812.760000", "112813.960000", "112815.160000", "112816.360000", "112817.560000", "112818.760000", "112819.960000", "112821.160000"],
      "ContentTime": ["112106.876000", "112106.879000", "112106.882000", "112106.884000", "112106.887000", "112106.889000", "112106.892000", "112106.894000", "112106.897000", "112106.899000", "112106.902000", "112106.905000", "112106.912000", "112106.924000", "112106.927000", "112106.929000", "112106.932000", "112106.934000", "112106.942000", "112106.944000", "112106.947000", "112106.949000", "112106.952000", "112106.955000", "112106.957000", "112106.960000", "112106.962000", "112106.965000", "112146.872000", "112146.874000", "112146.877000", "112146.879000", "112146.882000", "112146.885000", "112146.887000", "112146.890000", "112146.892000", "112146.895000", "112146.897000", "112146.900000", "112146.903000", "112146.905000", "112146.908000", "112146.910000", "112146.913000", "112146.927000", "112146.930000", "112146.932000", "112146.935000", "112146.937000", "112146.940000", "112146.942000", "112146.945000", "112146.948000", "112146.950000", "112146.953000", "112146.955000", "112146.958000", "112146.960000", "112146.963000", "112146.965000", "112226.872000", "112226.881000", "112226.884000", "112226.894000", "112226.897000", "112226.899000", "112226.902000", "112226.904000", "112226.907000", "112226.909000", "112226.912000", "112226.915000", "112226.917000", "112226.920000", "112226.922000", "112226.925000", "112226.927000", "112226.930000", "112226.933000", "112226.935000", "112226.938000", "112226.940000", "112226.943000", "112226.945000", "112226.948000", "112226.950000", "112226.953000", "112226.955000", "112226.958000", "112226.961000", "112226.964000", "112226.966000", "112226.969000", "112226.971000", "112306.870000", "112306.873000", "112306.876000", "112306.878000", "112306.881000", "112306.884000", "112306.886000", "112306.889000", "112306.891000", "112306.894000", "112306.896000", "112306.899000", "112306.901000", "112306.904000", "112306.906000", "112306.909000", "112306.912000", "112306.915000", "112306.917000", "112306.920000", "112306.922000", "112306.925000", "112306.928000", "112306.930000", "112306.933000", "112306.935000", "112306.938000", "112306.940000", "112306.943000", "112306.945000", "112306.948000", "112306.951000", "112306.953000", "112346.871000", "112346.874000", "112346.877000", "112346.879000", "112346.882000", "112346.884000", "112346.887000", "112346.890000", "112346.892000", "112346.895000", "112346.897000", "112346.900000", "112346.902000", "112346.905000", "112346.907000", "112346.910000", "112346.912000", "112346.915000", "112346.918000", "112346.920000", "112346.923000", "112346.925000", "112346.928000", "112346.930000", "112346.933000", "112346.935000", "112346.938000", "112346.940000", "112346.943000", "112346.945000", "112346.948000", "112346.950000", "112346.953000", "112426.872000", "112426.874000", "112426.877000", "112426.879000", "112426.882000", "112426.884000", "112426.887000", "112426.890000", "112426.892000", "112426.895000", "112426.897000", "112426.900000", "112426.902000", "112426.905000", "112426.907000", "112426.910000", "112426.913000", "112426.915000", "112426.918000", "112426.920000", "112426.923000", "112426.925000", "112426.938000", "112426.941000", "112426.944000", "112426.946000", "112426.949000", "112426.951000", "112426.954000", "112426.956000", "112426.959000", "112426.962000", "112426.964000", "112426.967000", "112506.870000", "112506.873000", "112506.876000", "112506.878000", "112506.881000", "112506.883000", "112506.886000", "112506.889000", "112506.891000", "112506.894000", "112506.896000", "112506.899000", "112506.901000", "112506.904000", "112506.907000", "112506.909000", "112506.912000", "112506.914000", "112506.917000", "112506.920000", "112506.922000", "112506.925000", "112506.927000", "112506.930000", "112506.932000", "112506.935000", "112506.937000", "112506.940000", "112506.943000", "112506.945000", "112506.948000", "112506.950000", "112506.953000", "112546.872000", "112546.875000", "112546.877000", "112546.880000", "112546.882000", "112546.885000", "112546.888000", "112546.890000", "112546.893000", "112546.895000", "112546.898000", "112546.901000", "112546.903000", "112546.906000", "112546.908000", "112546.911000", "112546.913000", "112546.916000", "112546.919000", "112546.921000", "112546.924000", "112546.926000", "112546.929000", "112546.941000", "112546.943000", "112546.946000", "112546.949000", "112546.951000", "112546.954000", "112546.956000", "112546.959000", "112546.961000", "112546.964000", "112626.871000", "112626.874000", "112626.877000", "112626.879000", "112626.882000", "112626.885000", "112626.887000", "112626.890000", "112626.892000", "112626.895000", "112626.897000", "112626.900000", "112626.903000", "112626.905000", "112626.908000", "112626.910000", "112626.913000", "112626.916000", "112626.918000", "112626.921000", "112626.923000", "112626.926000", "112626.928000", "112626.931000", "112626.934000", "112626.936000", "112626.939000", "112626.941000", "112626.944000", "112626.947000", "112626.949000", "112626.952000", "112626.954000", "112626.957000", "112706.872000", "112706.874000", "112706.877000", "112706.879000", "112706.882000", "112706.885000", "112706.887000", "112706.890000", "112706.893000", "112706.895000", "112706.898000", "112706.900000", "112706.903000", "112706.910000", "112706.913000", "112706.916000", "112706.918000", "112706.921000", "112706.923000", "112706.926000", "112706.929000", "112706.931000", "112706.934000", "112706.936000", "112706.939000", "112706.941000", "112706.944000", "112706.947000", "112706.949000", "112706.952000", "112706.954000", "112706.957000", "112706.959000", "112746.871000", "112746.873000", "112746.876000", "112746.879000", "112746.881000", "112746.884000", "112746.886000", "112746.889000", "112746.892000", "112746.894000", "112746.897000", "112746.899000", "112746.902000", "112746.904000", "112746.907000", "112746.910000", "112746.912000", "112746.915000", "112746.917000", "112746.920000", "112746.923000", "112746.925000", "112746.928000", "112746.930000", "112746.933000", "112746.935000", "112746.938000", "112746.941000", "112746.943000", "112746.946000", "112746.948000", "112746.951000", "112746.953000", "112823.089000", "112823.092000", "112823.095000", "112823.097000", "112823.100000", "112823.103000", "112823.123000", "112823.126000", "112823.128000", "112823.142000", "112823.144000", "112823.147000", "112823.149000", "112823.164000", "112823.167000", "112823.169000", "112823.172000", "112823.175000", "112823.177000", "112823.180000", "112823.183000", "112823.185000", "112823.188000", "112823.191000", "112823.193000", "112823.198000", "112823.201000", "112823.204000", "112823.207000", "112823.210000", "112823.212000"],
      "InstanceCreationTime": ["112106.876000", "112106.879000", "112106.882000", "112106.884000", "112106.887000", "112106.889000", "112106.892000", "112106.894000", "112106.897000", "112106.899000", "112106.902000", "112106.905000", "112106.912000", "112106.924000", "112106.927000", "112106.929000", "112106.932000", "112106.934000", "112106.942000", "112106.944000", "112106.947000", "112106.949000", "112106.952000", "112106.955000", "112106.957000", "112106.960000", "112106.962000", "112106.965000", "112146.872000", "112146.874000", "112146.877000", "112146.879000", "112146.882000", "112146.885000", "112146.887000", "112146.890000", "112146.892000", "112146.895000", "112146.897000", "112146.900000", "112146.903000", "112146.905000", "112146.908000", "112146.910000", "112146.913000", "112146.927000", "112146.930000", "112146.932000", "112146.935000", "112146.937000", "112146.940000", "112146.942000", "112146.945000", "112146.948000", "112146.950000", "112146.953000", "112146.955000", "112146.958000", "112146.960000", "112146.963000", "112146.965000", "112226.872000", "112226.881000", "112226.884000", "112226.894000", "112226.897000", "112226.899000", "112226.902000", "112226.904000", "112226.907000", "112226.909000", "112226.912000", "112226.915000", "112226.917000", "112226.920000", "112226.922000", "112226.925000", "112226.927000", "112226.930000", "112226.933000", "112226.935000", "112226.938000", "112226.940000", "112226.943000", "112226.945000", "112226.948000", "112226.950000", "112226.953000", "112226.955000", "112226.958000", "112226.961000", "112226.964000", "112226.966000", "112226.969000", "112226.971000", "112306.870000", "112306.873000", "112306.876000", "112306.878000", "112306.881000", "112306.884000", "112306.886000", "112306.889000", "112306.891000", "112306.894000", "112306.896000", "112306.899000", "112306.901000", "112306.904000", "112306.906000", "112306.909000", "112306.912000", "112306.915000", "112306.917000", "112306.920000", "112306.922000", "112306.925000", "112306.928000", "112306.930000", "112306.933000", "112306.935000", "112306.938000", "112306.940000", "112306.943000", "112306.945000", "112306.948000", "112306.951000", "112306.953000", "112346.871000", "112346.874000", "112346.877000", "112346.879000", "112346.882000", "112346.884000", "112346.887000", "112346.890000", "112346.892000", "112346.895000", "112346.897000", "112346.900000", "112346.902000", "112346.905000", "112346.907000", "112346.910000", "112346.912000", "112346.915000", "112346.918000", "112346.920000", "112346.923000", "112346.925000", "112346.928000", "112346.930000", "112346.933000", "112346.935000", "112346.938000", "112346.940000", "112346.943000", "112346.945000", "112346.948000", "112346.950000", "112346.953000", "112426.872000", "112426.874000", "112426.877000", "112426.879000", "112426.882000", "112426.884000", "112426.887000", "112426.890000", "112426.892000", "112426.895000", "112426.897000", "112426.900000", "112426.902000", "112426.905000", "112426.907000", "112426.910000", "112426.913000", "112426.915000", "112426.918000", "112426.920000", "112426.923000", "112426.925000", "112426.938000", "112426.941000", "112426.944000", "112426.946000", "112426.949000", "112426.951000", "112426.954000", "112426.956000", "112426.959000", "112426.962000", "112426.964000", "112426.967000", "112506.870000", "112506.873000", "112506.876000", "112506.878000", "112506.881000", "112506.883000", "112506.886000", "112506.889000", "112506.891000", "112506.894000", "112506.896000", "112506.899000", "112506.901000", "112506.904000", "112506.907000", "112506.909000", "112506.912000", "112506.914000", "112506.917000", "112506.920000", "112506.922000", "112506.925000", "112506.927000", "112506.930000", "112506.932000", "112506.935000", "112506.937000", "112506.940000", "112506.943000", "112506.945000", "112506.948000", "112506.950000", "112506.953000", "112546.872000", "112546.875000", "112546.877000", "112546.880000", "112546.882000", "112546.885000", "112546.888000", "112546.890000", "112546.893000", "112546.895000", "112546.898000", "112546.901000", "112546.903000", "112546.906000", "112546.908000", "112546.911000", "112546.913000", "112546.916000", "112546.919000", "112546.921000", "112546.924000", "112546.926000", "112546.929000", "112546.941000", "112546.943000", "112546.946000", "112546.949000", "112546.951000", "112546.954000", "112546.956000", "112546.959000", "112546.961000", "112546.964000", "112626.871000", "112626.874000", "112626.877000", "112626.879000", "112626.882000", "112626.885000", "112626.887000", "112626.890000", "112626.892000", "112626.895000", "112626.897000", "112626.900000", "112626.903000", "112626.905000", "112626.908000", "112626.910000", "112626.913000", "112626.916000", "112626.918000", "112626.921000", "112626.923000", "112626.926000", "112626.928000", "112626.931000", "112626.934000", "112626.936000", "112626.939000", "112626.941000", "112626.944000", "112626.947000", "112626.949000", "112626.952000", "112626.954000", "112626.957000", "112706.872000", "112706.874000", "112706.877000", "112706.879000", "112706.882000", "112706.885000", "112706.887000", "112706.890000", "112706.893000", "112706.895000", "112706.898000", "112706.900000", "112706.903000", "112706.910000", "112706.913000", "112706.916000", "112706.918000", "112706.921000", "112706.923000", "112706.926000", "112706.929000", "112706.931000", "112706.934000", "112706.936000", "112706.939000", "112706.941000", "112706.944000", "112706.947000", "112706.949000", "112706.952000", "112706.954000", "112706.957000", "112706.959000", "112746.871000", "112746.873000", "112746.876000", "112746.879000", "112746.881000", "112746.884000", "112746.886000", "112746.889000", "112746.892000", "112746.894000", "112746.897000", "112746.899000", "112746.902000", "112746.904000", "112746.907000", "112746.910000", "112746.912000", "112746.915000", "112746.917000", "112746.920000", "112746.923000", "112746.925000", "112746.928000", "112746.930000", "112746.933000", "112746.935000", "112746.938000", "112746.941000", "112746.943000", "112746.946000", "112746.948000", "112746.951000", "112746.953000", "112823.089000", "112823.092000", "112823.095000", "112823.097000", "112823.100000", "112823.103000", "112823.123000", "112823.126000", "112823.128000", "112823.142000", "112823.144000", "112823.147000", "112823.149000", "112823.164000", "112823.167000", "112823.169000", "112823.172000", "112823.175000", "112823.177000", "112823.180000", "112823.183000", "112823.185000", "112823.188000", "112823.191000", "112823.193000", "112823.198000", "112823.201000", "112823.204000", "112823.207000", "112823.210000", "112823.212000"],
      "InstanceNumber": [1, 2, 3, 4, 5, 6, 7, 8, 9, 10, 11, 12, 13, 14, 15, 16, 17, 18, 19, 20, 21, 22, 23, 24, 25, 26, 27, 28, 29, 30, 31, 32, 33, 34, 35, 36, 37, 38, 39, 40, 41, 42, 43, 44, 45, 46, 47, 48, 49, 50, 51, 52, 53, 54, 55, 56, 57, 58, 59, 60, 61, 62, 63, 64, 65, 66, 67, 68, 69, 70, 71, 72, 73, 74, 75, 76, 77, 78, 79, 80, 81, 82, 83, 84, 85, 86, 87, 88, 89, 90, 91, 92, 93, 94, 95, 96, 97, 98, 99, 100, 101, 102, 103, 104, 105, 106, 107, 108, 109, 110, 111, 112, 113, 114, 115, 116, 117, 118, 119, 120, 121, 122, 123, 124, 125, 126, 127, 128, 129, 130, 131, 132, 133, 134, 135, 136, 137, 138, 139, 140, 141, 142, 143, 144, 145, 146, 147, 148, 149, 150, 151, 152, 153, 154, 155, 156, 157, 158, 159, 160, 161, 162, 163, 164, 165, 166, 167, 168, 169, 170, 171, 172, 173, 174, 175, 176, 177, 178, 179, 180, 181, 182, 183, 184, 185, 186, 187, 188, 189, 190, 191, 192, 193, 194, 195, 196, 197, 198, 199, 200, 201, 202, 203, 204, 205, 206, 207, 208, 209, 210, 211, 212, 213, 214, 215, 216, 217, 218, 219, 220, 221, 222, 223, 224, 225, 226, 227, 228, 229, 230, 231, 232, 233, 234, 235, 236, 237, 238, 239, 240, 241, 242, 243, 244, 245, 246, 247, 248, 249, 250, 251, 252, 253, 254, 255, 256, 257, 258, 259, 260, 261, 262, 263, 264, 265, 266, 267, 268, 269, 270, 271, 272, 273, 274, 275, 276, 277, 278, 279, 280, 281, 282, 283, 284, 285, 286, 287, 288, 289, 290, 291, 292, 293, 294, 295, 296, 297, 298, 299, 300, 301, 302, 303, 304, 305, 306, 307, 308, 309, 310, 311, 312, 313, 314, 315, 316, 317, 318, 319, 320, 321, 322, 323, 324, 325, 326, 327, 328, 329, 330, 331, 332, 333, 334, 335, 336, 337, 338, 339, 340, 341, 342, 343, 344, 345, 346, 347, 348, 349, 350, 351, 352, 353, 354, 355, 356, 357, 358, 359, 360, 361, 362, 363, 364, 365, 366, 367, 368, 369, 370, 371, 372, 373, 374, 375, 376, 377, 378, 379, 380, 381, 382, 383, 384, 385, 386, 387, 388, 389, 390, 391, 392],
