{
  "AcquisitionMatrixPE": 88,
  "AcquisitionNumber": 1,
  "AcquisitionTime": "12:16:18.420000",
  "BandwidthPerPixelPhaseEncode": 19.592,
  "BaseResolution": 88,
  "BodyPartExamined": "BRAIN",
  "ConsistencyInfo": "N4_VE11C_LATEST_20160120",
  "ConversionSoftware": "dcm2niix",
  "ConversionSoftwareVersion": "v1.0.20190902",
  "DerivedVendorReportedEchoSpacing": 0.000580014,
  "DeviceSerialNumber": "67050",
  "DwellTime": 2.6e-06,
  "EchoTime": 0.033,
  "EchoTrainLength": 88,
  "EffectiveEchoSpacing": 0.000580014,
  "FlipAngle": 62,
  "ImageOrientationPatientDICOM": [0.990031, -0.0283668, 0.137965, 0.0207381, 0.998192, 0.0564206],
  "ImageType": [
    "ORIGINAL",
    "PRIMARY",
    "M",
    "ND",
    "MOSAIC"
],
  "ImagingFrequency": 123.251,
  "InPlanePhaseEncodingDirectionDICOM": "COL",
  "InstitutionAddress": "Olive_Street_60_Providence_RI_US_02912",
  "InstitutionName": "BROWN_UNIVERSITY_MRF",
  "InstitutionalDepartmentName": "Department",
  "MRAcquisitionType": "2D",
  "MagneticFieldStrength": 3,
  "Manufacturer": "Siemens",
  "ManufacturersModelName": "Prisma_fit",
  "Modality": "MR",
  "MultibandAccelerationFactor": 4,
  "PartialFourier": 1,
  "PatientPosition": "HFS",
  "PercentPhaseFOV": 100,
  "PhaseEncodingDirection": "j-",
  "PhaseEncodingSteps": 88,
  "PhaseResolution": 1,
  "PixelBandwidth": 2185,
  "ProcedureStepDescription": "ASHENHAV_1222",
  "ProtocolName": "func-bold_task-RDMmotion_run-06",
  "PulseSequenceDetails": "%SiemensSeq%_ep2d_bold",
  "ReceiveCoilActiveElements": "HC1-7",
  "ReceiveCoilName": "HeadNeck_64",
  "ReconMatrixPE": 88,
  "RefLinesPE": 8,
  "RepetitionTime": 1.2,
  "SAR": 0.0506296,
  "ScanOptions": "FS",
  "ScanningSequence": "EP",
  "SequenceName": "_epfid2d1_88",
  "SequenceVariant": "SK",
  "SeriesDescription": "func-bold_task-RDMmotion_run-06",
  "SeriesNumber": 17,
  "ShimSetting": [1780, -9115, 4430, 504, -89, -74, 28, 29],
  "SliceThickness": 2.4,
  "SliceTiming": [0.55, 0, 0.63, 0.08, 0.7075, 0.1575, 0.7875, 0.2375, 0.865, 0.315, 0.945, 0.3925, 1.0225, 0.4725, 1.1025, 0.55, 0, 0.63, 0.08, 0.7075, 0.1575, 0.7875, 0.2375, 0.865, 0.315, 0.945, 0.3925, 1.0225, 0.4725, 1.1025, 0.55, 0, 0.63, 0.08, 0.7075, 0.1575, 0.7875, 0.2375, 0.865, 0.315, 0.945, 0.3925, 1.0225, 0.4725, 1.1025, 0.55, 0, 0.63, 0.08, 0.7075, 0.1575, 0.7875, 0.2375, 0.865, 0.315, 0.945, 0.3925, 1.0225, 0.4725, 1.1025],
  "SoftwareVersions": "syngo_MR_E11",
  "SpacingBetweenSlices": 2.4,
  "StationName": "AWP67050",
  "TaskName": "RDMmotion",
  "TotalReadoutTime": 0.0504612,
  "TxRefAmp": 245.896,
  "dcmmeta_affine": [
    [-2.373823642730713, 0.04972442239522934, 0.3343591094017029, 101.50154113769531],
    [0.06801580637693405, 2.3933913707733154, 0.12719270586967468, -92.10521697998047],
    [0.33080318570137024, -0.13528114557266235, 2.3731889724731445, -67.49132537841797],
    [0.0, 0.0, 0.0, 1.0]
],
  "dcmmeta_reorient_transform": [
    [0.0, -1.0, 0.0, 87.0],
    [1.0, 0.0, 0.0, 0.0],
    [0.0, 0.0, 1.0, 0.0],
    [0.0, 0.0, 0.0, 1.0]
],
  "dcmmeta_shape": [88, 88, 60, 125],
  "dcmmeta_slice_dim": 2,
  "dcmmeta_version": 0.6,
  "global": {
    "const": {
      "AcquisitionMatrix": [88, 0, 0, 88],
      "AngioFlag": "N",
      "BitsAllocated": 16,
      "BitsStored": 12,
      "BodyPartExamined": "BRAIN",
      "Columns": 704,
      "DeidentificationMethodCodeSequence": [
        {
          "CodeMeaning": "XNAT DicomEdit 6 Script",
          "CodeValue": "3",
          "CodingSchemeDesignator": "XNAT",
          "CodingSchemeVersion": "1.0"}
],
      "EchoNumbers": 1,
      "EchoTime": 33.0,
      "EchoTrainLength": 88,
      "FlipAngle": 62.0,
      "HighBit": 11,
      "ImageOrientationPatient": [0.99003075620664, -0.0283667822897, 0.13796531240654, 0.02073814802468, 0.9981916890948, 0.05642057283102],
      "ImagePositionPatient": [-852.28039799593, -832.33551957021, -222.81475648875],
      "ImageType": [
        "ORIGINAL",
        "PRIMARY",
        "M",
        "ND",
        "MOSAIC"
],
      "ImagedNucleus": "1H",
      "ImagingFrequency": 123.250753,
      "InPlanePhaseEncodingDirection": "COL",
      "MRAcquisitionType": "2D",
      "MagneticFieldStrength": 3.0,
      "Manufacturer": "SIEMENS",
      "ManufacturerModelName": "Prisma_fit",
      "Modality": "MR",
      "NumberOfAverages": 1.0,
      "NumberOfPhaseEncodingSteps": 88,
      "PercentPhaseFieldOfView": 100.0,
      "PercentSampling": 100.0,
      "PerformedProcedureStepStartTime": "104915.366000",
      "PhotometricInterpretation": "MONOCHROME2",
      "PixelBandwidth": 2185.0,
      "PixelRepresentation": 0,
      "PixelSpacing": [2.3977272510529, 2.3977272510529],
      "ProtocolName": "func-bold_task-RDMmotion_run-06",
      "RepetitionTime": 1200.0,
      "Rows": 704,
      "SAR": 0.05062961971393,
      "SamplesPerPixel": 1,
      "ScanOptions": "FS",
      "ScanningSequence": "EP",
      "SequenceName": "*epfid2d1_88",
      "SequenceVariant": "SK",
      "SeriesDescription": "func-bold_task-RDMmotion_run-06",
      "SeriesNumber": 17,
      "SeriesTime": "121646.873000",
      "SliceLocation": -57.477836350794,
      "SliceThickness": 2.4000000953674,
      "SmallestImagePixelValue": 0,
      "SoftwareVersions": "syngo MR E11",
      "SpacingBetweenSlices": 2.4000000583567,
      "SpecificCharacterSet": "ISO_IR 100",
      "StudyID": "1",
      "StudyTime": "104915.286000",
      "TransmitCoilName": "Body",
      "VariableFlipAngleFlag": "N",
      "WindowCenterWidthExplanation": "Algo1",
      "dBdt": 0.0},
    "slices": {}
  },
  "time": {
    "samples": {
      "AcquisitionNumber": [1, 2, 3, 4, 5, 6, 7, 8, 9, 10, 11, 12, 13, 14, 15, 16, 17, 18, 19, 20, 21, 22, 23, 24, 25, 26, 27, 28, 29, 30, 31, 32, 33, 34, 35, 36, 37, 38, 39, 40, 41, 42, 43, 44, 45, 46, 47, 48, 49, 50, 51, 52, 53, 54, 55, 56, 57, 58, 59, 60, 61, 62, 63, 64, 65, 66, 67, 68, 69, 70, 71, 72, 73, 74, 75, 76, 77, 78, 79, 80, 81, 82, 83, 84, 85, 86, 87, 88, 89, 90, 91, 92, 93, 94, 95, 96, 97, 98, 99, 100, 101, 102, 103, 104, 105, 106, 107, 108, 109, 110, 111, 112, 113, 114, 115, 116, 117, 118, 119, 120, 121, 122, 123, 124, 125],
      "AcquisitionTime": ["121618.420000", "121619.620000", "121620.820000", "121622.020000", "121623.220000", "121624.420000", "121625.620000", "121626.820000", "121628.020000", "121629.220000", "121630.420000", "121631.620000", "121632.820000", "121634.020000", "121635.220000", "121636.420000", "121637.620000", "121638.820000", "121640.020000", "121641.220000", "121642.420000", "121643.620000", "121644.820000", "121646.020000", "121647.220000", "121648.420000", "121649.620000", "121650.820000", "121652.020000", "121653.220000", "121654.420000", "121655.620000", "121656.820000", "121658.020000", "121659.220000", "121700.420000", "121701.620000", "121702.820000", "121704.020000", "121705.220000", "121706.420000", "121707.620000", "121708.820000", "121710.020000", "121711.220000", "121712.420000", "121713.620000", "121714.820000", "121716.020000", "121717.220000", "121718.420000", "121719.620000", "121720.820000", "121722.020000", "121723.220000", "121724.420000", "121725.620000", "121726.820000", "121728.020000", "121729.220000", "121730.420000", "121731.620000", "121732.820000", "121734.020000", "121735.220000", "121736.420000", "121737.620000", "121738.820000", "121740.020000", "121741.220000", "121742.420000", "121743.620000", "121744.820000", "121746.020000", "121747.220000", "121748.420000", "121749.620000", "121750.820000", "121752.020000", "121753.220000", "121754.420000", "121755.620000", "121756.820000", "121758.020000", "121759.220000", "121800.420000", "121801.620000", "121802.820000", "121804.020000", "121805.220000", "121806.420000", "121807.620000", "121808.820000", "121810.020000", "121811.220000", "121812.420000", "121813.620000", "121814.820000", "121816.020000", "121817.220000", "121818.420000", "121819.620000", "121820.820000", "121822.020000", "121823.220000", "121824.420000", "121825.620000", "121826.820000", "121828.020000", "121829.220000", "121830.420000", "121831.620000", "121832.820000", "121834.020000", "121835.220000", "121836.420000", "121837.620000", "121838.820000", "121840.020000", "121841.220000", "121842.420000", "121843.620000", "121844.820000", "121846.020000", "121847.220000"],
      "ContentTime": ["121646.877000", "121646.880000", "121646.882000", "121646.885000", "121646.888000", "121646.890000", "121646.893000", "121646.895000", "121646.898000", "121646.900000", "121646.903000", "121646.914000", "121646.916000", "121646.919000", "121646.921000", "121646.924000", "121646.927000", "121646.929000", "121646.932000", "121646.934000", "121646.937000", "121646.939000", "121646.948000", "121726.871000", "121726.874000", "121726.877000", "121726.879000", "121726.882000", "121726.885000", "121726.887000", "121726.890000", "121726.892000", "121726.895000", "121726.897000", "121726.900000", "121726.902000", "121726.905000", "121726.907000", "121726.910000", "121726.913000", "121726.915000", "121726.918000", "121726.920000", "121726.923000", "121726.925000", "121726.928000", "121726.930000", "121726.933000", "121726.935000", "121726.938000", "121726.941000", "121726.943000", "121726.946000", "121726.948000", "121726.962000", "121726.965000", "121806.871000", "121806.874000", "121806.876000", "121806.879000", "121806.881000", "121806.884000", "121806.886000", "121806.889000", "121806.892000", "121806.894000", "121806.897000", "121806.899000", "121806.902000", "121806.904000", "121806.907000", "121806.910000", "121806.912000", "121806.915000", "121806.917000", "121806.920000", "121806.923000", "121806.925000", "121806.928000", "121806.930000", "121806.933000", "121806.935000", "121806.938000", "121806.941000", "121806.943000", "121806.946000", "121806.948000", "121806.951000", "121806.953000", "121806.956000", "121846.872000", "121846.885000", "121846.887000", "121846.890000", "121846.893000", "121846.896000", "121846.898000", "121846.901000", "121846.903000", "121846.906000", "121846.908000", "121846.911000", "121846.913000", "121846.916000", "121846.935000", "121846.945000", "121846.948000", "121846.950000", "121846.953000", "121846.955000", "121846.958000", "121846.960000", "121846.963000", "121846.966000", "121846.968000", "121846.971000", "121846.973000", "121846.976000", "121846.978000", "121846.981000", "121846.983000", "121846.986000", "121846.988000", "121848.637000", "121848.640000"],
      "InstanceCreationTime": ["121646.877000", "121646.880000", "121646.882000", "121646.885000", "121646.888000", "121646.890000", "121646.893000", "121646.895000", "121646.898000", "121646.900000", "121646.903000", "121646.914000", "121646.916000", "121646.919000", "121646.921000", "121646.924000", "121646.927000", "121646.929000", "121646.932000", "121646.934000", "121646.937000", "121646.939000", "121646.948000", "121726.871000", "121726.874000", "121726.877000", "121726.879000", "121726.882000", "121726.885000", "121726.887000", "121726.890000", "121726.892000", "121726.895000", "121726.897000", "121726.900000", "121726.902000", "121726.905000", "121726.907000", "121726.910000", "121726.913000", "121726.915000", "121726.918000", "121726.920000", "121726.923000", "121726.925000", "121726.928000", "121726.930000", "121726.933000", "121726.935000", "121726.938000", "121726.941000", "121726.943000", "121726.946000", "121726.948000", "121726.962000", "121726.965000", "121806.871000", "121806.874000", "121806.876000", "121806.879000", "121806.881000", "121806.884000", "121806.886000", "121806.889000", "121806.892000", "121806.894000", "121806.897000", "121806.899000", "121806.902000", "121806.904000", "121806.907000", "121806.910000", "121806.912000", "121806.915000", "121806.917000", "121806.920000", "121806.923000", "121806.925000", "121806.928000", "121806.930000", "121806.933000", "121806.935000", "121806.938000", "121806.941000", "121806.943000", "121806.946000", "121806.948000", "121806.951000", "121806.953000", "121806.956000", "121846.872000", "121846.885000", "121846.887000", "121846.890000", "121846.893000", "121846.896000", "121846.898000", "121846.901000", "121846.903000", "121846.906000", "121846.908000", "121846.911000", "121846.913000", "121846.916000", "121846.935000", "121846.945000", "121846.948000", "121846.950000", "121846.953000", "121846.955000", "121846.958000", "121846.960000", "121846.963000", "121846.966000", "121846.968000", "121846.971000", "121846.973000", "121846.976000", "121846.978000", "121846.981000", "121846.983000", "121846.986000", "121846.988000", "121848.637000", "121848.640000"],
      "InstanceNumber": [1, 2, 3, 4, 5, 6, 7, 8, 9, 10, 11, 12, 13, 14, 15, 16, 17, 18, 19, 20, 21, 22, 23, 24, 25, 26, 27, 28, 29, 30, 31, 32, 33, 34, 35, 36, 37, 38, 39, 40, 41, 42, 43, 44, 45, 46, 47, 48, 49, 50, 51, 52, 53, 54, 55, 56, 57, 58, 59, 60, 61, 62, 63, 64, 65, 66, 67, 68, 69, 70, 71, 72, 73, 74, 75, 76, 77, 78, 79, 80, 81, 82, 83, 84, 85, 86, 87, 88, 89, 90, 91, 92, 93, 94, 95, 96, 97, 98, 99, 100, 101, 102, 103, 104, 105, 106, 107, 108, 109, 110, 111, 112, 113, 114, 115, 116, 117, 118, 119, 120, 121, 122, 123, 124, 125],
      "LargestImagePixelValue": [2829, 2723, 2663, 2653, 2590, 2606, 2570, 2595, 2551, 2564, 2578, 2598, 2607, 2592, 2636, 2647, 2649, 2608, 2623, 2575, 2567, 2579, 2576, 2571, 2580, 2587, 2573, 2566, 2573, 2575, 2601, 2581, 2579, 2584, 2590, 2584, 2572, 2580, 2591, 2593, 2582, 2562, 2559, 2583, 2546, 2563, 2581, 2581, 2594, 2612, 2594, 2597, 2588, 2589, 2633, 2637, 2613, 2602, 2593, 2587, 2585, 2561, 2585, 2592, 2573, 2562, 2572, 2601, 2621, 2592, 2633, 2624, 2605, 2576, 2568, 2552, 2572, 2567, 2563, 2567, 2591, 2580, 2586, 2559, 2557, 2580, 2573, 2575, 2570, 2548, 2562, 2550, 2550, 2557, 2617, 2609, 2592, 2600, 2602, 2593, 2583, 2572, 2560, 2591, 2602, 2577, 2612, 2603, 2629, 2589, 2580, 2608, 2603, 2588, 2568, 2592, 2591, 2560, 2560, 2544, 2587, 2591, 2621, 2582, 2576],
      "WindowCenter": [644.0, 642.0, 640.0, 640.0, 638.0, 639.0, 638.0, 637.0, 637.0, 637.0, 637.0, 637.0, 637.0, 637.0, 638.0, 639.0, 639.0, 639.0, 639.0, 639.0, 638.0, 637.0, 636.0, 636.0, 636.0, 636.0, 637.0, 636.0, 637.0, 637.0, 637.0, 637.0, 637.0, 637.0, 636.0, 636.0, 637.0, 637.0, 637.0, 638.0, 638.0, 637.0, 637.0, 636.0, 636.0, 636.0, 637.0, 637.0, 638.0, 638.0, 638.0, 637.0, 637.0, 637.0, 638.0, 638.0, 638.0, 639.0, 638.0, 637.0, 637.0, 636.0, 637.0, 637.0, 637.0, 636.0, 637.0, 638.0, 639.0, 639.0, 640.0, 639.0, 639.0, 638.0, 637.0, 636.0, 637.0, 637.0, 637.0, 637.0, 637.0, 638.0, 637.0, 637.0, 637.0, 637.0, 637.0, 637.0, 637.0, 637.0, 637.0, 636.0, 636.0, 636.0, 637.0, 637.0, 638.0, 638.0, 637.0, 636.0, 636.0, 636.0, 636.0, 637.0, 638.0, 637.0, 637.0, 638.0, 638.0, 638.0, 638.0, 638.0, 638.0, 638.0, 637.0, 638.0, 638.0, 637.0, 637.0, 636.0, 638.0, 638.0, 639.0, 639.0, 638.0],
      "WindowWidth": [1369.0, 1363.0, 1360.0, 1359.0, 1355.0, 1356.0, 1354.0, 1353.0, 1353.0, 1352.0, 1352.0, 1353.0, 1353.0, 1353.0, 1355.0, 1357.0, 1358.0, 1357.0, 1358.0, 1356.0, 1354.0, 1353.0, 1350.0, 1351.0, 1350.0, 1351.0, 1351.0, 1350.0, 1351.0, 1353.0, 1353.0, 1353.0, 1353.0, 1352.0, 1351.0, 1351.0, 1351.0, 1352.0, 1353.0, 1353.0, 1354.0, 1352.0, 1351.0, 1351.0, 1350.0, 1351.0, 1353.0, 1353.0, 1354.0, 1354.0, 1354.0, 1353.0, 1352.0, 1352.0, 1354.0, 1355.0, 1355.0, 1355.0, 1354.0, 1353.0, 1351.0, 1351.0, 1353.0, 1352.0, 1353.0, 1351.0, 1353.0, 1354.0, 1356.0, 1357.0, 1358.0, 1358.0, 1357.0, 1354.0, 1352.0, 1350.0, 1352.0, 1352.0, 1353.0, 1353.0, 1353.0, 1354.0, 1353.0, 1353.0, 1353.0, 1353.0, 1353.0, 1353.0, 1352.0, 1352.0, 1352.0, 1351.0, 1351.0, 1350.0, 1353.0, 1354.0, 1355.0, 1354.0, 1352.0, 1351.0, 1351.0, 1350.0, 1351.0, 1353.0, 1354.0, 1353.0, 1353.0, 1354.0, 1354.0, 1354.0, 1354.0, 1355.0, 1355.0, 1355.0, 1353.0, 1355.0, 1354.0, 1352.0, 1352.0, 1351.0, 1354.0, 1356.0, 1357.0, 1356.0, 1354.0]
    },
    "slices": {}
  }
}