{
  "AcquisitionMatrixPE": 88,
  "AcquisitionNumber": 1,
  "AcquisitionTime": "17:59:47.217500",
  "BandwidthPerPixelPhaseEncode": 19.592,
  "BaseResolution": 88,
  "BodyPartExamined": "BRAIN",
  "ConsistencyInfo": "N4_VE11C_LATEST_20160120",
  "ConversionSoftware": "dcm2niix",
  "ConversionSoftwareVersion": "v1.0.20190902",
  "DerivedVendorReportedEchoSpacing": 0.000580014,
  "DeviceSerialNumber": "67050",
  "DwellTime": 2.6e-06,
  "EchoTime": 0.033,
  "EchoTrainLength": 88,
  "EffectiveEchoSpacing": 0.000580014,
  "FlipAngle": 62,
  "ImageOrientationPatientDICOM": [0.999325, -0.0254469, 0.0265036, 0.0223288, 0.993464, 0.111941],
  "ImageType": [
    "ORIGINAL",
    "PRIMARY",
    "M",
    "ND",
    "MOSAIC"
],
  "ImagingFrequency": 123.251,
  "InPlanePhaseEncodingDirectionDICOM": "COL",
  "InstitutionAddress": "Olive_Street_60_Providence_RI_US_02912",
  "InstitutionName": "BROWN_UNIVERSITY_MRF",
  "InstitutionalDepartmentName": "Department",
  "MRAcquisitionType": "2D",
  "MagneticFieldStrength": 3,
  "Manufacturer": "Siemens",
  "ManufacturersModelName": "Prisma_fit",
  "Modality": "MR",
  "MultibandAccelerationFactor": 4,
  "PartialFourier": 1,
  "PatientPosition": "HFS",
  "PercentPhaseFOV": 100,
  "PhaseEncodingDirection": "j-",
  "PhaseEncodingSteps": 88,
  "PhaseResolution": 1,
  "PixelBandwidth": 2185,
  "ProcedureStepDescription": "ASHENHAV_1222",
  "ProtocolName": "func-bold_task-RDMlocalizer_run-02",
  "PulseSequenceDetails": "%SiemensSeq%_ep2d_bold",
  "ReceiveCoilActiveElements": "HC1-7;NC1",
  "ReceiveCoilName": "HeadNeck_64",
  "ReconMatrixPE": 88,
  "RefLinesPE": 8,
  "RepetitionTime": 1.2,
  "SAR": 0.047256,
  "ScanOptions": "FS",
  "ScanningSequence": "EP",
  "SequenceName": "_epfid2d1_88",
  "SequenceVariant": "SK",
  "SeriesDescription": "func-bold_task-RDMlocalizer_run-02",
  "SeriesNumber": 20,
  "ShimSetting": [1761, -9114, 4397, 535, -68, -271, 87, 24],
  "SliceThickness": 2.4,
  "SliceTiming": [0.55, 0, 0.6275, 0.0775, 0.7075, 0.1575, 0.785, 0.235, 0.865, 0.315, 0.9425, 0.3925, 1.0225, 0.4725, 1.1, 0.55, 0, 0.6275, 0.0775, 0.7075, 0.1575, 0.785, 0.235, 0.865, 0.315, 0.9425, 0.3925, 1.0225, 0.4725, 1.1, 0.55, 0, 0.6275, 0.0775, 0.7075, 0.1575, 0.785, 0.235, 0.865, 0.315, 0.9425, 0.3925, 1.0225, 0.4725, 1.1, 0.55, 0, 0.6275, 0.0775, 0.7075, 0.1575, 0.785, 0.235, 0.865, 0.315, 0.9425, 0.3925, 1.0225, 0.4725, 1.1],
  "SoftwareVersions": "syngo_MR_E11",
  "SpacingBetweenSlices": 2.4,
  "StationName": "AWP67050",
  "TaskName": "RDMlocalizer",
  "TotalReadoutTime": 0.0504612,
  "TxRefAmp": 215.534,
  "dcmmeta_affine": [
    [-2.3961081504821777, 0.05353832617402077, 0.07002954185009003, 104.16842651367188],
    [0.06101468205451965, 2.3820555210113525, 0.26705774664878845, -105.55689239501953],
    [0.0635485127568245, -0.268405020236969, 2.3840672969818115, -57.11881637573242],
    [0.0, 0.0, 0.0, 1.0]
],
  "dcmmeta_reorient_transform": [
    [0.0, -1.0, 0.0, 87.0],
    [1.0, 0.0, 0.0, 0.0],
    [0.0, 0.0, 1.0, 0.0],
    [0.0, 0.0, 0.0, 1.0]
],
  "dcmmeta_shape": [88, 88, 60, 195],
  "dcmmeta_slice_dim": 2,
  "dcmmeta_version": 0.6,
  "global": {
    "const": {
      "AcquisitionMatrix": [88, 0, 0, 88],
      "AngioFlag": "N",
      "BitsAllocated": 16,
      "BitsStored": 12,
      "BodyPartExamined": "BRAIN",
      "Columns": 704,
      "DeidentificationMethodCodeSequence": [
        {
          "CodeMeaning": "XNAT DicomEdit 6 Script",
          "CodeValue": "3",
          "CodingSchemeDesignator": "XNAT",
          "CodingSchemeVersion": "1.0"}
],
      "EchoNumbers": 1,
      "EchoTime": 33.0,
      "EchoTrainLength": 88,
      "FlipAngle": 62.0,
      "HighBit": 11,
      "ImageOrientationPatient": [0.99932477850747, -0.0254468824589, 0.02650364567594, 0.0223287801405, 0.99346391031029, 0.11194143329632],
      "ImagePositionPatient": [-863.31740502474, -816.56250183203, -182.71174319155],
      "ImageType": [
        "ORIGINAL",
        "PRIMARY",
        "M",
        "ND",
        "MOSAIC"
],
      "ImagedNucleus": "1H",
      "ImagingFrequency": 123.250638,
      "InPlanePhaseEncodingDirection": "COL",
      "MRAcquisitionType": "2D",
      "MagneticFieldStrength": 3.0,
      "Manufacturer": "SIEMENS",
      "ManufacturerModelName": "Prisma_fit",
      "Modality": "MR",
      "NumberOfAverages": 1.0,
      "NumberOfPhaseEncodingSteps": 88,
      "PercentPhaseFieldOfView": 100.0,
      "PercentSampling": 100.0,
      "PerformedProcedureStepStartTime": "162751.543000",
      "PhotometricInterpretation": "MONOCHROME2",
      "PixelBandwidth": 2185.0,
      "PixelRepresentation": 0,
      "PixelSpacing": [2.3977272510529, 2.3977272510529],
      "ProtocolName": "func-bold_task-RDMlocalizer_run-02",
      "RepetitionTime": 1200.0,
      "Rows": 704,
      "SAR": 0.04725602280193,
      "SamplesPerPixel": 1,
      "ScanOptions": "FS",
      "ScanningSequence": "EP",
      "SequenceName": "*epfid2d1_88",
      "SequenceVariant": "SK",
      "SeriesDescription": "func-bold_task-RDMlocalizer_run-02",
      "SeriesNumber": 20,
      "SeriesTime": "180023.874000",
      "SliceLocation": -65.445837035707,
      "SliceThickness": 2.4000000953674,
      "SmallestImagePixelValue": 0,
      "SoftwareVersions": "syngo MR E11",
      "SpacingBetweenSlices": 2.4000000919008,
      "SpecificCharacterSet": "ISO_IR 100",
      "StudyID": "1",
      "StudyTime": "162751.463000",
      "TransmitCoilName": "Body",
      "VariableFlipAngleFlag": "N",
      "WindowCenterWidthExplanation": "Algo1",
      "dBdt": 0.0},
    "slices": {}
  },
  "time": {
    "samples": {
      "AcquisitionNumber": [1, 2, 3, 4, 5, 6, 7, 8, 9, 10, 11, 12, 13, 14, 15, 16, 17, 18, 19, 20, 21, 22, 23, 24, 25, 26, 27, 28, 29, 30, 31, 32, 33, 34, 35, 36, 37, 38, 39, 40, 41, 42, 43, 44, 45, 46, 47, 48, 49, 50, 51, 52, 53, 54, 55, 56, 57, 58, 59, 60, 61, 62, 63, 64, 65, 66, 67, 68, 69, 70, 71, 72, 73, 74, 75, 76, 77, 78, 79, 80, 81, 82, 83, 84, 85, 86, 87, 88, 89, 90, 91, 92, 93, 94, 95, 96, 97, 98, 99, 100, 101, 102, 103, 104, 105, 106, 107, 108, 109, 110, 111, 112, 113, 114, 115, 116, 117, 118, 119, 120, 121, 122, 123, 124, 125, 126, 127, 128, 129, 130, 131, 132, 133, 134, 135, 136, 137, 138, 139, 140, 141, 142, 143, 144, 145, 146, 147, 148, 149, 150, 151, 152, 153, 154, 155, 156, 157, 158, 159, 160, 161, 162, 163, 164, 165, 166, 167, 168, 169, 170, 171, 172, 173, 174, 175, 176, 177, 178, 179, 180, 181, 182, 183, 184, 185, 186, 187, 188, 189, 190, 191, 192, 193, 194, 195],
      "AcquisitionTime": ["175947.217500", "175948.417500", "175949.617500", "175950.817500", "175952.017500", "175953.217500", "175954.417500", "175955.617500", "175956.817500", "175958.017500", "175959.217500", "180000.417500", "180001.617500", "180002.817500", "180004.017500", "180005.217500", "180006.417500", "180007.617500", "180008.817500", "180010.017500", "180011.217500", "180012.417500", "180013.617500", "180014.817500", "180016.017500", "180017.217500", "180018.417500", "180019.617500", "180020.817500", "180022.017500", "180023.217500", "180024.417500", "180025.617500", "180026.817500", "180028.017500", "180029.217500", "180030.417500", "180031.617500", "180032.817500", "180034.017500", "180035.217500", "180036.417500", "180037.617500", "180038.817500", "180040.017500", "180041.217500", "180042.417500", "180043.617500", "180044.817500", "180046.017500", "180047.217500", "180048.417500", "180049.617500", "180050.817500", "180052.017500", "180053.217500", "180054.417500", "180055.617500", "180056.817500", "180058.017500", "180059.217500", "180100.417500", "180101.617500", "180102.817500", "180104.017500", "180105.217500", "180106.417500", "180107.617500", "180108.817500", "180110.017500", "180111.217500", "180112.417500", "180113.617500", "180114.817500", "180116.017500", "180117.217500", "180118.417500", "180119.617500", "180120.817500", "180122.017500", "180123.217500", "180124.417500", "180125.617500", "180126.817500", "180128.017500", "180129.217500", "180130.417500", "180131.617500", "180132.817500", "180134.017500", "180135.217500", "180136.417500", "180137.617500", "180138.817500", "180140.017500", "180141.217500", "180142.417500", "180143.617500", "180144.817500", "180146.017500", "180147.217500", "180148.417500", "180149.617500", "180150.817500", "180152.017500", "180153.217500", "180154.417500", "180155.617500", "180156.817500", "180158.017500", "180159.217500", "180200.417500", "180201.617500", "180202.817500", "180204.017500", "180205.217500", "180206.417500", "180207.617500", "180208.817500", "180210.017500", "180211.217500", "180212.417500", "180213.617500", "180214.817500", "180216.017500", "180217.217500", "180218.417500", "180219.617500", "180220.817500", "180222.017500", "180223.217500", "180224.417500", "180225.617500", "180226.817500", "180228.017500", "180229.217500", "180230.417500", "180231.617500", "180232.817500", "180234.017500", "180235.217500", "180236.417500", "180237.617500", "180238.817500", "180240.017500", "180241.217500", "180242.417500", "180243.617500", "180244.817500", "180246.017500", "180247.217500", "180248.417500", "180249.617500", "180250.817500", "180252.017500", "180253.217500", "180254.417500", "180255.617500", "180256.817500", "180258.017500", "180259.217500", "180300.417500", "180301.617500", "180302.817500", "180304.017500", "180305.217500", "180306.417500", "180307.617500", "180308.817500", "180310.017500", "180311.217500", "180312.417500", "180313.617500", "180314.817500", "180316.017500", "180317.217500", "180318.417500", "180319.617500", "180320.817500", "180322.017500", "180323.217500", "180324.417500", "180325.617500", "180326.817500", "180328.017500", "180329.217500", "180330.417500", "180331.617500", "180332.817500", "180334.017500", "180335.217500", "180336.417500", "180337.617500", "180338.817500", "180340.017500"],
      "ContentTime": ["180023.878000", "180023.881000", "180023.883000", "180023.891000", "180023.893000", "180023.896000", "180023.898000", "180023.901000", "180023.903000", "180023.911000", "180023.913000", "180023.917000", "180023.920000", "180023.922000", "180023.925000", "180023.927000", "180023.930000", "180023.932000", "180023.935000", "180023.938000", "180023.945000", "180023.948000", "180023.950000", "180023.953000", "180023.955000", "180023.958000", "180023.960000", "180023.963000", "180023.965000", "180023.968000", "180103.873000", "180103.876000", "180103.879000", "180103.881000", "180103.884000", "180103.886000", "180103.889000", "180103.891000", "180103.894000", "180103.897000", "180103.899000", "180103.902000", "180103.905000", "180103.908000", "180103.910000", "180103.926000", "180103.929000", "180103.931000", "180103.934000", "180103.937000", "180103.939000", "180103.942000", "180103.944000", "180103.947000", "180103.949000", "180103.952000", "180103.955000", "180103.957000", "180103.960000", "180103.962000", "180103.965000", "180103.967000", "180103.970000", "180143.875000", "180143.877000", "180143.880000", "180143.883000", "180143.885000", "180143.888000", "180143.890000", "180143.893000", "180143.895000", "180143.898000", "180143.900000", "180143.903000", "180143.905000", "180143.908000", "180143.910000", "180143.924000", "180143.926000", "180143.929000", "180143.931000", "180143.934000", "180143.936000", "180143.939000", "180143.941000", "180143.944000", "180143.947000", "180143.955000", "180143.957000", "180143.960000", "180143.962000", "180143.965000", "180143.967000", "180143.970000", "180143.972000", "180143.975000", "180223.873000", "180223.876000", "180223.879000", "180223.881000", "180223.884000", "180223.887000", "180223.889000", "180223.892000", "180223.894000", "180223.897000", "180223.899000", "180223.902000", "180223.905000", "180223.907000", "180223.910000", "180223.912000", "180223.920000", "180223.923000", "180223.925000", "180223.928000", "180223.931000", "180223.933000", "180223.936000", "180223.938000", "180223.941000", "180223.944000", "180223.946000", "180223.949000", "180223.951000", "180223.954000", "180223.957000", "180223.959000", "180223.962000", "180303.874000", "180303.876000", "180303.879000", "180303.882000", "180303.884000", "180303.887000", "180303.889000", "180303.892000", "180303.894000", "180303.897000", "180303.899000", "180303.902000", "180303.904000", "180303.907000", "180303.910000", "180303.913000", "180303.916000", "180303.919000", "180303.923000", "180303.925000", "180303.928000", "180303.931000", "180303.933000", "180303.936000", "180303.938000", "180303.941000", "180303.944000", "180303.946000", "180303.949000", "180303.951000", "180303.954000", "180303.957000", "180303.959000", "180341.135000", "180341.138000", "180341.141000", "180341.143000", "180341.146000", "180341.149000", "180341.151000", "180341.154000", "180341.157000", "180341.159000", "180341.162000", "180341.164000", "180341.167000", "180341.170000", "180341.172000", "180341.175000", "180341.177000", "180341.180000", "180341.183000", "180341.185000", "180341.190000", "180341.193000", "180341.196000", "180341.204000", "180341.207000", "180341.210000", "180341.212000", "180341.215000", "180341.218000", "180341.222000", "180341.224000", "180341.227000"],
      "InstanceCreationTime": ["180023.878000", "180023.881000", "180023.883000", "180023.891000", "180023.893000", "180023.896000", "180023.898000", "180023.901000", "180023.903000", "180023.911000", "180023.913000", "180023.917000", "180023.920000", "180023.922000", "180023.925000", "180023.927000", "180023.930000", "180023.932000", "180023.935000", "180023.938000", "180023.945000", "180023.948000", "180023.950000", "180023.953000", "180023.955000", "180023.958000", "180023.960000", "180023.963000", "180023.965000", "180023.968000", "180103.873000", "180103.876000", "180103.879000", "180103.881000", "180103.884000", "180103.886000", "180103.889000", "180103.891000", "180103.894000", "180103.897000", "180103.899000", "180103.902000", "180103.905000", "180103.908000", "180103.910000", "180103.926000", "180103.929000", "180103.931000", "180103.934000", "180103.937000", "180103.939000", "180103.942000", "180103.944000", "180103.947000", "180103.949000", "180103.952000", "180103.955000", "180103.957000", "180103.960000", "180103.962000", "180103.965000", "180103.967000", "180103.970000", "180143.875000", "180143.877000", "180143.880000", "180143.883000", "180143.885000", "180143.888000", "180143.890000", "180143.893000", "180143.895000", "180143.898000", "180143.900000", "180143.903000", "180143.905000", "180143.908000", "180143.910000", "180143.924000", "180143.926000", "180143.929000", "180143.931000", "180143.934000", "180143.936000", "180143.939000", "180143.941000", "180143.944000", "180143.947000", "180143.955000", "180143.957000", "180143.960000", "180143.962000", "180143.965000", "180143.967000", "180143.970000", "180143.972000", "180143.975000", "180223.873000", "180223.876000", "180223.879000", "180223.881000", "180223.884000", "180223.887000", "180223.889000", "180223.892000", "180223.894000", "180223.897000", "180223.899000", "180223.902000", "180223.905000", "180223.907000", "180223.910000", "180223.912000", "180223.920000", "180223.923000", "180223.925000", "180223.928000", "180223.931000", "180223.933000", "180223.936000", "180223.938000", "180223.941000", "180223.944000", "180223.946000", "180223.949000", "180223.951000", "180223.954000", "180223.957000", "180223.959000", "180223.962000", "180303.874000", "180303.876000", "180303.879000", "180303.882000", "180303.884000", "180303.887000", "180303.889000", "180303.892000", "180303.894000", "180303.897000", "180303.899000", "180303.902000", "180303.904000", "180303.907000", "180303.910000", "180303.913000", "180303.916000", "180303.919000", "180303.923000", "180303.925000", "180303.928000", "180303.931000", "180303.933000", "180303.936000", "180303.938000", "180303.941000", "180303.944000", "180303.946000", "180303.949000", "180303.951000", "180303.954000", "180303.957000", "180303.959000", "180341.135000", "180341.138000", "180341.141000", "180341.143000", "180341.146000", "180341.149000", "180341.151000", "180341.154000", "180341.157000", "180341.159000", "180341.162000", "180341.164000", "180341.167000", "180341.170000", "180341.172000", "180341.175000", "180341.177000", "180341.180000", "180341.183000", "180341.185000", "180341.190000", "180341.193000", "180341.196000", "180341.204000", "180341.207000", "180341.210000", "180341.212000", "180341.215000", "180341.218000", "180341.222000", "180341.224000", "180341.227000"],
      "InstanceNumber": [1, 2, 3, 4, 5, 6, 7, 8, 9, 10, 11, 12, 13, 14, 15, 16, 17, 18, 19, 20, 21, 22, 23, 24, 25, 26, 27, 28, 29, 30, 31, 32, 33, 34, 35, 36, 37, 38, 39, 40, 41, 42, 43, 44, 45, 46, 47, 48, 49, 50, 51, 52, 53, 54, 55, 56, 57, 58, 59, 60, 61, 62, 63, 64, 65, 66, 67, 68, 69, 70, 71, 72, 73, 74, 75, 76, 77, 78, 79, 80, 81, 82, 83, 84, 85, 86, 87, 88, 89, 90, 91, 92, 93, 94, 95, 96, 97, 98, 99, 100, 101, 102, 103, 104, 105, 106, 107, 108, 109, 110, 111, 112, 113, 114, 115, 116, 117, 118, 119, 120, 121, 122, 123, 124, 125, 126, 127, 128, 129, 130, 131, 132, 133, 134, 135, 136, 137, 138, 139, 140, 141, 142, 143, 144, 145, 146, 147, 148, 149, 150, 151, 152, 153, 154, 155, 156, 157, 158, 159, 160, 161, 162, 163, 164, 165, 166, 167, 168, 169, 170, 171, 172, 173, 174, 175, 176, 177, 178, 179, 180, 181, 182, 183, 184, 185, 186, 187, 188, 189, 190, 191, 192, 193, 194, 195],
      "LargestImagePixelValue": [1645, 1538, 1702, 1613, 1544, 1506, 1509, 1635, 1550, 1586, 1721, 1588, 1569, 1722, 1555, 1677, 1787, 1542, 1538, 1522, 1669, 1517, 1506, 1593, 1533, 1575, 1747, 1508, 1514, 1566, 1644, 1528, 1515, 1564, 1551, 1542, 1615, 1539, 1587, 1682, 1514, 1674, 1557, 1536, 1714, 1537, 1546, 1677, 1547, 1723, 1642, 1667, 1518, 1524, 1626, 1614, 1550, 1589, 1565, 1614, 1534, 1607, 1639, 1573, 1564, 1608, 1686, 1614, 1613, 1556, 1662, 1535, 1562, 1670, 1534, 1646, 1573, 1577, 1653, 1508, 1565, 1522, 1525, 1646, 1511, 1681, 1567, 1783, 1671, 1559, 1664, 1620, 1510, 1526, 1704, 1594, 1562, 1553, 1609, 1518, 1674, 1690, 1511, 1620, 1640, 1533, 1735, 1627, 1522, 1515, 1652, 1557, 1586, 1698, 1558, 1736, 1578, 1723, 1548, 1564, 1525, 1572, 1568, 1545, 1654, 1574, 1720, 1573, 1597, 1717, 1607, 1793, 1558, 1695, 1530, 1537, 1548, 1549, 1520, 1700, 1549, 1588, 1571, 1547, 1504, 1692, 1570, 1691, 1513, 1571, 1624, 1502, 1506, 1496, 1532, 1501, 1652, 1536, 1594, 1579, 1619, 1545, 1660, 1516, 1835, 1799, 1522, 1539, 1520, 1646, 1707, 1595, 1668, 1536, 1669, 1695, 1530, 1706, 1681, 1832, 1511, 1853, 1533, 1643, 1741, 1528, 1765, 1559, 1713, 1783, 1654, 1675, 1476, 1707, 1476],
      "WindowCenter": [539.0, 536.0, 538.0, 535.0, 534.0, 533.0, 533.0, 536.0, 535.0, 537.0, 539.0, 537.0, 536.0, 538.0, 536.0, 537.0, 539.0, 535.0, 534.0, 534.0, 536.0, 533.0, 533.0, 535.0, 534.0, 536.0, 537.0, 533.0, 533.0, 533.0, 534.0, 532.0, 533.0, 533.0, 534.0, 534.0, 535.0, 535.0, 535.0, 536.0, 534.0, 536.0, 534.0, 534.0, 536.0, 535.0, 535.0, 537.0, 535.0, 537.0, 536.0, 536.0, 534.0, 534.0, 534.0, 535.0, 534.0, 534.0, 534.0, 536.0, 534.0, 534.0, 534.0, 534.0, 534.0, 535.0, 536.0, 535.0, 535.0, 534.0, 535.0, 534.0, 535.0, 536.0, 535.0, 536.0, 535.0, 535.0, 535.0, 534.0, 534.0, 534.0, 534.0, 535.0, 533.0, 537.0, 535.0, 538.0, 537.0, 536.0, 537.0, 536.0, 533.0, 532.0, 535.0, 534.0, 534.0, 534.0, 535.0, 533.0, 535.0, 536.0, 534.0, 535.0, 535.0, 533.0, 536.0, 536.0, 533.0, 532.0, 536.0, 535.0, 535.0, 538.0, 535.0, 537.0, 535.0, 536.0, 534.0, 534.0, 533.0, 534.0, 534.0, 534.0, 537.0, 535.0, 537.0, 536.0, 535.0, 538.0, 536.0, 539.0, 534.0, 536.0, 533.0, 533.0, 533.0, 533.0, 533.0, 537.0, 534.0, 535.0, 534.0, 532.0, 533.0, 537.0, 535.0, 537.0, 533.0, 533.0, 534.0, 532.0, 531.0, 531.0, 532.0, 531.0, 535.0, 533.0, 534.0, 535.0, 536.0, 534.0, 537.0, 535.0, 540.0, 539.0, 534.0, 533.0, 533.0, 535.0, 536.0, 534.0, 536.0, 535.0, 537.0, 537.0, 533.0, 535.0, 536.0, 539.0, 534.0, 539.0, 534.0, 535.0, 537.0, 535.0, 539.0, 536.0, 538.0, 539.0, 536.0, 535.0, 532.0, 536.0, 533.0],
      "WindowWidth": [1141.0, 1136.0, 1137.0, 1133.0, 1131.0, 1130.0, 1130.0, 1135.0, 1134.0, 1137.0, 1140.0, 1138.0, 1136.0, 1139.0, 1135.0, 1138.0, 1141.0, 1133.0, 1133.0, 1132.0, 1134.0, 1130.0, 1129.0, 1132.0, 1132.0, 1135.0, 1137.0, 1129.0, 1131.0, 1130.0, 1131.0, 1129.0, 1129.0, 1130.0, 1132.0, 1132.0, 1134.0, 1133.0, 1133.0, 1134.0, 1131.0, 1134.0, 1132.0, 1131.0, 1135.0, 1134.0, 1134.0, 1137.0, 1133.0, 1136.0, 1136.0, 1136.0, 1131.0, 1131.0, 1132.0, 1132.0, 1133.0, 1132.0, 1131.0, 1135.0, 1132.0, 1131.0, 1131.0, 1131.0, 1131.0, 1132.0, 1135.0, 1133.0, 1133.0, 1131.0, 1133.0, 1133.0, 1133.0, 1135.0, 1134.0, 1135.0, 1133.0, 1133.0, 1132.0, 1131.0, 1132.0, 1131.0, 1132.0, 1133.0, 1130.0, 1136.0, 1134.0, 1138.0, 1136.0, 1135.0, 1136.0, 1134.0, 1130.0, 1127.0, 1132.0, 1132.0, 1131.0, 1132.0, 1133.0, 1130.0, 1133.0, 1135.0, 1132.0, 1133.0, 1133.0, 1129.0, 1135.0, 1134.0, 1130.0, 1128.0, 1135.0, 1133.0, 1133.0, 1138.0, 1133.0, 1137.0, 1134.0, 1135.0, 1131.0, 1132.0, 1130.0, 1132.0, 1131.0, 1132.0, 1137.0, 1133.0, 1138.0, 1135.0, 1134.0, 1139.0, 1136.0, 1140.0, 1132.0, 1134.0, 1130.0, 1129.0, 1129.0, 1130.0, 1129.0, 1136.0, 1132.0, 1133.0, 1131.0, 1128.0, 1130.0, 1137.0, 1133.0, 1136.0, 1129.0, 1129.0, 1130.0, 1128.0, 1126.0, 1126.0, 1128.0, 1127.0, 1133.0, 1130.0, 1132.0, 1135.0, 1135.0, 1132.0, 1136.0, 1135.0, 1142.0, 1140.0, 1131.0, 1129.0, 1129.0, 1134.0, 1135.0, 1132.0, 1134.0, 1134.0, 1137.0, 1136.0, 1130.0, 1134.0, 1135.0, 1140.0, 1132.0, 1140.0, 1132.0, 1134.0, 1137.0, 1134.0, 1141.0, 1136.0, 1139.0, 1140.0, 1134.0, 1132.0, 1128.0, 1134.0, 1130.0]
    },
    "slices": {}
  }
}