{
  "AcquisitionMatrixPE": 88,
  "AcquisitionNumber": 1,
  "AcquisitionTime": "15:35:59.350000",
  "BandwidthPerPixelPhaseEncode": 19.592,
  "BaseResolution": 88,
  "BodyPartExamined": "BRAIN",
  "ConsistencyInfo": "N4_VE11C_LATEST_20160120",
  "ConversionSoftware": "dcm2niix",
  "ConversionSoftwareVersion": "v1.0.20190902",
  "DerivedVendorReportedEchoSpacing": 0.000580014,
  "DeviceSerialNumber": "67050",
  "DwellTime": 2.6e-06,
  "EchoTime": 0.033,
  "EchoTrainLength": 88,
  "EffectiveEchoSpacing": 0.000580014,
  "FlipAngle": 62,
  "ImageOrientationPatientDICOM": [0.999658, -0.00406811, 0.0258422, 0.0041874, 0.999981, -0.0045636],
  "ImageType": [
    "ORIGINAL",
    "PRIMARY",
    "M",
    "ND",
    "MOSAIC"
],
  "ImagingFrequency": 123.251,
  "InPlanePhaseEncodingDirectionDICOM": "COL",
  "InstitutionAddress": "Olive_Street_60_Providence_RI_US_02912",
  "InstitutionName": "BROWN_UNIVERSITY_MRF",
  "InstitutionalDepartmentName": "Department",
  "MRAcquisitionType": "2D",
  "MagneticFieldStrength": 3,
  "Manufacturer": "Siemens",
  "ManufacturersModelName": "Prisma_fit",
  "Modality": "MR",
  "MultibandAccelerationFactor": 4,
  "PartialFourier": 1,
  "PatientPosition": "HFS",
  "PercentPhaseFOV": 100,
  "PhaseEncodingDirection": "j-",
  "PhaseEncodingSteps": 88,
  "PhaseResolution": 1,
  "PixelBandwidth": 2185,
  "ProcedureStepDescription": "ASHENHAV_1222",
  "ProtocolName": "func-bold_task-RDMcolor_run-04",
  "PulseSequenceDetails": "%SiemensSeq%_ep2d_bold",
  "ReceiveCoilActiveElements": "HC1-7",
  "ReceiveCoilName": "HeadNeck_64",
  "ReconMatrixPE": 88,
  "RefLinesPE": 8,
  "RepetitionTime": 1.2,
  "SAR": 0.0485024,
  "ScanOptions": "FS",
  "ScanningSequence": "EP",
  "SequenceName": "_epfid2d1_88",
  "SequenceVariant": "SK",
  "SeriesDescription": "func-bold_task-RDMcolor_run-04",
  "SeriesNumber": 14,
  "ShimSetting": [1768, -9114, 4433, 519, -29, -230, 4, 0],
  "SliceThickness": 2.4,
  "SliceTiming": [0.55, 0, 0.6275, 0.0775, 0.7075, 0.1575, 0.785, 0.235, 0.865, 0.3125, 0.9425, 0.3925, 1.0225, 0.47, 1.1, 0.55, 0, 0.6275, 0.0775, 0.7075, 0.1575, 0.785, 0.235, 0.865, 0.3125, 0.9425, 0.3925, 1.0225, 0.47, 1.1, 0.55, 0, 0.6275, 0.0775, 0.7075, 0.1575, 0.785, 0.235, 0.865, 0.3125, 0.9425, 0.3925, 1.0225, 0.47, 1.1, 0.55, 0, 0.6275, 0.0775, 0.7075, 0.1575, 0.785, 0.235, 0.865, 0.3125, 0.9425, 0.3925, 1.0225, 0.47, 1.1],
  "SoftwareVersions": "syngo_MR_E11",
  "SpacingBetweenSlices": 2.4,
  "StationName": "AWP67050",
  "TaskName": "RDMcolor",
  "TotalReadoutTime": 0.0504612,
  "TxRefAmp": 219.229,
  "dcmmeta_affine": [
    [-2.396906614303589, 0.010040231980383396, 0.06197550147771835, 104.0329818725586],
    [0.009754210710525513, 2.39768123626709, -0.01120859757065773, -100.57337951660156],
    [0.061962515115737915, 0.010942266322672367, 2.3991734981536865, -56.580989837646484],
    [0.0, 0.0, 0.0, 1.0]
],
  "dcmmeta_reorient_transform": [
    [0.0, -1.0, 0.0, 87.0],
    [1.0, 0.0, 0.0, 0.0],
    [0.0, 0.0, 1.0, 0.0],
    [0.0, 0.0, 0.0, 1.0]
],
  "dcmmeta_shape": [88, 88, 60, 392],
  "dcmmeta_slice_dim": 2,
  "dcmmeta_version": 0.6,
  "global": {
    "const": {
      "AcquisitionMatrix": [88, 0, 0, 88],
      "AngioFlag": "N",
      "BitsAllocated": 16,
      "BitsStored": 12,
      "BodyPartExamined": "BRAIN",
      "Columns": 704,
      "DeidentificationMethodCodeSequence": [
        {
          "CodeMeaning": "XNAT DicomEdit 6 Script",
          "CodeValue": "3",
          "CodingSchemeDesignator": "XNAT",
          "CodingSchemeVersion": "1.0"}
],
      "EchoNumbers": 1,
      "EchoTime": 33.0,
      "EchoTrainLength": 88,
      "FlipAngle": 62.0,
      "HighBit": 11,
      "ImageOrientationPatient": [0.9996577573688, -0.0040681067745, 0.02584218720729, 0.00418739523859, 0.99998081945733, -0.0045635992983],
      "ImagePositionPatient": [-846.2461236264, -843.50642141628, -71.34324897397],
      "ImageType": [
        "ORIGINAL",
        "PRIMARY",
        "M",
        "ND",
        "MOSAIC"
],
      "ImagedNucleus": "1H",
      "ImagingFrequency": 123.250735,
      "InPlanePhaseEncodingDirection": "COL",
      "MRAcquisitionType": "2D",
      "MagneticFieldStrength": 3.0,
      "Manufacturer": "SIEMENS",
      "ManufacturerModelName": "Prisma_fit",
      "Modality": "MR",
      "NumberOfAverages": 1.0,
      "NumberOfPhaseEncodingSteps": 88,
      "PercentPhaseFieldOfView": 100.0,
      "PercentSampling": 100.0,
      "PerformedProcedureStepStartTime": "144005.217000",
      "PhotometricInterpretation": "MONOCHROME2",
      "PixelBandwidth": 2185.0,
      "PixelRepresentation": 0,
      "PixelSpacing": [2.3977272510529, 2.3977272510529],
      "ProtocolName": "func-bold_task-RDMcolor_run-04",
      "RepetitionTime": 1200.0,
      "Rows": 704,
      "SAR": 0.04850238200254,
      "SamplesPerPixel": 1,
      "ScanOptions": "FS",
      "ScanningSequence": "EP",
      "SequenceName": "*epfid2d1_88",
      "SequenceVariant": "SK",
      "SeriesDescription": "func-bold_task-RDMcolor_run-04",
      "SeriesNumber": 14,
      "SeriesTime": "153631.935000",
      "SliceLocation": -53.405344027115,
      "SliceThickness": 2.4000000953674,
      "SmallestImagePixelValue": 0,
      "SoftwareVersions": "syngo MR E11",
      "SpacingBetweenSlices": 2.3999999943822,
      "SpecificCharacterSet": "ISO_IR 100",
      "StudyID": "1",
      "StudyTime": "144005.085000",
      "TransmitCoilName": "Body",
      "VariableFlipAngleFlag": "N",
      "WindowCenterWidthExplanation": "Algo1",
      "dBdt": 0.0},
    "slices": {}
  },
  "time": {
    "samples": {
      "AcquisitionNumber": [1, 2, 3, 4, 5, 6, 7, 8, 9, 10, 11, 12, 13, 14, 15, 16, 17, 18, 19, 20, 21, 22, 23, 24, 25, 26, 27, 28, 29, 30, 31, 32, 33, 34, 35, 36, 37, 38, 39, 40, 41, 42, 43, 44, 45, 46, 47, 48, 49, 50, 51, 52, 53, 54, 55, 56, 57, 58, 59, 60, 61, 62, 63, 64, 65, 66, 67, 68, 69, 70, 71, 72, 73, 74, 75, 76, 77, 78, 79, 80, 81, 82, 83, 84, 85, 86, 87, 88, 89, 90, 91, 92, 93, 94, 95, 96, 97, 98, 99, 100, 101, 102, 103, 104, 105, 106, 107, 108, 109, 110, 111, 112, 113, 114, 115, 116, 117, 118, 119, 120, 121, 122, 123, 124, 125, 126, 127, 128, 129, 130, 131, 132, 133, 134, 135, 136, 137, 138, 139, 140, 141, 142, 143, 144, 145, 146, 147, 148, 149, 150, 151, 152, 153, 154, 155, 156, 157, 158, 159, 160, 161, 162, 163, 164, 165, 166, 167, 168, 169, 170, 171, 172, 173, 174, 175, 176, 177, 178, 179, 180, 181, 182, 183, 184, 185, 186, 187, 188, 189, 190, 191, 192, 193, 194, 195, 196, 197, 198, 199, 200, 201, 202, 203, 204, 205, 206, 207, 208, 209, 210, 211, 212, 213, 214, 215, 216, 217, 218, 219, 220, 221, 222, 223, 224, 225, 226, 227, 228, 229, 230, 231, 232, 233, 234, 235, 236, 237, 238, 239, 240, 241, 242, 243, 244, 245, 246, 247, 248, 249, 250, 251, 252, 253, 254, 255, 256, 257, 258, 259, 260, 261, 262, 263, 264, 265, 266, 267, 268, 269, 270, 271, 272, 273, 274, 275, 276, 277, 278, 279, 280, 281, 282, 283, 284, 285, 286, 287, 288, 289, 290, 291, 292, 293, 294, 295, 296, 297, 298, 299, 300, 301, 302, 303, 304, 305, 306, 307, 308, 309, 310, 311, 312, 313, 314, 315, 316, 317, 318, 319, 320, 321, 322, 323, 324, 325, 326, 327, 328, 329, 330, 331, 332, 333, 334, 335, 336, 337, 338, 339, 340, 341, 342, 343, 344, 345, 346, 347, 348, 349, 350, 351, 352, 353, 354, 355, 356, 357, 358, 359, 360, 361, 362, 363, 364, 365, 366, 367, 368, 369, 370, 371, 372, 373, 374, 375, 376, 377, 378, 379, 380, 381, 382, 383, 384, 385, 386, 387, 388, 389, 390, 391, 392],
      "AcquisitionTime": ["153559.350000", "153600.550000", "153601.750000", "153602.950000", "153604.150000", "153605.350000", "153606.550000", "153607.750000", "153608.950000", "153610.150000", "153611.350000", "153612.550000", "153613.750000", "153614.950000", "153616.150000", "153617.350000", "153618.550000", "153619.750000", "153620.950000", "153622.150000", "153623.350000", "153624.550000", "153625.750000", "153626.950000", "153628.150000", "153629.350000", "153630.550000", "153631.750000", "153632.950000", "153634.150000", "153635.350000", "153636.550000", "153637.750000", "153638.950000", "153640.150000", "153641.350000", "153642.550000", "153643.750000", "153644.950000", "153646.150000", "153647.350000", "153648.550000", "153649.750000", "153650.950000", "153652.150000", "153653.350000", "153654.550000", "153655.750000", "153656.950000", "153658.150000", "153659.350000", "153700.550000", "153701.750000", "153702.950000", "153704.150000", "153705.350000", "153706.550000", "153707.750000", "153708.950000", "153710.150000", "153711.350000", "153712.550000", "153713.750000", "153714.950000", "153716.150000", "153717.350000", "153718.550000", "153719.750000", "153720.950000", "153722.150000", "153723.350000", "153724.550000", "153725.750000", "153726.950000", "153728.150000", "153729.350000", "153730.550000", "153731.750000", "153732.950000", "153734.150000", "153735.350000", "153736.550000", "153737.750000", "153738.950000", "153740.150000", "153741.350000", "153742.550000", "153743.750000", "153744.950000", "153746.150000", "153747.350000", "153748.550000", "153749.750000", "153750.950000", "153752.150000", "153753.350000", "153754.550000", "153755.750000", "153756.950000", "153758.150000", "153759.350000", "153800.550000", "153801.750000", "153802.950000", "153804.150000", "153805.350000", "153806.550000", "153807.750000", "153808.950000", "153810.150000", "153811.350000", "153812.550000", "153813.750000", "153814.950000", "153816.150000", "153817.350000", "153818.550000", "153819.750000", "153820.950000", "153822.150000", "153823.350000", "153824.550000", "153825.750000", "153826.950000", "153828.150000", "153829.350000", "153830.550000", "153831.750000", "153832.950000", "153834.150000", "153835.350000", "153836.550000", "153837.750000", "153838.950000", "153840.150000", "153841.350000", "153842.550000", "153843.750000", "153844.950000", "153846.150000", "153847.350000", "153848.550000", "153849.750000", "153850.950000", "153852.150000", "153853.350000", "153854.550000", "153855.750000", "153856.950000", "153858.150000", "153859.350000", "153900.550000", "153901.750000", "153902.950000", "153904.150000", "153905.350000", "153906.550000", "153907.750000", "153908.950000", "153910.150000", "153911.350000", "153912.550000", "153913.750000", "153914.950000", "153916.150000", "153917.350000", "153918.550000", "153919.750000", "153920.950000", "153922.150000", "153923.350000", "153924.550000", "153925.750000", "153926.950000", "153928.150000", "153929.350000", "153930.550000", "153931.750000", "153932.950000", "153934.150000", "153935.350000", "153936.550000", "153937.750000", "153938.950000", "153940.150000", "153941.350000", "153942.550000", "153943.750000", "153944.950000", "153946.150000", "153947.350000", "153948.550000", "153949.750000", "153950.950000", "153952.150000", "153953.350000", "153954.550000", "153955.750000", "153956.950000", "153958.150000", "153959.350000", "154000.550000", "154001.750000", "154002.950000", "154004.150000", "154005.350000", "154006.550000", "154007.750000", "154008.950000", "154010.150000", "154011.350000", "154012.550000", "154013.750000", "154014.950000", "154016.150000", "154017.350000", "154018.550000", "154019.750000", "154020.950000", "154022.150000", "154023.350000", "154024.550000", "154025.750000", "154026.950000", "154028.150000", "154029.350000", "154030.550000", "154031.750000", "154032.950000", "154034.150000", "154035.350000", "154036.550000", "154037.750000", "154038.950000", "154040.150000", "154041.350000", "154042.550000", "154043.750000", "154044.950000", "154046.150000", "154047.350000", "154048.550000", "154049.750000", "154050.950000", "154052.150000", "154053.350000", "154054.550000", "154055.750000", "154056.950000", "154058.150000", "154059.350000", "154100.550000", "154101.750000", "154102.950000", "154104.150000", "154105.350000", "154106.550000", "154107.750000", "154108.950000", "154110.150000", "154111.350000", "154112.550000", "154113.750000", "154114.950000", "154116.150000", "154117.350000", "154118.550000", "154119.750000", "154120.950000", "154122.150000", "154123.350000", "154124.550000", "154125.750000", "154126.950000", "154128.150000", "154129.350000", "154130.550000", "154131.750000", "154132.950000", "154134.150000", "154135.350000", "154136.550000", "154137.750000", "154138.950000", "154140.150000", "154141.350000", "154142.550000", "154143.750000", "154144.950000", "154146.150000", "154147.350000", "154148.550000", "154149.750000", "154150.950000", "154152.150000", "154153.350000", "154154.550000", "154155.750000", "154156.950000", "154158.150000", "154159.350000", "154200.550000", "154201.750000", "154202.950000", "154204.150000", "154205.350000", "154206.550000", "154207.750000", "154208.950000", "154210.150000", "154211.350000", "154212.550000", "154213.750000", "154214.950000", "154216.150000", "154217.350000", "154218.550000", "154219.750000", "154220.950000", "154222.150000", "154223.350000", "154224.550000", "154225.750000", "154226.950000", "154228.150000", "154229.350000", "154230.550000", "154231.750000", "154232.950000", "154234.150000", "154235.350000", "154236.550000", "154237.750000", "154238.950000", "154240.150000", "154241.350000", "154242.550000", "154243.750000", "154244.950000", "154246.150000", "154247.350000", "154248.550000", "154249.750000", "154250.950000", "154252.150000", "154253.350000", "154254.550000", "154255.750000", "154256.950000", "154258.150000", "154259.350000", "154300.550000", "154301.750000", "154302.950000", "154304.150000", "154305.350000", "154306.550000", "154307.750000", "154308.950000", "154310.150000", "154311.350000", "154312.550000", "154313.750000", "154314.950000", "154316.150000", "154317.350000", "154318.550000", "154319.750000", "154320.950000", "154322.150000", "154323.350000", "154324.550000", "154325.750000", "154326.950000", "154328.150000", "154329.350000", "154330.550000", "154331.750000", "154332.950000", "154334.150000", "154335.350000", "154336.550000", "154337.750000", "154338.950000", "154340.150000", "154341.350000", "154342.550000", "154343.750000", "154344.950000", "154346.150000", "154347.350000", "154348.550000"],
      "ContentTime": ["153631.938000", "153631.952000", "153631.955000", "153631.958000", "153631.964000", "153631.966000", "153631.969000", "153631.972000", "153631.979000", "153631.981000", "153631.984000", "153631.987000", "153631.989000", "153631.992000", "153631.994000", "153631.997000", "153632.001000", "153632.003000", "153632.006000", "153632.008000", "153632.011000", "153632.013000", "153632.016000", "153632.019000", "153632.021000", "153632.024000", "153711.934000", "153711.936000", "153711.939000", "153711.941000", "153711.945000", "153711.947000", "153711.950000", "153711.952000", "153711.955000", "153711.958000", "153711.960000", "153711.963000", "153711.965000", "153711.968000", "153711.970000", "153711.973000", "153711.976000", "153711.978000", "153711.981000", "153711.983000", "153711.986000", "153711.988000", "153711.991000", "153711.993000", "153711.996000", "153712.000000", "153712.002000", "153712.010000", "153712.013000", "153712.016000", "153712.018000", "153712.021000", "153712.024000", "153712.026000", "153751.935000", "153751.937000", "153751.940000", "153751.942000", "153751.945000", "153751.948000", "153751.950000", "153751.953000", "153751.956000", "153751.958000", "153751.961000", "153751.963000", "153751.966000", "153751.969000", "153751.971000", "153751.974000", "153751.976000", "153751.979000", "153751.981000", "153751.984000", "153751.987000", "153751.989000", "153751.992000", "153751.994000", "153751.997000", "153752.000000", "153752.005000", "153752.008000", "153752.011000", "153752.013000", "153752.016000", "153752.018000", "153752.021000", "153831.933000", "153831.936000", "153831.939000", "153831.942000", "153831.944000", "153831.947000", "153831.949000", "153831.952000", "153831.954000", "153831.957000", "153831.960000", "153831.962000", "153831.965000", "153831.968000", "153831.970000", "153831.973000", "153831.975000", "153831.978000", "153831.981000", "153831.983000", "153831.986000", "153831.988000", "153831.991000", "153831.994000", "153831.996000", "153832.000000", "153832.003000", "153832.005000", "153832.008000", "153832.010000", "153832.013000", "153832.015000", "153832.018000", "153911.934000", "153911.936000", "153911.939000", "153911.941000", "153911.944000", "153911.947000", "153911.950000", "153911.952000", "153911.955000", "153911.957000", "153911.960000", "153911.963000", "153911.965000", "153911.968000", "153911.970000", "153911.973000", "153911.976000", "153911.978000", "153911.981000", "153911.983000", "153911.986000", "153911.989000", "153911.991000", "153911.994000", "153911.997000", "153912.000000", "153912.003000", "153912.005000", "153912.008000", "153912.011000", "153912.013000", "153912.028000", "153912.031000", "153912.033000", "153951.934000", "153951.936000", "153951.939000", "153951.941000", "153951.944000", "153951.947000", "153951.949000", "153951.952000", "153951.955000", "153951.957000", "153951.960000", "153951.962000", "153951.965000", "153951.969000", "153951.972000", "153951.975000", "153951.977000", "153951.980000", "153951.983000", "153951.985000", "153951.988000", "153951.991000", "153951.993000", "153951.996000", "153952.000000", "153952.002000", "153952.005000", "153952.007000", "153952.010000", "153952.013000", "153952.015000", "153952.018000", "153952.020000", "154031.934000", "154031.936000", "154031.939000", "154031.941000", "154031.944000", "154031.947000", "154031.949000", "154031.952000", "154031.955000", "154031.957000", "154031.960000", "154031.963000", "154031.965000", "154031.968000", "154031.970000", "154031.973000", "154031.976000", "154031.978000", "154031.981000", "154031.984000", "154031.986000", "154031.989000", "154031.991000", "154031.994000", "154031.997000", "154032.000000", "154032.003000", "154032.005000", "154032.008000", "154032.010000", "154032.013000", "154032.015000", "154032.018000", "154111.934000", "154111.937000", "154111.939000", "154111.942000", "154111.944000", "154111.947000", "154111.950000", "154111.952000", "154111.955000", "154111.958000", "154111.960000", "154111.963000", "154111.965000", "154111.968000", "154111.970000", "154111.973000", "154111.976000", "154111.978000", "154111.981000", "154111.983000", "154111.986000", "154111.989000", "154111.991000", "154111.994000", "154111.996000", "154112.000000", "154112.003000", "154112.006000", "154112.008000", "154112.018000", "154112.020000", "154112.023000", "154112.025000", "154112.028000", "154131.934000", "154131.937000", "154131.939000", "154131.942000", "154131.944000", "154131.947000", "154131.950000", "154131.952000", "154131.955000", "154131.957000", "154131.960000", "154131.963000", "154131.965000", "154131.968000", "154131.971000", "154131.973000", "154211.934000", "154211.936000", "154211.939000", "154211.942000", "154211.944000", "154211.947000", "154211.950000", "154211.953000", "154211.955000", "154211.958000", "154211.961000", "154211.963000", "154211.966000", "154211.969000", "154211.972000", "154211.974000", "154211.977000", "154211.980000", "154211.982000", "154211.985000", "154211.988000", "154211.990000", "154211.993000", "154211.995000", "154211.998000", "154212.002000", "154212.005000", "154212.007000", "154212.010000", "154212.013000", "154212.015000", "154212.018000", "154212.020000", "154251.934000", "154251.936000", "154251.939000", "154251.942000", "154251.944000", "154251.947000", "154251.950000", "154251.952000", "154251.955000", "154251.958000", "154251.960000", "154251.963000", "154251.965000", "154251.968000", "154251.971000", "154251.973000", "154251.976000", "154251.978000", "154251.981000", "154251.984000", "154251.986000", "154251.989000", "154251.992000", "154251.994000", "154251.997000", "154252.000000", "154252.003000", "154252.006000", "154252.008000", "154252.011000", "154252.014000", "154252.016000", "154252.019000", "154252.021000", "154331.933000", "154331.936000", "154331.939000", "154331.942000", "154331.945000", "154331.947000", "154331.950000", "154331.953000", "154331.955000", "154331.958000", "154331.976000", "154331.978000", "154331.981000", "154331.984000", "154331.986000", "154331.989000", "154331.991000", "154331.994000", "154331.997000", "154332.001000", "154332.003000", "154332.006000", "154332.009000", "154332.011000", "154332.014000", "154332.017000", "154332.019000", "154332.022000", "154332.024000", "154332.027000", "154332.030000", "154332.032000", "154332.035000", "154350.328000", "154350.332000", "154350.334000", "154350.337000", "154350.340000", "154350.343000", "154350.345000", "154350.348000", "154350.351000", "154350.353000", "154350.356000", "154350.358000", "154350.361000", "154350.364000", "154350.366000", "154350.369000"],
      "InstanceCreationTime": ["153631.938000", "153631.952000", "153631.955000", "153631.958000", "153631.964000", "153631.966000", "153631.969000", "153631.972000", "153631.979000", "153631.981000", "153631.984000", "153631.987000", "153631.989000", "153631.992000", "153631.994000", "153631.997000", "153632.001000", "153632.003000", "153632.006000", "153632.008000", "153632.011000", "153632.013000", "153632.016000", "153632.019000", "153632.021000", "153632.024000", "153711.934000", "153711.936000", "153711.939000", "153711.941000", "153711.945000", "153711.947000", "153711.950000", "153711.952000", "153711.955000", "153711.958000", "153711.960000", "153711.963000", "153711.965000", "153711.968000", "153711.970000", "153711.973000", "153711.976000", "153711.978000", "153711.981000", "153711.983000", "153711.986000", "153711.988000", "153711.991000", "153711.993000", "153711.996000", "153712.000000", "153712.002000", "153712.010000", "153712.013000", "153712.016000", "153712.018000", "153712.021000", "153712.024000", "153712.026000", "153751.935000", "153751.937000", "153751.940000", "153751.942000", "153751.945000", "153751.948000", "153751.950000", "153751.953000", "153751.956000", "153751.958000", "153751.961000", "153751.963000", "153751.966000", "153751.969000", "153751.971000", "153751.974000", "153751.976000", "153751.979000", "153751.981000", "153751.984000", "153751.987000", "153751.989000", "153751.992000", "153751.994000", "153751.997000", "153752.000000", "153752.005000", "153752.008000", "153752.011000", "153752.013000", "153752.016000", "153752.018000", "153752.021000", "153831.933000", "153831.936000", "153831.939000", "153831.942000", "153831.944000", "153831.947000", "153831.949000", "153831.952000", "153831.954000", "153831.957000", "153831.960000", "153831.962000", "153831.965000", "153831.968000", "153831.970000", "153831.973000", "153831.975000", "153831.978000", "153831.981000", "153831.983000", "153831.986000", "153831.988000", "153831.991000", "153831.994000", "153831.996000", "153832.000000", "153832.003000", "153832.005000", "153832.008000", "153832.010000", "153832.013000", "153832.015000", "153832.018000", "153911.934000", "153911.936000", "153911.939000", "153911.941000", "153911.944000", "153911.947000", "153911.950000", "153911.952000", "153911.955000", "153911.957000", "153911.960000", "153911.963000", "153911.965000", "153911.968000", "153911.970000", "153911.973000", "153911.976000", "153911.978000", "153911.981000", "153911.983000", "153911.986000", "153911.989000", "153911.991000", "153911.994000", "153911.997000", "153912.000000", "153912.003000", "153912.005000", "153912.008000", "153912.011000", "153912.013000", "153912.028000", "153912.031000", "153912.033000", "153951.934000", "153951.936000", "153951.939000", "153951.941000", "153951.944000", "153951.947000", "153951.949000", "153951.952000", "153951.955000", "153951.957000", "153951.960000", "153951.962000", "153951.965000", "153951.969000", "153951.972000", "153951.975000", "153951.977000", "153951.980000", "153951.983000", "153951.985000", "153951.988000", "153951.991000", "153951.993000", "153951.996000", "153952.000000", "153952.002000", "153952.005000", "153952.007000", "153952.010000", "153952.013000", "153952.015000", "153952.018000", "153952.020000", "154031.934000", "154031.936000", "154031.939000", "154031.941000", "154031.944000", "154031.947000", "154031.949000", "154031.952000", "154031.955000", "154031.957000", "154031.960000", "154031.963000", "154031.965000", "154031.968000", "154031.970000", "154031.973000", "154031.976000", "154031.978000", "154031.981000", "154031.984000", "154031.986000", "154031.989000", "154031.991000", "154031.994000", "154031.997000", "154032.000000", "154032.003000", "154032.005000", "154032.008000", "154032.010000", "154032.013000", "154032.015000", "154032.018000", "154111.934000", "154111.937000", "154111.939000", "154111.942000", "154111.944000", "154111.947000", "154111.950000", "154111.952000", "154111.955000", "154111.958000", "154111.960000", "154111.963000", "154111.965000", "154111.968000", "154111.970000", "154111.973000", "154111.976000", "154111.978000", "154111.981000", "154111.983000", "154111.986000", "154111.989000", "154111.991000", "154111.994000", "154111.996000", "154112.000000", "154112.003000", "154112.006000", "154112.008000", "154112.018000", "154112.020000", "154112.023000", "154112.025000", "154112.028000", "154131.934000", "154131.937000", "154131.939000", "154131.942000", "154131.944000", "154131.947000", "154131.950000", "154131.952000", "154131.955000", "154131.957000", "154131.960000", "154131.963000", "154131.965000", "154131.968000", "154131.971000", "154131.973000", "154211.934000", "154211.936000", "154211.939000", "154211.942000", "154211.944000", "154211.947000", "154211.950000", "154211.953000", "154211.955000", "154211.958000", "154211.961000", "154211.963000", "154211.966000", "154211.969000", "154211.972000", "154211.974000", "154211.977000", "154211.980000", "154211.982000", "154211.985000", "154211.988000", "154211.990000", "154211.993000", "154211.995000", "154211.998000", "154212.002000", "154212.005000", "154212.007000", "154212.010000", "154212.013000", "154212.015000", "154212.018000", "154212.020000", "154251.934000", "154251.936000", "154251.939000", "154251.942000", "154251.944000", "154251.947000", "154251.950000", "154251.952000", "154251.955000", "154251.958000", "154251.960000", "154251.963000", "154251.965000", "154251.968000", "154251.971000", "154251.973000", "154251.976000", "154251.978000", "154251.981000", "154251.984000", "154251.986000", "154251.989000", "154251.992000", "154251.994000", "154251.997000", "154252.000000", "154252.003000", "154252.006000", "154252.008000", "154252.011000", "154252.014000", "154252.016000", "154252.019000", "154252.021000", "154331.933000", "154331.936000", "154331.939000", "154331.942000", "154331.945000", "154331.947000", "154331.950000", "154331.953000", "154331.955000", "154331.958000", "154331.976000", "154331.978000", "154331.981000", "154331.984000", "154331.986000", "154331.989000", "154331.991000", "154331.994000", "154331.997000", "154332.001000", "154332.003000", "154332.006000", "154332.009000", "154332.011000", "154332.014000", "154332.017000", "154332.019000", "154332.022000", "154332.024000", "154332.027000", "154332.030000", "154332.032000", "154332.035000", "154350.328000", "154350.332000", "154350.334000", "154350.337000", "154350.340000", "154350.343000", "154350.345000", "154350.348000", "154350.351000", "154350.353000", "154350.356000", "154350.358000", "154350.361000", "154350.364000", "154350.366000", "154350.369000"],
      "InstanceNumber": [1, 2, 3, 4, 5, 6, 7, 8, 9, 10, 11, 12, 13, 14, 15, 16, 17, 18, 19, 20, 21, 22, 23, 24, 25, 26, 27, 28, 29, 30, 31, 32, 33, 34, 35, 36, 37, 38, 39, 40, 41, 42, 43, 44, 45, 46, 47, 48, 49, 50, 51, 52, 53, 54, 55, 56, 57, 58, 59, 60, 61, 62, 63, 64, 65, 66, 67, 68, 69, 70, 71, 72, 73, 74, 75, 76, 77, 78, 79, 80, 81, 82, 83, 84, 85, 86, 87, 88, 89, 90, 91, 92, 93, 94, 95, 96, 97, 98, 99, 100, 101, 102, 103, 104, 105, 106, 107, 108, 109, 110, 111, 112, 113, 114, 115, 116, 117, 118, 119, 120, 121, 122, 123, 124, 125, 126, 127, 128, 129, 130, 131, 132, 133, 134, 135, 136, 137, 138, 139, 140, 141, 142, 143, 144, 145, 146, 147, 148, 149, 150, 151, 152, 153, 154, 155, 156, 157, 158, 159, 160, 161, 162, 163, 164, 165, 166, 167, 168, 169, 170, 171, 172, 173, 174, 175, 176, 177, 178, 179, 180, 181, 182, 183, 184, 185, 186, 187, 188, 189, 190, 191, 192, 193, 194, 195, 196, 197, 198, 199, 200, 201, 202, 203, 204, 205, 206, 207, 208, 209, 210, 211, 212, 213, 214, 215, 216, 217, 218, 219, 220, 221, 222, 223, 224, 225, 226, 227, 228, 229, 230, 231, 232, 233, 234, 235, 236, 237, 238, 239, 240, 241, 242, 243, 244, 245, 246, 247, 248, 249, 250, 251, 252, 253, 254, 255, 256, 257, 258, 259, 260, 261, 262, 263, 264, 265, 266, 267, 268, 269, 270, 271, 272, 273, 274, 275, 276, 277, 278, 279, 280, 281, 282, 283, 284, 285, 286, 287, 288, 289, 290, 291, 292, 293, 294, 295, 296, 297, 298, 299, 300, 301, 302, 303, 304, 305, 306, 307, 308, 309, 310, 311, 312, 313, 314, 315, 316, 317, 318, 319, 320, 321, 322, 323, 324, 325, 326, 327, 328, 329, 330, 331, 332, 333, 334, 335, 336, 337, 338, 339, 340, 341, 342, 343, 344, 345, 346, 347, 348, 349, 350, 351, 352, 353, 354, 355, 356, 357, 358, 359, 360, 361, 362, 363, 364, 365, 366, 367, 368, 369, 370, 371, 372, 373, 374, 375, 376, 377, 378, 379, 380, 381, 382, 383, 384, 385, 386, 387, 388, 389, 390, 391, 392],
