{
  "AcquisitionMatrixPE": 88,
  "AcquisitionNumber": 1,
  "AcquisitionTime": "13:19:14.890000",
  "BandwidthPerPixelPhaseEncode": 19.592,
  "BaseResolution": 88,
  "BodyPartExamined": "BRAIN",
  "ConsistencyInfo": "N4_VE11C_LATEST_20160120",
  "ConversionSoftware": "dcm2niix",
  "ConversionSoftwareVersion": "v1.0.20190902",
  "DerivedVendorReportedEchoSpacing": 0.000580014,
  "DeviceSerialNumber": "67050",
  "DwellTime": 2.6e-06,
  "EchoTime": 0.033,
  "EchoTrainLength": 88,
  "EffectiveEchoSpacing": 0.000580014,
  "FlipAngle": 62,
  "ImageOrientationPatientDICOM": [0.992185, 0.116564, 0.0445073, -0.104633, 0.971625, -0.212124],
  "ImageType": [
    "ORIGINAL",
    "PRIMARY",
    "M",
    "ND",
    "MOSAIC"
],
  "ImagingFrequency": 123.251,
  "InPlanePhaseEncodingDirectionDICOM": "COL",
  "InstitutionAddress": "Olive_Street_60_Providence_RI_US_02912",
  "InstitutionName": "BROWN_UNIVERSITY_MRF",
  "InstitutionalDepartmentName": "Department",
  "MRAcquisitionType": "2D",
  "MagneticFieldStrength": 3,
  "Manufacturer": "Siemens",
  "ManufacturersModelName": "Prisma_fit",
  "Modality": "MR",
  "MultibandAccelerationFactor": 4,
  "PartialFourier": 1,
  "PatientPosition": "HFS",
  "PercentPhaseFOV": 100,
  "PhaseEncodingDirection": "j-",
  "PhaseEncodingSteps": 88,
  "PhaseResolution": 1,
  "PixelBandwidth": 2185,
  "ProcedureStepDescription": "ASHENHAV_1222",
  "ProtocolName": "func-bold_task-RDMcolor_run-03",
  "PulseSequenceDetails": "%SiemensSeq%_ep2d_bold",
  "ReceiveCoilActiveElements": "HC1-7;NC1",
  "ReceiveCoilName": "HeadNeck_64",
  "ReconMatrixPE": 88,
  "RefLinesPE": 8,
  "RepetitionTime": 1.2,
  "SAR": 0.0441591,
  "ScanOptions": "FS",
  "ScanningSequence": "EP",
  "SequenceName": "_epfid2d1_88",
  "SequenceVariant": "SK",
  "SeriesDescription": "func-bold_task-RDMcolor_run-03",
  "SeriesNumber": 12,
  "ShimSetting": [1753, -9105, 4379, 399, -75, -372, -126, -1],
  "SliceThickness": 2.4,
  "SliceTiming": [0.55, 0, 0.63, 0.0775, 0.7075, 0.1575, 0.785, 0.235, 0.865, 0.315, 0.9425, 0.3925, 1.0225, 0.4725, 1.1, 0.55, 0, 0.63, 0.0775, 0.7075, 0.1575, 0.785, 0.235, 0.865, 0.315, 0.9425, 0.3925, 1.0225, 0.4725, 1.1, 0.55, 0, 0.63, 0.0775, 0.7075, 0.1575, 0.785, 0.235, 0.865, 0.315, 0.9425, 0.3925, 1.0225, 0.4725, 1.1, 0.55, 0, 0.63, 0.0775, 0.7075, 0.1575, 0.785, 0.235, 0.865, 0.315, 0.9425, 0.3925, 1.0225, 0.4725, 1.1],
  "SoftwareVersions": "syngo_MR_E11",
  "SpacingBetweenSlices": 2.4,
  "StationName": "AWP67050",
  "TaskName": "RDMcolor",
  "TotalReadoutTime": 0.0504612,
  "TxRefAmp": 218.152,
  "dcmmeta_affine": [
    [-2.3789901733398438, -0.25088149309158325, 0.16312886774539948, 113.1288833618164],
    [-0.2794884443283081, 2.3296921253204346, -0.4939415156841278, -67.01716613769531],
    [0.10671635717153549, 0.5086144208908081, 2.342949151992798, -94.04196166992188],
    [0.0, 0.0, 0.0, 1.0]
],
  "dcmmeta_reorient_transform": [
    [0.0, -1.0, 0.0, 87.0],
    [1.0, 0.0, 0.0, 0.0],
    [0.0, 0.0, 1.0, 0.0],
    [0.0, 0.0, 0.0, 1.0]
],
  "dcmmeta_shape": [88, 88, 60, 392],
  "dcmmeta_slice_dim": 2,
  "dcmmeta_version": 0.6,
  "global": {
    "const": {
      "AcquisitionMatrix": [88, 0, 0, 88],
      "AngioFlag": "N",
      "BitsAllocated": 16,
      "BitsStored": 12,
      "BodyPartExamined": "BRAIN",
      "Columns": 704,
      "DeidentificationMethodCodeSequence": [
        {
          "CodeMeaning": "XNAT DicomEdit 6 Script",
          "CodeValue": "3",
          "CodingSchemeDesignator": "XNAT",
          "CodingSchemeVersion": "1.0"}
],
      "EchoNumbers": 1,
      "EchoTime": 33.0,
      "EchoTrainLength": 88,
      "FlipAngle": 62.0,
      "HighBit": 11,
      "ImageOrientationPatient": [0.99218544443487, 0.1165639069301, 0.04450729662394, -0.104633044433, 0.97162519899935, -0.2121235457986],
      "ImagePositionPatient": [-746.75963101767, -939.29370724017, 73.992092211587],
      "ImageType": [
        "ORIGINAL",
        "PRIMARY",
        "M",
        "ND",
        "MOSAIC"
],
      "ImagedNucleus": "1H",
      "ImagingFrequency": 123.250599,
      "InPlanePhaseEncodingDirection": "COL",
      "MRAcquisitionType": "2D",
      "MagneticFieldStrength": 3.0,
      "Manufacturer": "SIEMENS",
      "ManufacturerModelName": "Prisma_fit",
      "Modality": "MR",
      "NumberOfAverages": 1.0,
      "NumberOfPhaseEncodingSteps": 88,
      "PercentPhaseFieldOfView": 100.0,
      "PercentSampling": 100.0,
      "PerformedProcedureStepStartTime": "121325.150000",
      "PhotometricInterpretation": "MONOCHROME2",
      "PixelBandwidth": 2185.0,
      "PixelRepresentation": 0,
      "PixelSpacing": [2.3977272510529, 2.3977272510529],
      "ProtocolName": "func-bold_task-RDMcolor_run-03",
      "RepetitionTime": 1200.0,
      "Rows": 704,
      "SAR": 0.04415911874986,
      "SamplesPerPixel": 1,
      "ScanOptions": "FS",
      "ScanningSequence": "EP",
      "SequenceName": "*epfid2d1_88",
      "SequenceVariant": "SK",
      "SeriesDescription": "func-bold_task-RDMcolor_run-03",
      "SeriesNumber": 12,
      "SeriesTime": "131945.808000",
      "SliceLocation": -70.32432790832,
      "SliceThickness": 2.4000000953674,
      "SmallestImagePixelValue": 0,
      "SoftwareVersions": "syngo MR E11",
      "SpacingBetweenSlices": 2.400000012327,
      "SpecificCharacterSet": "ISO_IR 100",
      "StudyID": "1",
      "StudyTime": "121325.008000",
      "TransmitCoilName": "Body",
      "VariableFlipAngleFlag": "N",
      "WindowCenterWidthExplanation": "Algo1",
      "dBdt": 0.0},
    "slices": {}
  },
  "time": {
    "samples": {
      "AcquisitionNumber": [1, 2, 3, 4, 5, 6, 7, 8, 9, 10, 11, 12, 13, 14, 15, 16, 17, 18, 19, 20, 21, 22, 23, 24, 25, 26, 27, 28, 29, 30, 31, 32, 33, 34, 35, 36, 37, 38, 39, 40, 41, 42, 43, 44, 45, 46, 47, 48, 49, 50, 51, 52, 53, 54, 55, 56, 57, 58, 59, 60, 61, 62, 63, 64, 65, 66, 67, 68, 69, 70, 71, 72, 73, 74, 75, 76, 77, 78, 79, 80, 81, 82, 83, 84, 85, 86, 87, 88, 89, 90, 91, 92, 93, 94, 95, 96, 97, 98, 99, 100, 101, 102, 103, 104, 105, 106, 107, 108, 109, 110, 111, 112, 113, 114, 115, 116, 117, 118, 119, 120, 121, 122, 123, 124, 125, 126, 127, 128, 129, 130, 131, 132, 133, 134, 135, 136, 137, 138, 139, 140, 141, 142, 143, 144, 145, 146, 147, 148, 149, 150, 151, 152, 153, 154, 155, 156, 157, 158, 159, 160, 161, 162, 163, 164, 165, 166, 167, 168, 169, 170, 171, 172, 173, 174, 175, 176, 177, 178, 179, 180, 181, 182, 183, 184, 185, 186, 187, 188, 189, 190, 191, 192, 193, 194, 195, 196, 197, 198, 199, 200, 201, 202, 203, 204, 205, 206, 207, 208, 209, 210, 211, 212, 213, 214, 215, 216, 217, 218, 219, 220, 221, 222, 223, 224, 225, 226, 227, 228, 229, 230, 231, 232, 233, 234, 235, 236, 237, 238, 239, 240, 241, 242, 243, 244, 245, 246, 247, 248, 249, 250, 251, 252, 253, 254, 255, 256, 257, 258, 259, 260, 261, 262, 263, 264, 265, 266, 267, 268, 269, 270, 271, 272, 273, 274, 275, 276, 277, 278, 279, 280, 281, 282, 283, 284, 285, 286, 287, 288, 289, 290, 291, 292, 293, 294, 295, 296, 297, 298, 299, 300, 301, 302, 303, 304, 305, 306, 307, 308, 309, 310, 311, 312, 313, 314, 315, 316, 317, 318, 319, 320, 321, 322, 323, 324, 325, 326, 327, 328, 329, 330, 331, 332, 333, 334, 335, 336, 337, 338, 339, 340, 341, 342, 343, 344, 345, 346, 347, 348, 349, 350, 351, 352, 353, 354, 355, 356, 357, 358, 359, 360, 361, 362, 363, 364, 365, 366, 367, 368, 369, 370, 371, 372, 373, 374, 375, 376, 377, 378, 379, 380, 381, 382, 383, 384, 385, 386, 387, 388, 389, 390, 391, 392],
      "AcquisitionTime": ["131914.890000", "131916.090000", "131917.290000", "131918.490000", "131919.690000", "131920.890000", "131922.090000", "131923.290000", "131924.490000", "131925.690000", "131926.890000", "131928.090000", "131929.290000", "131930.490000", "131931.690000", "131932.890000", "131934.090000", "131935.290000", "131936.490000", "131937.690000", "131938.890000", "131940.090000", "131941.290000", "131942.490000", "131943.690000", "131944.890000", "131946.090000", "131947.290000", "131948.490000", "131949.690000", "131950.890000", "131952.090000", "131953.290000", "131954.490000", "131955.690000", "131956.890000", "131958.090000", "131959.290000", "132000.490000", "132001.690000", "132002.890000", "132004.090000", "132005.290000", "132006.490000", "132007.690000", "132008.890000", "132010.090000", "132011.290000", "132012.490000", "132013.690000", "132014.890000", "132016.090000", "132017.290000", "132018.490000", "132019.690000", "132020.890000", "132022.090000", "132023.290000", "132024.490000", "132025.690000", "132026.890000", "132028.090000", "132029.290000", "132030.490000", "132031.690000", "132032.890000", "132034.090000", "132035.290000", "132036.490000", "132037.690000", "132038.890000", "132040.090000", "132041.290000", "132042.490000", "132043.690000", "132044.890000", "132046.090000", "132047.290000", "132048.490000", "132049.690000", "132050.890000", "132052.090000", "132053.290000", "132054.490000", "132055.690000", "132056.890000", "132058.090000", "132059.290000", "132100.490000", "132101.690000", "132102.890000", "132104.090000", "132105.290000", "132106.490000", "132107.690000", "132108.890000", "132110.090000", "132111.290000", "132112.490000", "132113.690000", "132114.890000", "132116.090000", "132117.290000", "132118.490000", "132119.690000", "132120.890000", "132122.090000", "132123.290000", "132124.490000", "132125.690000", "132126.890000", "132128.090000", "132129.290000", "132130.490000", "132131.690000", "132132.890000", "132134.090000", "132135.290000", "132136.490000", "132137.690000", "132138.890000", "132140.090000", "132141.290000", "132142.490000", "132143.690000", "132144.890000", "132146.090000", "132147.290000", "132148.490000", "132149.690000", "132150.890000", "132152.090000", "132153.290000", "132154.490000", "132155.690000", "132156.890000", "132158.090000", "132159.290000", "132200.490000", "132201.690000", "132202.890000", "132204.090000", "132205.290000", "132206.490000", "132207.690000", "132208.890000", "132210.090000", "132211.290000", "132212.490000", "132213.690000", "132214.890000", "132216.090000", "132217.290000", "132218.490000", "132219.690000", "132220.890000", "132222.090000", "132223.290000", "132224.490000", "132225.690000", "132226.890000", "132228.090000", "132229.290000", "132230.490000", "132231.690000", "132232.890000", "132234.090000", "132235.290000", "132236.490000", "132237.690000", "132238.890000", "132240.090000", "132241.290000", "132242.490000", "132243.690000", "132244.890000", "132246.090000", "132247.290000", "132248.490000", "132249.690000", "132250.890000", "132252.090000", "132253.290000", "132254.490000", "132255.690000", "132256.890000", "132258.090000", "132259.290000", "132300.490000", "132301.690000", "132302.890000", "132304.090000", "132305.290000", "132306.490000", "132307.690000", "132308.890000", "132310.090000", "132311.290000", "132312.490000", "132313.690000", "132314.890000", "132316.090000", "132317.290000", "132318.490000", "132319.690000", "132320.890000", "132322.090000", "132323.290000", "132324.490000", "132325.690000", "132326.890000", "132328.090000", "132329.290000", "132330.490000", "132331.690000", "132332.890000", "132334.090000", "132335.290000", "132336.490000", "132337.690000", "132338.890000", "132340.090000", "132341.290000", "132342.490000", "132343.690000", "132344.890000", "132346.090000", "132347.290000", "132348.490000", "132349.690000", "132350.890000", "132352.090000", "132353.290000", "132354.490000", "132355.690000", "132356.890000", "132358.090000", "132359.290000", "132400.490000", "132401.690000", "132402.890000", "132404.090000", "132405.290000", "132406.490000", "132407.690000", "132408.890000", "132410.090000", "132411.290000", "132412.490000", "132413.690000", "132414.890000", "132416.090000", "132417.290000", "132418.490000", "132419.690000", "132420.890000", "132422.090000", "132423.290000", "132424.490000", "132425.690000", "132426.890000", "132428.090000", "132429.290000", "132430.490000", "132431.690000", "132432.890000", "132434.090000", "132435.290000", "132436.490000", "132437.690000", "132438.890000", "132440.090000", "132441.290000", "132442.490000", "132443.690000", "132444.890000", "132446.090000", "132447.290000", "132448.490000", "132449.690000", "132450.890000", "132452.090000", "132453.290000", "132454.490000", "132455.690000", "132456.890000", "132458.090000", "132459.290000", "132500.490000", "132501.690000", "132502.890000", "132504.090000", "132505.290000", "132506.490000", "132507.690000", "132508.890000", "132510.090000", "132511.290000", "132512.490000", "132513.690000", "132514.890000", "132516.090000", "132517.290000", "132518.490000", "132519.690000", "132520.890000", "132522.090000", "132523.290000", "132524.490000", "132525.690000", "132526.890000", "132528.090000", "132529.290000", "132530.490000", "132531.690000", "132532.890000", "132534.090000", "132535.290000", "132536.490000", "132537.690000", "132538.890000", "132540.090000", "132541.290000", "132542.490000", "132543.690000", "132544.890000", "132546.090000", "132547.290000", "132548.490000", "132549.690000", "132550.890000", "132552.090000", "132553.290000", "132554.490000", "132555.690000", "132556.890000", "132558.090000", "132559.290000", "132600.490000", "132601.690000", "132602.890000", "132604.090000", "132605.290000", "132606.490000", "132607.690000", "132608.890000", "132610.090000", "132611.290000", "132612.490000", "132613.690000", "132614.890000", "132616.090000", "132617.290000", "132618.490000", "132619.690000", "132620.890000", "132622.090000", "132623.290000", "132624.490000", "132625.690000", "132626.890000", "132628.090000", "132629.290000", "132630.490000", "132631.690000", "132632.890000", "132634.090000", "132635.290000", "132636.490000", "132637.690000", "132638.890000", "132640.090000", "132641.290000", "132642.490000", "132643.690000", "132644.890000", "132646.090000", "132647.290000", "132648.490000", "132649.690000", "132650.890000", "132652.090000", "132653.290000", "132654.490000", "132655.690000", "132656.890000", "132658.090000", "132659.290000", "132700.490000", "132701.690000", "132702.890000", "132704.090000"],
      "ContentTime": ["131945.811000", "131945.818000", "131945.830000", "131945.832000", "131945.835000", "131945.837000", "131945.840000", "131945.843000", "131945.845000", "131945.848000", "131945.855000", "131945.857000", "131945.860000", "131945.863000", "131945.866000", "131945.868000", "131945.871000", "131945.873000", "131945.876000", "131945.887000", "131945.890000", "131945.893000", "131945.895000", "131945.898000", "131945.900000", "132025.793000", "132025.795000", "132025.798000", "132025.801000", "132025.803000", "132025.806000", "132025.809000", "132025.811000", "132025.814000", "132025.817000", "132025.819000", "132025.822000", "132025.825000", "132025.827000", "132025.830000", "132025.832000", "132025.835000", "132025.837000", "132025.840000", "132025.843000", "132025.845000", "132025.850000", "132025.853000", "132025.855000", "132025.858000", "132025.861000", "132025.863000", "132025.866000", "132025.869000", "132025.871000", "132025.874000", "132025.876000", "132025.879000", "132025.881000", "132105.791000", "132105.794000", "132105.797000", "132105.799000", "132105.802000", "132105.805000", "132105.808000", "132105.810000", "132105.813000", "132105.815000", "132105.818000", "132105.820000", "132105.823000", "132105.826000", "132105.828000", "132105.831000", "132105.833000", "132105.836000", "132105.838000", "132105.841000", "132105.844000", "132105.846000", "132105.849000", "132105.851000", "132105.854000", "132105.857000", "132105.859000", "132105.862000", "132105.864000", "132105.867000", "132105.869000", "132105.872000", "132105.875000", "132145.792000", "132145.795000", "132145.797000", "132145.800000", "132145.813000", "132145.816000", "132145.818000", "132145.821000", "132145.823000", "132145.826000", "132145.829000", "132145.831000", "132145.834000", "132145.837000", "132145.839000", "132145.842000", "132145.844000", "132145.847000", "132145.850000", "132145.852000", "132145.855000", "132145.857000", "132145.860000", "132145.863000", "132145.865000", "132145.868000", "132145.871000", "132145.873000", "132145.876000", "132145.878000", "132145.881000", "132145.884000", "132145.886000", "132225.792000", "132225.794000", "132225.797000", "132225.800000", "132225.802000", "132225.805000", "132225.808000", "132225.810000", "132225.813000", "132225.816000", "132225.818000", "132225.821000", "132225.823000", "132225.826000", "132225.829000", "132225.831000", "132225.834000", "132225.836000", "132225.839000", "132225.842000", "132225.844000", "132225.847000", "132225.849000", "132225.852000", "132225.855000", "132225.857000", "132225.860000", "132225.862000", "132225.865000", "132225.868000", "132225.870000", "132225.873000", "132225.875000", "132225.878000", "132305.792000", "132305.794000", "132305.797000", "132305.799000", "132305.802000", "132305.805000", "132305.807000", "132305.810000", "132305.813000", "132305.815000", "132305.818000", "132305.821000", "132305.823000", "132305.826000", "132305.829000", "132305.831000", "132305.834000", "132305.836000", "132305.839000", "132305.842000", "132305.844000", "132305.847000", "132305.849000", "132305.852000", "132305.855000", "132305.857000", "132305.860000", "132305.862000", "132305.872000", "132305.874000", "132305.877000", "132305.879000", "132305.882000", "132345.792000", "132345.795000", "132345.797000", "132345.800000", "132345.802000", "132345.805000", "132345.808000", "132345.810000", "132345.813000", "132345.816000", "132345.818000", "132345.821000", "132345.824000", "132345.826000", "132345.829000", "132345.832000", "132345.834000", "132345.858000", "132345.860000", "132345.863000", "132345.865000", "132345.868000", "132345.883000", "132345.885000", "132345.888000", "132345.891000", "132345.893000", "132345.896000", "132345.899000", "132345.901000", "132345.904000", "132345.906000", "132345.909000", "132425.792000", "132425.795000", "132425.797000", "132425.800000", "132425.802000", "132425.805000", "132425.808000", "132425.810000", "132425.813000", "132425.815000", "132425.818000", "132425.821000", "132425.823000", "132425.826000", "132425.829000", "132425.831000", "132425.834000", "132425.837000", "132425.839000", "132425.842000", "132425.845000", "132425.847000", "132425.850000", "132425.852000", "132425.855000", "132425.858000", "132425.860000", "132425.863000", "132425.866000", "132425.868000", "132425.871000", "132425.873000", "132425.876000", "132425.886000", "132505.793000", "132505.795000", "132505.798000", "132505.801000", "132505.804000", "132505.806000", "132505.809000", "132505.811000", "132505.814000", "132505.817000", "132505.819000", "132505.822000", "132505.825000", "132505.827000", "132505.830000", "132505.832000", "132505.835000", "132505.838000", "132505.840000", "132505.843000", "132505.846000", "132505.848000", "132505.851000", "132505.853000", "132505.856000", "132505.859000", "132505.861000", "132505.864000", "132505.866000", "132505.869000", "132505.872000", "132505.874000", "132505.877000", "132545.792000", "132545.806000", "132545.808000", "132545.811000", "132545.813000", "132545.816000", "132545.819000", "132545.821000", "132545.824000", "132545.827000", "132545.829000", "132545.832000", "132545.834000", "132545.837000", "132545.840000", "132545.842000", "132545.845000", "132545.847000", "132545.850000", "132545.853000", "132545.855000", "132545.858000", "132545.860000", "132545.864000", "132545.866000", "132545.869000", "132545.872000", "132545.874000", "132545.877000", "132545.880000", "132545.882000", "132545.885000", "132545.888000", "132625.792000", "132625.794000", "132625.797000", "132625.800000", "132625.802000", "132625.805000", "132625.808000", "132625.810000", "132625.813000", "132625.816000", "132625.819000", "132625.821000", "132625.824000", "132625.827000", "132625.829000", "132625.832000", "132625.834000", "132625.837000", "132625.840000", "132625.842000", "132625.845000", "132625.848000", "132625.850000", "132625.853000", "132625.855000", "132625.858000", "132625.861000", "132625.863000", "132625.873000", "132625.875000", "132625.878000", "132625.880000", "132625.883000", "132625.886000", "132705.313000", "132705.316000", "132705.318000", "132705.321000", "132705.324000", "132705.327000", "132705.329000", "132705.332000", "132705.335000", "132705.337000", "132705.340000", "132705.342000", "132705.345000", "132705.348000", "132705.351000", "132705.353000", "132705.356000", "132705.359000", "132705.361000", "132705.364000", "132705.367000", "132705.369000", "132705.372000", "132705.374000", "132705.377000", "132705.380000", "132705.382000", "132705.385000", "132705.388000", "132705.390000", "132705.393000", "132705.395000", "132705.398000"],
      "InstanceCreationTime": ["131945.811000", "131945.818000", "131945.830000", "131945.832000", "131945.835000", "131945.837000", "131945.840000", "131945.843000", "131945.845000", "131945.848000", "131945.855000", "131945.857000", "131945.860000", "131945.863000", "131945.866000", "131945.868000", "131945.871000", "131945.873000", "131945.876000", "131945.887000", "131945.890000", "131945.893000", "131945.895000", "131945.898000", "131945.900000", "132025.793000", "132025.795000", "132025.798000", "132025.801000", "132025.803000", "132025.806000", "132025.809000", "132025.811000", "132025.814000", "132025.817000", "132025.819000", "132025.822000", "132025.825000", "132025.827000", "132025.830000", "132025.832000", "132025.835000", "132025.837000", "132025.840000", "132025.843000", "132025.845000", "132025.850000", "132025.853000", "132025.855000", "132025.858000", "132025.861000", "132025.863000", "132025.866000", "132025.869000", "132025.871000", "132025.874000", "132025.876000", "132025.879000", "132025.881000", "132105.791000", "132105.794000", "132105.797000", "132105.799000", "132105.802000", "132105.805000", "132105.808000", "132105.810000", "132105.813000", "132105.815000", "132105.818000", "132105.820000", "132105.823000", "132105.826000", "132105.828000", "132105.831000", "132105.833000", "132105.836000", "132105.838000", "132105.841000", "132105.844000", "132105.846000", "132105.849000", "132105.851000", "132105.854000", "132105.857000", "132105.859000", "132105.862000", "132105.864000", "132105.867000", "132105.869000", "132105.872000", "132105.875000", "132145.792000", "132145.795000", "132145.797000", "132145.800000", "132145.813000", "132145.816000", "132145.818000", "132145.821000", "132145.823000", "132145.826000", "132145.829000", "132145.831000", "132145.834000", "132145.837000", "132145.839000", "132145.842000", "132145.844000", "132145.847000", "132145.850000", "132145.852000", "132145.855000", "132145.857000", "132145.860000", "132145.863000", "132145.865000", "132145.868000", "132145.871000", "132145.873000", "132145.876000", "132145.878000", "132145.881000", "132145.884000", "132145.886000", "132225.792000", "132225.794000", "132225.797000", "132225.800000", "132225.802000", "132225.805000", "132225.808000", "132225.810000", "132225.813000", "132225.816000", "132225.818000", "132225.821000", "132225.823000", "132225.826000", "132225.829000", "132225.831000", "132225.834000", "132225.836000", "132225.839000", "132225.842000", "132225.844000", "132225.847000", "132225.849000", "132225.852000", "132225.855000", "132225.857000", "132225.860000", "132225.862000", "132225.865000", "132225.868000", "132225.870000", "132225.873000", "132225.875000", "132225.878000", "132305.792000", "132305.794000", "132305.797000", "132305.799000", "132305.802000", "132305.805000", "132305.807000", "132305.810000", "132305.813000", "132305.815000", "132305.818000", "132305.821000", "132305.823000", "132305.826000", "132305.829000", "132305.831000", "132305.834000", "132305.836000", "132305.839000", "132305.842000", "132305.844000", "132305.847000", "132305.849000", "132305.852000", "132305.855000", "132305.857000", "132305.860000", "132305.862000", "132305.872000", "132305.874000", "132305.877000", "132305.879000", "132305.882000", "132345.792000", "132345.795000", "132345.797000", "132345.800000", "132345.802000", "132345.805000", "132345.808000", "132345.810000", "132345.813000", "132345.816000", "132345.818000", "132345.821000", "132345.824000", "132345.826000", "132345.829000", "132345.832000", "132345.834000", "132345.858000", "132345.860000", "132345.863000", "132345.865000", "132345.868000", "132345.883000", "132345.885000", "132345.888000", "132345.891000", "132345.893000", "132345.896000", "132345.899000", "132345.901000", "132345.904000", "132345.906000", "132345.909000", "132425.792000", "132425.795000", "132425.797000", "132425.800000", "132425.802000", "132425.805000", "132425.808000", "132425.810000", "132425.813000", "132425.815000", "132425.818000", "132425.821000", "132425.823000", "132425.826000", "132425.829000", "132425.831000", "132425.834000", "132425.837000", "132425.839000", "132425.842000", "132425.845000", "132425.847000", "132425.850000", "132425.852000", "132425.855000", "132425.858000", "132425.860000", "132425.863000", "132425.866000", "132425.868000", "132425.871000", "132425.873000", "132425.876000", "132425.886000", "132505.793000", "132505.795000", "132505.798000", "132505.801000", "132505.804000", "132505.806000", "132505.809000", "132505.811000", "132505.814000", "132505.817000", "132505.819000", "132505.822000", "132505.825000", "132505.827000", "132505.830000", "132505.832000", "132505.835000", "132505.838000", "132505.840000", "132505.843000", "132505.846000", "132505.848000", "132505.851000", "132505.853000", "132505.856000", "132505.859000", "132505.861000", "132505.864000", "132505.866000", "132505.869000", "132505.872000", "132505.874000", "132505.877000", "132545.792000", "132545.806000", "132545.808000", "132545.811000", "132545.813000", "132545.816000", "132545.819000", "132545.821000", "132545.824000", "132545.827000", "132545.829000", "132545.832000", "132545.834000", "132545.837000", "132545.840000", "132545.842000", "132545.845000", "132545.847000", "132545.850000", "132545.853000", "132545.855000", "132545.858000", "132545.860000", "132545.864000", "132545.866000", "132545.869000", "132545.872000", "132545.874000", "132545.877000", "132545.880000", "132545.882000", "132545.885000", "132545.888000", "132625.792000", "132625.794000", "132625.797000", "132625.800000", "132625.802000", "132625.805000", "132625.808000", "132625.810000", "132625.813000", "132625.816000", "132625.819000", "132625.821000", "132625.824000", "132625.827000", "132625.829000", "132625.832000", "132625.834000", "132625.837000", "132625.840000", "132625.842000", "132625.845000", "132625.848000", "132625.850000", "132625.853000", "132625.855000", "132625.858000", "132625.861000", "132625.863000", "132625.873000", "132625.875000", "132625.878000", "132625.880000", "132625.883000", "132625.886000", "132705.313000", "132705.316000", "132705.318000", "132705.321000", "132705.324000", "132705.327000", "132705.329000", "132705.332000", "132705.335000", "132705.337000", "132705.340000", "132705.342000", "132705.345000", "132705.348000", "132705.351000", "132705.353000", "132705.356000", "132705.359000", "132705.361000", "132705.364000", "132705.367000", "132705.369000", "132705.372000", "132705.374000", "132705.377000", "132705.380000", "132705.382000", "132705.385000", "132705.388000", "132705.390000", "132705.393000", "132705.395000", "132705.398000"],
      "InstanceNumber": [1, 2, 3, 4, 5, 6, 7, 8, 9, 10, 11, 12, 13, 14, 15, 16, 17, 18, 19, 20, 21, 22, 23, 24, 25, 26, 27, 28, 29, 30, 31, 32, 33, 34, 35, 36, 37, 38, 39, 40, 41, 42, 43, 44, 45, 46, 47, 48, 49, 50, 51, 52, 53, 54, 55, 56, 57, 58, 59, 60, 61, 62, 63, 64, 65, 66, 67, 68, 69, 70, 71, 72, 73, 74, 75, 76, 77, 78, 79, 80, 81, 82, 83, 84, 85, 86, 87, 88, 89, 90, 91, 92, 93, 94, 95, 96, 97, 98, 99, 100, 101, 102, 103, 104, 105, 106, 107, 108, 109, 110, 111, 112, 113, 114, 115, 116, 117, 118, 119, 120, 121, 122, 123, 124, 125, 126, 127, 128, 129, 130, 131, 132, 133, 134, 135, 136, 137, 138, 139, 140, 141, 142, 143, 144, 145, 146, 147, 148, 149, 150, 151, 152, 153, 154, 155, 156, 157, 158, 159, 160, 161, 162, 163, 164, 165, 166, 167, 168, 169, 170, 171, 172, 173, 174, 175, 176, 177, 178, 179, 180, 181, 182, 183, 184, 185, 186, 187, 188, 189, 190, 191, 192, 193, 194, 195, 196, 197, 198, 199, 200, 201, 202, 203, 204, 205, 206, 207, 208, 209, 210, 211, 212, 213, 214, 215, 216, 217, 218, 219, 220, 221, 222, 223, 224, 225, 226, 227, 228, 229, 230, 231, 232, 233, 234, 235, 236, 237, 238, 239, 240, 241, 242, 243, 244, 245, 246, 247, 248, 249, 250, 251, 252, 253, 254, 255, 256, 257, 258, 259, 260, 261, 262, 263, 264, 265, 266, 267, 268, 269, 270, 271, 272, 273, 274, 275, 276, 277, 278, 279, 280, 281, 282, 283, 284, 285, 286, 287, 288, 289, 290, 291, 292, 293, 294, 295, 296, 297, 298, 299, 300, 301, 302, 303, 304, 305, 306, 307, 308, 309, 310, 311, 312, 313, 314, 315, 316, 317, 318, 319, 320, 321, 322, 323, 324, 325, 326, 327, 328, 329, 330, 331, 332, 333, 334, 335, 336, 337, 338, 339, 340, 341, 342, 343, 344, 345, 346, 347, 348, 349, 350, 351, 352, 353, 354, 355, 356, 357, 358, 359, 360, 361, 362, 363, 364, 365, 366, 367, 368, 369, 370, 371, 372, 373, 374, 375, 376, 377, 378, 379, 380, 381, 382, 383, 384, 385, 386, 387, 388, 389, 390, 391, 392],
