{
  "AcquisitionMatrixPE": 88,
  "AcquisitionNumber": 1,
  "AcquisitionTime": "14:10:0.237500",
  "BandwidthPerPixelPhaseEncode": 19.592,
  "BaseResolution": 88,
  "BodyPartExamined": "BRAIN",
  "ConsistencyInfo": "N4_VE11C_LATEST_20160120",
  "ConversionSoftware": "dcm2niix",
  "ConversionSoftwareVersion": "v1.0.20190902",
  "DerivedVendorReportedEchoSpacing": 0.000580014,
  "DeviceSerialNumber": "67050",
  "DwellTime": 2.6e-06,
  "EchoTime": 0.033,
  "EchoTrainLength": 88,
  "EffectiveEchoSpacing": 0.000580014,
  "FlipAngle": 62,
  "ImageOrientationPatientDICOM": [0.992185, 0.116564, 0.0445073, -0.104633, 0.971625, -0.212124],
  "ImageType": [
    "ORIGINAL",
    "PRIMARY",
    "M",
    "ND",
    "MOSAIC"
],
  "ImagingFrequency": 123.251,
  "InPlanePhaseEncodingDirectionDICOM": "COL",
  "InstitutionAddress": "Olive_Street_60_Providence_RI_US_02912",
  "InstitutionName": "BROWN_UNIVERSITY_MRF",
  "InstitutionalDepartmentName": "Department",
  "MRAcquisitionType": "2D",
  "MagneticFieldStrength": 3,
  "Manufacturer": "Siemens",
  "ManufacturersModelName": "Prisma_fit",
  "Modality": "MR",
  "MultibandAccelerationFactor": 4,
  "PartialFourier": 1,
  "PatientPosition": "HFS",
  "PercentPhaseFOV": 100,
  "PhaseEncodingDirection": "j-",
  "PhaseEncodingSteps": 88,
  "PhaseResolution": 1,
  "PixelBandwidth": 2185,
  "ProcedureStepDescription": "ASHENHAV_1222",
  "ProtocolName": "func-bold_task-RDMlocalizer_run-02",
  "PulseSequenceDetails": "%SiemensSeq%_ep2d_bold",
  "ReceiveCoilActiveElements": "HC1-7;NC1",
  "ReceiveCoilName": "HeadNeck_64",
  "ReconMatrixPE": 88,
  "RefLinesPE": 8,
  "RepetitionTime": 1.2,
  "SAR": 0.0439431,
  "ScanOptions": "FS",
  "ScanningSequence": "EP",
  "SequenceName": "_epfid2d1_88",
  "SequenceVariant": "SK",
  "SeriesDescription": "func-bold_task-RDMlocalizer_run-02",
  "SeriesNumber": 20,
  "ShimSetting": [1753, -9105, 4379, 399, -75, -372, -126, -1],
  "SliceThickness": 2.4,
  "SliceTiming": [0.55, 0, 0.6275, 0.0775, 0.7075, 0.1575, 0.785, 0.235, 0.865, 0.315, 0.9425, 0.3925, 1.0225, 0.4725, 1.1, 0.55, 0, 0.6275, 0.0775, 0.7075, 0.1575, 0.785, 0.235, 0.865, 0.315, 0.9425, 0.3925, 1.0225, 0.4725, 1.1, 0.55, 0, 0.6275, 0.0775, 0.7075, 0.1575, 0.785, 0.235, 0.865, 0.315, 0.9425, 0.3925, 1.0225, 0.4725, 1.1, 0.55, 0, 0.6275, 0.0775, 0.7075, 0.1575, 0.785, 0.235, 0.865, 0.315, 0.9425, 0.3925, 1.0225, 0.4725, 1.1],
  "SoftwareVersions": "syngo_MR_E11",
  "SpacingBetweenSlices": 2.4,
  "StationName": "AWP67050",
  "TaskName": "RDMlocalizer",
  "TotalReadoutTime": 0.0504612,
  "TxRefAmp": 218.152,
  "dcmmeta_affine": [
    [-2.3789901733398438, -0.25088149309158325, 0.16312886774539948, 113.1288833618164],
    [-0.2794884443283081, 2.3296921253204346, -0.4939415156841278, -67.01716613769531],
    [0.10671635717153549, 0.5086144208908081, 2.342949151992798, -94.04196166992188],
    [0.0, 0.0, 0.0, 1.0]
],
  "dcmmeta_reorient_transform": [
    [0.0, -1.0, 0.0, 87.0],
    [1.0, 0.0, 0.0, 0.0],
    [0.0, 0.0, 1.0, 0.0],
    [0.0, 0.0, 0.0, 1.0]
],
  "dcmmeta_shape": [88, 88, 60, 195],
  "dcmmeta_slice_dim": 2,
  "dcmmeta_version": 0.6,
  "global": {
    "const": {
      "AcquisitionMatrix": [88, 0, 0, 88],
      "AngioFlag": "N",
      "BitsAllocated": 16,
      "BitsStored": 12,
      "BodyPartExamined": "BRAIN",
      "Columns": 704,
      "DeidentificationMethodCodeSequence": [
        {
          "CodeMeaning": "XNAT DicomEdit 6 Script",
          "CodeValue": "3",
          "CodingSchemeDesignator": "XNAT",
          "CodingSchemeVersion": "1.0"}
],
      "EchoNumbers": 1,
      "EchoTime": 33.0,
      "EchoTrainLength": 88,
      "FlipAngle": 62.0,
      "HighBit": 11,
      "ImageOrientationPatient": [0.99218544443487, 0.1165639069301, 0.04450729662394, -0.104633044433, 0.97162519899935, -0.2121235457986],
      "ImagePositionPatient": [-746.75963101767, -939.29370724017, 73.992092211587],
      "ImageType": [
        "ORIGINAL",
        "PRIMARY",
        "M",
        "ND",
        "MOSAIC"
],
      "ImagedNucleus": "1H",
      "ImagingFrequency": 123.250618,
      "InPlanePhaseEncodingDirection": "COL",
      "MRAcquisitionType": "2D",
      "MagneticFieldStrength": 3.0,
      "Manufacturer": "SIEMENS",
      "ManufacturerModelName": "Prisma_fit",
      "Modality": "MR",
      "NumberOfAverages": 1.0,
      "NumberOfPhaseEncodingSteps": 88,
      "PercentPhaseFieldOfView": 100.0,
      "PercentSampling": 100.0,
      "PerformedProcedureStepStartTime": "121325.150000",
      "PhotometricInterpretation": "MONOCHROME2",
      "PixelBandwidth": 2185.0,
      "PixelRepresentation": 0,
      "PixelSpacing": [2.3977272510529, 2.3977272510529],
      "ProtocolName": "func-bold_task-RDMlocalizer_run-02",
      "RepetitionTime": 1200.0,
      "Rows": 704,
      "SAR": 0.04394313418695,
      "SamplesPerPixel": 1,
      "ScanOptions": "FS",
      "ScanningSequence": "EP",
      "SequenceName": "*epfid2d1_88",
      "SequenceVariant": "SK",
      "SeriesDescription": "func-bold_task-RDMlocalizer_run-02",
      "SeriesNumber": 20,
      "SeriesTime": "141041.139000",
      "SliceLocation": -70.32432790832,
      "SliceThickness": 2.4000000953674,
      "SmallestImagePixelValue": 0,
      "SoftwareVersions": "syngo MR E11",
      "SpacingBetweenSlices": 2.400000012327,
      "SpecificCharacterSet": "ISO_IR 100",
      "StudyID": "1",
      "StudyTime": "121325.008000",
      "TransmitCoilName": "Body",
      "VariableFlipAngleFlag": "N",
      "WindowCenterWidthExplanation": "Algo1",
      "dBdt": 0.0},
    "slices": {}
  },
  "time": {
    "samples": {
      "AcquisitionNumber": [1, 2, 3, 4, 5, 6, 7, 8, 9, 10, 11, 12, 13, 14, 15, 16, 17, 18, 19, 20, 21, 22, 23, 24, 25, 26, 27, 28, 29, 30, 31, 32, 33, 34, 35, 36, 37, 38, 39, 40, 41, 42, 43, 44, 45, 46, 47, 48, 49, 50, 51, 52, 53, 54, 55, 56, 57, 58, 59, 60, 61, 62, 63, 64, 65, 66, 67, 68, 69, 70, 71, 72, 73, 74, 75, 76, 77, 78, 79, 80, 81, 82, 83, 84, 85, 86, 87, 88, 89, 90, 91, 92, 93, 94, 95, 96, 97, 98, 99, 100, 101, 102, 103, 104, 105, 106, 107, 108, 109, 110, 111, 112, 113, 114, 115, 116, 117, 118, 119, 120, 121, 122, 123, 124, 125, 126, 127, 128, 129, 130, 131, 132, 133, 134, 135, 136, 137, 138, 139, 140, 141, 142, 143, 144, 145, 146, 147, 148, 149, 150, 151, 152, 153, 154, 155, 156, 157, 158, 159, 160, 161, 162, 163, 164, 165, 166, 167, 168, 169, 170, 171, 172, 173, 174, 175, 176, 177, 178, 179, 180, 181, 182, 183, 184, 185, 186, 187, 188, 189, 190, 191, 192, 193, 194, 195],
      "AcquisitionTime": ["141000.237500", "141001.437500", "141002.637500", "141003.837500", "141005.037500", "141006.237500", "141007.437500", "141008.637500", "141009.837500", "141011.037500", "141012.237500", "141013.437500", "141014.637500", "141015.837500", "141017.037500", "141018.237500", "141019.437500", "141020.637500", "141021.837500", "141023.037500", "141024.237500", "141025.437500", "141026.637500", "141027.837500", "141029.037500", "141030.237500", "141031.437500", "141032.637500", "141033.837500", "141035.037500", "141036.237500", "141037.437500", "141038.637500", "141039.837500", "141041.037500", "141042.237500", "141043.437500", "141044.637500", "141045.837500", "141047.037500", "141048.237500", "141049.437500", "141050.637500", "141051.837500", "141053.037500", "141054.237500", "141055.437500", "141056.637500", "141057.837500", "141059.037500", "141100.237500", "141101.437500", "141102.637500", "141103.837500", "141105.037500", "141106.237500", "141107.437500", "141108.637500", "141109.837500", "141111.037500", "141112.237500", "141113.437500", "141114.637500", "141115.837500", "141117.037500", "141118.237500", "141119.437500", "141120.637500", "141121.837500", "141123.037500", "141124.237500", "141125.437500", "141126.637500", "141127.837500", "141129.037500", "141130.237500", "141131.437500", "141132.637500", "141133.837500", "141135.037500", "141136.237500", "141137.437500", "141138.637500", "141139.837500", "141141.037500", "141142.237500", "141143.437500", "141144.637500", "141145.837500", "141147.037500", "141148.237500", "141149.437500", "141150.637500", "141151.837500", "141153.037500", "141154.237500", "141155.437500", "141156.637500", "141157.837500", "141159.037500", "141200.237500", "141201.437500", "141202.637500", "141203.837500", "141205.037500", "141206.237500", "141207.437500", "141208.637500", "141209.837500", "141211.037500", "141212.237500", "141213.437500", "141214.637500", "141215.837500", "141217.037500", "141218.237500", "141219.437500", "141220.637500", "141221.837500", "141223.037500", "141224.237500", "141225.437500", "141226.637500", "141227.837500", "141229.037500", "141230.237500", "141231.437500", "141232.637500", "141233.837500", "141235.037500", "141236.237500", "141237.437500", "141238.637500", "141239.837500", "141241.037500", "141242.237500", "141243.437500", "141244.637500", "141245.837500", "141247.037500", "141248.237500", "141249.437500", "141250.637500", "141251.837500", "141253.037500", "141254.237500", "141255.437500", "141256.637500", "141257.837500", "141259.037500", "141300.237500", "141301.437500", "141302.637500", "141303.837500", "141305.037500", "141306.237500", "141307.437500", "141308.637500", "141309.837500", "141311.037500", "141312.237500", "141313.437500", "141314.637500", "141315.837500", "141317.037500", "141318.237500", "141319.437500", "141320.637500", "141321.837500", "141323.037500", "141324.237500", "141325.437500", "141326.637500", "141327.837500", "141329.037500", "141330.237500", "141331.437500", "141332.637500", "141333.837500", "141335.037500", "141336.237500", "141337.437500", "141338.637500", "141339.837500", "141341.037500", "141342.237500", "141343.437500", "141344.637500", "141345.837500", "141347.037500", "141348.237500", "141349.437500", "141350.637500", "141351.837500", "141353.037500"],
      "ContentTime": ["141041.142000", "141041.145000", "141041.148000", "141041.150000", "141041.153000", "141041.156000", "141041.158000", "141041.161000", "141041.175000", "141041.177000", "141041.180000", "141041.182000", "141041.185000", "141041.188000", "141041.190000", "141041.193000", "141041.195000", "141041.198000", "141041.200000", "141041.203000", "141041.205000", "141041.208000", "141041.210000", "141041.213000", "141041.226000", "141041.228000", "141041.231000", "141041.234000", "141041.236000", "141041.239000", "141041.241000", "141041.244000", "141041.247000", "141121.136000", "141121.139000", "141121.142000", "141121.150000", "141121.153000", "141121.155000", "141121.158000", "141121.161000", "141121.163000", "141121.166000", "141121.168000", "141121.171000", "141121.173000", "141121.176000", "141121.179000", "141121.181000", "141121.184000", "141121.186000", "141121.189000", "141121.192000", "141121.194000", "141121.197000", "141121.199000", "141121.202000", "141121.204000", "141121.207000", "141121.209000", "141121.212000", "141121.214000", "141121.217000", "141121.220000", "141121.222000", "141121.225000", "141141.136000", "141141.139000", "141141.142000", "141141.144000", "141141.147000", "141141.150000", "141141.153000", "141141.155000", "141141.158000", "141141.160000", "141141.163000", "141141.166000", "141141.175000", "141141.178000", "141141.181000", "141141.183000", "141141.186000", "141221.137000", "141221.140000", "141221.143000", "141221.146000", "141221.148000", "141221.151000", "141221.153000", "141221.156000", "141221.158000", "141221.161000", "141221.164000", "141221.166000", "141221.169000", "141221.171000", "141221.175000", "141221.177000", "141221.180000", "141221.183000", "141221.186000", "141221.195000", "141221.198000", "141221.200000", "141221.203000", "141221.205000", "141221.208000", "141221.211000", "141221.213000", "141221.216000", "141221.219000", "141221.221000", "141221.224000", "141221.226000", "141221.229000", "141301.137000", "141301.140000", "141301.143000", "141301.146000", "141301.148000", "141301.151000", "141301.153000", "141301.156000", "141301.158000", "141301.161000", "141301.164000", "141301.166000", "141301.169000", "141301.171000", "141301.174000", "141301.176000", "141301.179000", "141301.182000", "141301.184000", "141301.187000", "141301.189000", "141301.192000", "141301.195000", "141301.197000", "141301.200000", "141301.202000", "141301.205000", "141301.207000", "141301.210000", "141301.213000", "141301.215000", "141301.218000", "141301.220000", "141301.223000", "141341.137000", "141341.140000", "141341.142000", "141341.145000", "141341.147000", "141341.150000", "141341.152000", "141341.155000", "141341.158000", "141341.160000", "141341.163000", "141341.167000", "141341.169000", "141341.172000", "141341.175000", "141341.177000", "141341.180000", "141341.183000", "141341.185000", "141341.188000", "141341.190000", "141341.193000", "141341.195000", "141341.198000", "141341.200000", "141341.203000", "141341.206000", "141341.208000", "141341.211000", "141341.214000", "141341.216000", "141341.219000", "141341.221000", "141354.797000", "141354.799000", "141354.802000", "141354.805000", "141354.809000", "141354.816000", "141354.819000", "141354.822000", "141354.825000", "141354.828000", "141354.831000", "141354.833000"],
      "InstanceCreationTime": ["141041.142000", "141041.145000", "141041.148000", "141041.150000", "141041.153000", "141041.156000", "141041.158000", "141041.161000", "141041.175000", "141041.177000", "141041.180000", "141041.182000", "141041.185000", "141041.188000", "141041.190000", "141041.193000", "141041.195000", "141041.198000", "141041.200000", "141041.203000", "141041.205000", "141041.208000", "141041.210000", "141041.213000", "141041.226000", "141041.228000", "141041.231000", "141041.234000", "141041.236000", "141041.239000", "141041.241000", "141041.244000", "141041.247000", "141121.136000", "141121.139000", "141121.142000", "141121.150000", "141121.153000", "141121.155000", "141121.158000", "141121.161000", "141121.163000", "141121.166000", "141121.168000", "141121.171000", "141121.173000", "141121.176000", "141121.179000", "141121.181000", "141121.184000", "141121.186000", "141121.189000", "141121.192000", "141121.194000", "141121.197000", "141121.199000", "141121.202000", "141121.204000", "141121.207000", "141121.209000", "141121.212000", "141121.214000", "141121.217000", "141121.220000", "141121.222000", "141121.225000", "141141.136000", "141141.139000", "141141.142000", "141141.144000", "141141.147000", "141141.150000", "141141.153000", "141141.155000", "141141.158000", "141141.160000", "141141.163000", "141141.166000", "141141.175000", "141141.178000", "141141.181000", "141141.183000", "141141.186000", "141221.137000", "141221.140000", "141221.143000", "141221.146000", "141221.148000", "141221.151000", "141221.153000", "141221.156000", "141221.158000", "141221.161000", "141221.164000", "141221.166000", "141221.169000", "141221.171000", "141221.175000", "141221.177000", "141221.180000", "141221.183000", "141221.186000", "141221.195000", "141221.198000", "141221.200000", "141221.203000", "141221.205000", "141221.208000", "141221.211000", "141221.213000", "141221.216000", "141221.219000", "141221.221000", "141221.224000", "141221.226000", "141221.229000", "141301.137000", "141301.140000", "141301.143000", "141301.146000", "141301.148000", "141301.151000", "141301.153000", "141301.156000", "141301.158000", "141301.161000", "141301.164000", "141301.166000", "141301.169000", "141301.171000", "141301.174000", "141301.176000", "141301.179000", "141301.182000", "141301.184000", "141301.187000", "141301.189000", "141301.192000", "141301.195000", "141301.197000", "141301.200000", "141301.202000", "141301.205000", "141301.207000", "141301.210000", "141301.213000", "141301.215000", "141301.218000", "141301.220000", "141301.223000", "141341.137000", "141341.140000", "141341.142000", "141341.145000", "141341.147000", "141341.150000", "141341.152000", "141341.155000", "141341.158000", "141341.160000", "141341.163000", "141341.167000", "141341.169000", "141341.172000", "141341.175000", "141341.177000", "141341.180000", "141341.183000", "141341.185000", "141341.188000", "141341.190000", "141341.193000", "141341.195000", "141341.198000", "141341.200000", "141341.203000", "141341.206000", "141341.208000", "141341.211000", "141341.214000", "141341.216000", "141341.219000", "141341.221000", "141354.797000", "141354.799000", "141354.802000", "141354.805000", "141354.809000", "141354.816000", "141354.819000", "141354.822000", "141354.825000", "141354.828000", "141354.831000", "141354.833000"],
      "InstanceNumber": [1, 2, 3, 4, 5, 6, 7, 8, 9, 10, 11, 12, 13, 14, 15, 16, 17, 18, 19, 20, 21, 22, 23, 24, 25, 26, 27, 28, 29, 30, 31, 32, 33, 34, 35, 36, 37, 38, 39, 40, 41, 42, 43, 44, 45, 46, 47, 48, 49, 50, 51, 52, 53, 54, 55, 56, 57, 58, 59, 60, 61, 62, 63, 64, 65, 66, 67, 68, 69, 70, 71, 72, 73, 74, 75, 76, 77, 78, 79, 80, 81, 82, 83, 84, 85, 86, 87, 88, 89, 90, 91, 92, 93, 94, 95, 96, 97, 98, 99, 100, 101, 102, 103, 104, 105, 106, 107, 108, 109, 110, 111, 112, 113, 114, 115, 116, 117, 118, 119, 120, 121, 122, 123, 124, 125, 126, 127, 128, 129, 130, 131, 132, 133, 134, 135, 136, 137, 138, 139, 140, 141, 142, 143, 144, 145, 146, 147, 148, 149, 150, 151, 152, 153, 154, 155, 156, 157, 158, 159, 160, 161, 162, 163, 164, 165, 166, 167, 168, 169, 170, 171, 172, 173, 174, 175, 176, 177, 178, 179, 180, 181, 182, 183, 184, 185, 186, 187, 188, 189, 190, 191, 192, 193, 194, 195],
      "LargestImagePixelValue": [2001, 1944, 1930, 1882, 1883, 1878, 1848, 1867, 1858, 1852, 1859, 1856, 1866, 1879, 1862, 1873, 1862, 1850, 1859, 1882, 1888, 1853, 1845, 1846, 1842, 1855, 1845, 1847, 1847, 1836, 1844, 1847, 1852, 1859, 1855, 1902, 1877, 1837, 1837, 1829, 1843, 1845, 1839, 1866, 1848, 1846, 1843, 1834, 1859, 1887, 1869, 1875, 1870, 1840, 1840, 1843, 1840, 1840, 1859, 1850, 1845, 1853, 1857, 1853, 1839, 1846, 1870, 1877, 1895, 1881, 1858, 1857, 1863, 1847, 1843, 1847, 1836, 1860, 1838, 1853, 1832, 1826, 1856, 1832, 1849, 1843, 1842, 1855, 1853, 1850, 1858, 1879, 1871, 1883, 1850, 1856, 1868, 1853, 1860, 1842, 1854, 1854, 1851, 1859, 1834, 1823, 1845, 1833, 1830, 1827, 1846, 1838, 1862, 1862, 1859, 1849, 1846, 1846, 1840, 1850, 1846, 1866, 1860, 1845, 1870, 1852, 1852, 1836, 1843, 1863, 1833, 1859, 1871, 1847, 1841, 1835, 1840, 1839, 1832, 1844, 1830, 1838, 1835, 1829, 1835, 1834, 1844, 1835, 1827, 1839, 1871, 1875, 1862, 1860, 1837, 1830, 1845, 1832, 1843, 1841, 1861, 1851, 1837, 1839, 1838, 1835, 1844, 1847, 1844, 1829, 1844, 1826, 1835, 1830, 1838, 1846, 1832, 1864, 1860, 1873, 1857, 1849, 1849, 1847, 1831, 1837, 1839, 1847, 1851, 1854, 1852, 1856, 1845, 1857, 1874],
      "WindowCenter": [593.0, 590.0, 589.0, 587.0, 587.0, 587.0, 587.0, 588.0, 588.0, 588.0, 588.0, 588.0, 588.0, 589.0, 588.0, 589.0, 588.0, 588.0, 588.0, 589.0, 588.0, 588.0, 587.0, 587.0, 586.0, 587.0, 587.0, 587.0, 588.0, 588.0, 588.0, 587.0, 588.0, 587.0, 588.0, 590.0, 589.0, 586.0, 586.0, 585.0, 584.0, 583.0, 583.0, 584.0, 584.0, 585.0, 585.0, 585.0, 586.0, 586.0, 587.0, 588.0, 590.0, 588.0, 587.0, 586.0, 586.0, 586.0, 587.0, 587.0, 588.0, 588.0, 586.0, 585.0, 584.0, 583.0, 582.0, 582.0, 582.0, 582.0, 582.0, 582.0, 583.0, 583.0, 584.0, 585.0, 586.0, 589.0, 589.0, 590.0, 589.0, 588.0, 587.0, 585.0, 585.0, 586.0, 586.0, 587.0, 587.0, 585.0, 584.0, 584.0, 585.0, 586.0, 585.0, 584.0, 583.0, 582.0, 582.0, 582.0, 583.0, 585.0, 586.0, 587.0, 587.0, 585.0, 585.0, 585.0, 585.0, 584.0, 585.0, 585.0, 586.0, 587.0, 588.0, 587.0, 586.0, 585.0, 584.0, 584.0, 582.0, 582.0, 582.0, 583.0, 584.0, 583.0, 584.0, 584.0, 584.0, 584.0, 584.0, 583.0, 582.0, 582.0, 583.0, 583.0, 583.0, 583.0, 583.0, 584.0, 585.0, 586.0, 586.0, 586.0, 587.0, 587.0, 587.0, 587.0, 587.0, 586.0, 588.0, 589.0, 589.0, 588.0, 588.0, 586.0, 585.0, 582.0, 581.0, 580.0, 581.0, 583.0, 583.0, 584.0, 584.0, 585.0, 587.0, 588.0, 588.0, 588.0, 587.0, 586.0, 586.0, 585.0, 584.0, 583.0, 583.0, 582.0, 582.0, 582.0, 583.0, 584.0, 586.0, 587.0, 587.0, 587.0, 586.0, 585.0, 586.0, 585.0, 586.0, 586.0, 585.0, 586.0, 585.0],
      "WindowWidth": [1261.0, 1255.0, 1252.0, 1248.0, 1248.0, 1248.0, 1248.0, 1250.0, 1250.0, 1250.0, 1250.0, 1250.0, 1251.0, 1252.0, 1251.0, 1252.0, 1251.0, 1251.0, 1251.0, 1251.0, 1250.0, 1249.0, 1249.0, 1248.0, 1246.0, 1247.0, 1247.0, 1248.0, 1250.0, 1249.0, 1249.0, 1248.0, 1249.0, 1248.0, 1249.0, 1254.0, 1251.0, 1246.0, 1244.0, 1242.0, 1241.0, 1239.0, 1239.0, 1241.0, 1241.0, 1243.0, 1244.0, 1244.0, 1245.0, 1246.0, 1246.0, 1249.0, 1253.0, 1250.0, 1247.0, 1245.0, 1244.0, 1246.0, 1246.0, 1247.0, 1249.0, 1249.0, 1245.0, 1243.0, 1240.0, 1238.0, 1236.0, 1235.0, 1235.0, 1235.0, 1236.0, 1236.0, 1238.0, 1238.0, 1240.0, 1242.0, 1246.0, 1253.0, 1253.0, 1254.0, 1253.0, 1250.0, 1247.0, 1244.0, 1244.0, 1245.0, 1246.0, 1247.0, 1246.0, 1242.0, 1241.0, 1241.0, 1242.0, 1244.0, 1242.0, 1241.0, 1239.0, 1237.0, 1237.0, 1237.0, 1238.0, 1242.0, 1246.0, 1248.0, 1247.0, 1244.0, 1244.0, 1243.0, 1242.0, 1241.0, 1243.0, 1243.0, 1245.0, 1248.0, 1249.0, 1247.0, 1245.0, 1243.0, 1241.0, 1240.0, 1237.0, 1237.0, 1237.0, 1239.0, 1240.0, 1239.0, 1240.0, 1242.0, 1241.0, 1241.0, 1240.0, 1238.0, 1236.0, 1237.0, 1238.0, 1237.0, 1238.0, 1239.0, 1239.0, 1242.0, 1243.0, 1245.0, 1246.0, 1245.0, 1247.0, 1248.0, 1249.0, 1248.0, 1247.0, 1246.0, 1250.0, 1252.0, 1252.0, 1250.0, 1248.0, 1244.0, 1242.0, 1237.0, 1234.0, 1232.0, 1234.0, 1238.0, 1238.0, 1240.0, 1240.0, 1243.0, 1247.0, 1250.0, 1250.0, 1249.0, 1248.0, 1246.0, 1245.0, 1243.0, 1241.0, 1239.0, 1237.0, 1237.0, 1236.0, 1237.0, 1237.0, 1240.0, 1245.0, 1247.0, 1248.0, 1248.0, 1245.0, 1243.0, 1244.0, 1243.0, 1245.0, 1245.0, 1244.0, 1244.0, 1242.0]
    },
    "slices": {}
  }
}