{
  "AcquisitionMatrixPE": 88,
  "AcquisitionNumber": 1,
  "AcquisitionTime": "12:55:25.235000",
  "BandwidthPerPixelPhaseEncode": 19.592,
  "BaseResolution": 88,
  "BodyPartExamined": "BRAIN",
  "ConsistencyInfo": "N4_VE11C_LATEST_20160120",
  "ConversionSoftware": "dcm2niix",
  "ConversionSoftwareVersion": "v1.0.20190902",
  "DerivedVendorReportedEchoSpacing": 0.000580014,
  "DeviceSerialNumber": "67050",
  "DwellTime": 2.6e-06,
  "EchoTime": 0.033,
  "EchoTrainLength": 88,
  "EffectiveEchoSpacing": 0.000580014,
  "FlipAngle": 62,
  "ImageOrientationPatientDICOM": [0.992185, 0.116564, 0.0445073, -0.104633, 0.971625, -0.212124],
  "ImageType": [
    "ORIGINAL",
    "PRIMARY",
    "M",
    "ND",
    "MOSAIC"
],
  "ImagingFrequency": 123.251,
  "InPlanePhaseEncodingDirectionDICOM": "COL",
  "InstitutionAddress": "Olive_Street_60_Providence_RI_US_02912",
  "InstitutionName": "BROWN_UNIVERSITY_MRF",
  "InstitutionalDepartmentName": "Department",
  "MRAcquisitionType": "2D",
  "MagneticFieldStrength": 3,
  "Manufacturer": "Siemens",
  "ManufacturersModelName": "Prisma_fit",
  "Modality": "MR",
  "MultibandAccelerationFactor": 4,
  "PartialFourier": 1,
  "PatientPosition": "HFS",
  "PercentPhaseFOV": 100,
  "PhaseEncodingDirection": "j-",
  "PhaseEncodingSteps": 88,
  "PhaseResolution": 1,
  "PixelBandwidth": 2185,
  "ProcedureStepDescription": "ASHENHAV_1222",
  "ProtocolName": "func-bold_task-RDMcolor_run-01",
  "PulseSequenceDetails": "%SiemensSeq%_ep2d_bold",
  "ReceiveCoilActiveElements": "HC1-7;NC1",
  "ReceiveCoilName": "HeadNeck_64",
  "ReconMatrixPE": 88,
  "RefLinesPE": 8,
  "RepetitionTime": 1.2,
  "SAR": 0.0441591,
  "ScanOptions": "FS",
  "ScanningSequence": "EP",
  "SequenceName": "_epfid2d1_88",
  "SequenceVariant": "SK",
  "SeriesDescription": "func-bold_task-RDMcolor_run-01",
  "SeriesNumber": 8,
  "ShimSetting": [1753, -9105, 4379, 399, -75, -372, -126, -1],
  "SliceThickness": 2.4,
  "SliceTiming": [0.5525, 0, 0.63, 0.08, 0.71, 0.1575, 0.7875, 0.2375, 0.865, 0.315, 0.945, 0.395, 1.0225, 0.4725, 1.1025, 0.5525, 0, 0.63, 0.08, 0.71, 0.1575, 0.7875, 0.2375, 0.865, 0.315, 0.945, 0.395, 1.0225, 0.4725, 1.1025, 0.5525, 0, 0.63, 0.08, 0.71, 0.1575, 0.7875, 0.2375, 0.865, 0.315, 0.945, 0.395, 1.0225, 0.4725, 1.1025, 0.5525, 0, 0.63, 0.08, 0.71, 0.1575, 0.7875, 0.2375, 0.865, 0.315, 0.945, 0.395, 1.0225, 0.4725, 1.1025],
  "SoftwareVersions": "syngo_MR_E11",
  "SpacingBetweenSlices": 2.4,
  "StationName": "AWP67050",
  "TaskName": "RDMcolor",
  "TotalReadoutTime": 0.0504612,
  "TxRefAmp": 218.152,
  "dcmmeta_affine": [
    [-2.3789901733398438, -0.25088149309158325, 0.16312886774539948, 113.1288833618164],
    [-0.2794884443283081, 2.3296921253204346, -0.4939415156841278, -67.01716613769531],
    [0.10671635717153549, 0.5086144208908081, 2.342949151992798, -94.04196166992188],
    [0.0, 0.0, 0.0, 1.0]
],
  "dcmmeta_reorient_transform": [
    [0.0, -1.0, 0.0, 87.0],
    [1.0, 0.0, 0.0, 0.0],
    [0.0, 0.0, 1.0, 0.0],
    [0.0, 0.0, 0.0, 1.0]
],
  "dcmmeta_shape": [88, 88, 60, 392],
  "dcmmeta_slice_dim": 2,
  "dcmmeta_version": 0.6,
  "global": {
    "const": {
      "AcquisitionMatrix": [88, 0, 0, 88],
      "AngioFlag": "N",
      "BitsAllocated": 16,
      "BitsStored": 12,
      "BodyPartExamined": "BRAIN",
      "Columns": 704,
      "DeidentificationMethodCodeSequence": [
        {
          "CodeMeaning": "XNAT DicomEdit 6 Script",
          "CodeValue": "3",
          "CodingSchemeDesignator": "XNAT",
          "CodingSchemeVersion": "1.0"}
],
      "EchoNumbers": 1,
      "EchoTime": 33.0,
      "EchoTrainLength": 88,
      "FlipAngle": 62.0,
      "HighBit": 11,
      "ImageOrientationPatient": [0.99218544443487, 0.1165639069301, 0.04450729662394, -0.104633044433, 0.97162519899935, -0.2121235457986],
      "ImagePositionPatient": [-746.75963101767, -939.29370724017, 73.992092211587],
      "ImageType": [
        "ORIGINAL",
        "PRIMARY",
        "M",
        "ND",
        "MOSAIC"
],
      "ImagedNucleus": "1H",
      "ImagingFrequency": 123.250586,
      "InPlanePhaseEncodingDirection": "COL",
      "MRAcquisitionType": "2D",
      "MagneticFieldStrength": 3.0,
      "Manufacturer": "SIEMENS",
      "ManufacturerModelName": "Prisma_fit",
      "Modality": "MR",
      "NumberOfAverages": 1.0,
      "NumberOfPhaseEncodingSteps": 88,
      "PercentPhaseFieldOfView": 100.0,
      "PercentSampling": 100.0,
      "PerformedProcedureStepStartTime": "121325.150000",
      "PhotometricInterpretation": "MONOCHROME2",
      "PixelBandwidth": 2185.0,
      "PixelRepresentation": 0,
      "PixelSpacing": [2.3977272510529, 2.3977272510529],
      "ProtocolName": "func-bold_task-RDMcolor_run-01",
      "RepetitionTime": 1200.0,
      "Rows": 704,
      "SAR": 0.04415911874986,
      "SamplesPerPixel": 1,
      "ScanOptions": "FS",
      "ScanningSequence": "EP",
      "SequenceName": "*epfid2d1_88",
      "SequenceVariant": "SK",
      "SeriesDescription": "func-bold_task-RDMcolor_run-01",
      "SeriesNumber": 8,
      "SeriesTime": "125601.138000",
      "SliceLocation": -70.32432790832,
      "SliceThickness": 2.4000000953674,
      "SmallestImagePixelValue": 0,
      "SoftwareVersions": "syngo MR E11",
      "SpacingBetweenSlices": 2.400000012327,
      "SpecificCharacterSet": "ISO_IR 100",
      "StudyID": "1",
      "StudyTime": "121325.008000",
      "TransmitCoilName": "Body",
      "VariableFlipAngleFlag": "N",
      "WindowCenterWidthExplanation": "Algo1",
      "dBdt": 0.0},
    "slices": {}
  },
  "time": {
    "samples": {
      "AcquisitionNumber": [1, 2, 3, 4, 5, 6, 7, 8, 9, 10, 11, 12, 13, 14, 15, 16, 17, 18, 19, 20, 21, 22, 23, 24, 25, 26, 27, 28, 29, 30, 31, 32, 33, 34, 35, 36, 37, 38, 39, 40, 41, 42, 43, 44, 45, 46, 47, 48, 49, 50, 51, 52, 53, 54, 55, 56, 57, 58, 59, 60, 61, 62, 63, 64, 65, 66, 67, 68, 69, 70, 71, 72, 73, 74, 75, 76, 77, 78, 79, 80, 81, 82, 83, 84, 85, 86, 87, 88, 89, 90, 91, 92, 93, 94, 95, 96, 97, 98, 99, 100, 101, 102, 103, 104, 105, 106, 107, 108, 109, 110, 111, 112, 113, 114, 115, 116, 117, 118, 119, 120, 121, 122, 123, 124, 125, 126, 127, 128, 129, 130, 131, 132, 133, 134, 135, 136, 137, 138, 139, 140, 141, 142, 143, 144, 145, 146, 147, 148, 149, 150, 151, 152, 153, 154, 155, 156, 157, 158, 159, 160, 161, 162, 163, 164, 165, 166, 167, 168, 169, 170, 171, 172, 173, 174, 175, 176, 177, 178, 179, 180, 181, 182, 183, 184, 185, 186, 187, 188, 189, 190, 191, 192, 193, 194, 195, 196, 197, 198, 199, 200, 201, 202, 203, 204, 205, 206, 207, 208, 209, 210, 211, 212, 213, 214, 215, 216, 217, 218, 219, 220, 221, 222, 223, 224, 225, 226, 227, 228, 229, 230, 231, 232, 233, 234, 235, 236, 237, 238, 239, 240, 241, 242, 243, 244, 245, 246, 247, 248, 249, 250, 251, 252, 253, 254, 255, 256, 257, 258, 259, 260, 261, 262, 263, 264, 265, 266, 267, 268, 269, 270, 271, 272, 273, 274, 275, 276, 277, 278, 279, 280, 281, 282, 283, 284, 285, 286, 287, 288, 289, 290, 291, 292, 293, 294, 295, 296, 297, 298, 299, 300, 301, 302, 303, 304, 305, 306, 307, 308, 309, 310, 311, 312, 313, 314, 315, 316, 317, 318, 319, 320, 321, 322, 323, 324, 325, 326, 327, 328, 329, 330, 331, 332, 333, 334, 335, 336, 337, 338, 339, 340, 341, 342, 343, 344, 345, 346, 347, 348, 349, 350, 351, 352, 353, 354, 355, 356, 357, 358, 359, 360, 361, 362, 363, 364, 365, 366, 367, 368, 369, 370, 371, 372, 373, 374, 375, 376, 377, 378, 379, 380, 381, 382, 383, 384, 385, 386, 387, 388, 389, 390, 391, 392],
      "AcquisitionTime": ["125525.235000", "125526.435000", "125527.635000", "125528.835000", "125530.035000", "125531.235000", "125532.435000", "125533.635000", "125534.835000", "125536.035000", "125537.235000", "125538.435000", "125539.635000", "125540.835000", "125542.035000", "125543.235000", "125544.435000", "125545.635000", "125546.835000", "125548.035000", "125549.235000", "125550.435000", "125551.635000", "125552.835000", "125554.035000", "125555.235000", "125556.435000", "125557.635000", "125558.835000", "125600.035000", "125601.235000", "125602.435000", "125603.635000", "125604.835000", "125606.035000", "125607.235000", "125608.435000", "125609.635000", "125610.835000", "125612.035000", "125613.235000", "125614.435000", "125615.635000", "125616.835000", "125618.035000", "125619.235000", "125620.435000", "125621.635000", "125622.835000", "125624.035000", "125625.235000", "125626.435000", "125627.635000", "125628.835000", "125630.035000", "125631.235000", "125632.435000", "125633.635000", "125634.835000", "125636.035000", "125637.235000", "125638.435000", "125639.635000", "125640.835000", "125642.035000", "125643.235000", "125644.435000", "125645.635000", "125646.835000", "125648.035000", "125649.235000", "125650.435000", "125651.635000", "125652.835000", "125654.035000", "125655.235000", "125656.435000", "125657.635000", "125658.835000", "125700.035000", "125701.235000", "125702.435000", "125703.635000", "125704.835000", "125706.035000", "125707.235000", "125708.435000", "125709.635000", "125710.835000", "125712.035000", "125713.235000", "125714.435000", "125715.635000", "125716.835000", "125718.035000", "125719.235000", "125720.435000", "125721.635000", "125722.835000", "125724.035000", "125725.235000", "125726.435000", "125727.635000", "125728.835000", "125730.035000", "125731.235000", "125732.435000", "125733.635000", "125734.835000", "125736.035000", "125737.235000", "125738.435000", "125739.635000", "125740.835000", "125742.035000", "125743.235000", "125744.435000", "125745.635000", "125746.835000", "125748.035000", "125749.235000", "125750.435000", "125751.635000", "125752.835000", "125754.035000", "125755.235000", "125756.435000", "125757.635000", "125758.835000", "125800.035000", "125801.235000", "125802.435000", "125803.635000", "125804.835000", "125806.035000", "125807.235000", "125808.435000", "125809.635000", "125810.835000", "125812.035000", "125813.235000", "125814.435000", "125815.635000", "125816.835000", "125818.035000", "125819.235000", "125820.435000", "125821.635000", "125822.835000", "125824.035000", "125825.235000", "125826.435000", "125827.635000", "125828.835000", "125830.035000", "125831.235000", "125832.435000", "125833.635000", "125834.835000", "125836.035000", "125837.235000", "125838.435000", "125839.635000", "125840.835000", "125842.035000", "125843.235000", "125844.435000", "125845.635000", "125846.835000", "125848.035000", "125849.235000", "125850.435000", "125851.635000", "125852.835000", "125854.035000", "125855.235000", "125856.435000", "125857.635000", "125858.835000", "125900.035000", "125901.235000", "125902.435000", "125903.635000", "125904.835000", "125906.035000", "125907.235000", "125908.435000", "125909.635000", "125910.835000", "125912.035000", "125913.235000", "125914.435000", "125915.635000", "125916.835000", "125918.035000", "125919.235000", "125920.435000", "125921.635000", "125922.835000", "125924.035000", "125925.235000", "125926.435000", "125927.635000", "125928.835000", "125930.035000", "125931.235000", "125932.435000", "125933.635000", "125934.835000", "125936.035000", "125937.235000", "125938.435000", "125939.635000", "125940.835000", "125942.035000", "125943.235000", "125944.435000", "125945.635000", "125946.835000", "125948.035000", "125949.235000", "125950.435000", "125951.635000", "125952.835000", "125954.035000", "125955.235000", "125956.435000", "125957.635000", "125958.835000", "130000.035000", "130001.235000", "130002.435000", "130003.635000", "130004.835000", "130006.035000", "130007.235000", "130008.435000", "130009.635000", "130010.835000", "130012.035000", "130013.235000", "130014.435000", "130015.635000", "130016.835000", "130018.035000", "130019.235000", "130020.435000", "130021.635000", "130022.835000", "130024.035000", "130025.235000", "130026.435000", "130027.635000", "130028.835000", "130030.035000", "130031.235000", "130032.435000", "130033.635000", "130034.835000", "130036.035000", "130037.235000", "130038.435000", "130039.635000", "130040.835000", "130042.035000", "130043.235000", "130044.435000", "130045.635000", "130046.835000", "130048.035000", "130049.235000", "130050.435000", "130051.635000", "130052.835000", "130054.035000", "130055.235000", "130056.435000", "130057.635000", "130058.835000", "130100.035000", "130101.235000", "130102.435000", "130103.635000", "130104.835000", "130106.035000", "130107.235000", "130108.435000", "130109.635000", "130110.835000", "130112.035000", "130113.235000", "130114.435000", "130115.635000", "130116.835000", "130118.035000", "130119.235000", "130120.435000", "130121.635000", "130122.835000", "130124.035000", "130125.235000", "130126.435000", "130127.635000", "130128.835000", "130130.035000", "130131.235000", "130132.435000", "130133.635000", "130134.835000", "130136.035000", "130137.235000", "130138.435000", "130139.635000", "130140.835000", "130142.035000", "130143.235000", "130144.435000", "130145.635000", "130146.835000", "130148.035000", "130149.235000", "130150.435000", "130151.635000", "130152.835000", "130154.035000", "130155.235000", "130156.435000", "130157.635000", "130158.835000", "130200.035000", "130201.235000", "130202.435000", "130203.635000", "130204.835000", "130206.035000", "130207.235000", "130208.435000", "130209.635000", "130210.835000", "130212.035000", "130213.235000", "130214.435000", "130215.635000", "130216.835000", "130218.035000", "130219.235000", "130220.435000", "130221.635000", "130222.835000", "130224.035000", "130225.235000", "130226.435000", "130227.635000", "130228.835000", "130230.035000", "130231.235000", "130232.435000", "130233.635000", "130234.835000", "130236.035000", "130237.235000", "130238.435000", "130239.635000", "130240.835000", "130242.035000", "130243.235000", "130244.435000", "130245.635000", "130246.835000", "130248.035000", "130249.235000", "130250.435000", "130251.635000", "130252.835000", "130254.035000", "130255.235000", "130256.435000", "130257.635000", "130258.835000", "130300.035000", "130301.235000", "130302.435000", "130303.635000", "130304.835000", "130306.035000", "130307.235000", "130308.435000", "130309.635000", "130310.835000", "130312.035000", "130313.235000", "130314.435000"],
      "ContentTime": ["125601.142000", "125601.145000", "125601.148000", "125601.150000", "125601.163000", "125601.165000", "125601.168000", "125601.170000", "125601.173000", "125601.175000", "125601.178000", "125601.180000", "125601.183000", "125601.189000", "125601.192000", "125601.194000", "125601.197000", "125601.199000", "125601.202000", "125601.204000", "125601.207000", "125601.210000", "125601.220000", "125601.222000", "125601.225000", "125601.227000", "125601.230000", "125601.232000", "125601.235000", "125641.138000", "125641.140000", "125641.143000", "125641.145000", "125641.148000", "125641.151000", "125641.153000", "125641.156000", "125641.158000", "125641.167000", "125641.169000", "125641.172000", "125641.175000", "125641.177000", "125641.180000", "125641.182000", "125641.185000", "125641.187000", "125641.190000", "125641.192000", "125641.195000", "125641.197000", "125641.200000", "125641.202000", "125641.205000", "125641.207000", "125641.210000", "125641.212000", "125641.215000", "125641.218000", "125641.220000", "125641.223000", "125641.225000", "125721.136000", "125721.139000", "125721.142000", "125721.145000", "125721.147000", "125721.150000", "125721.152000", "125721.155000", "125721.157000", "125721.160000", "125721.162000", "125721.165000", "125721.167000", "125721.170000", "125721.182000", "125721.184000", "125721.187000", "125721.189000", "125721.192000", "125721.194000", "125721.197000", "125721.200000", "125721.202000", "125721.205000", "125721.207000", "125721.210000", "125721.212000", "125721.215000", "125721.217000", "125721.220000", "125721.222000", "125721.225000", "125721.228000", "125721.230000", "125801.137000", "125801.140000", "125801.143000", "125801.146000", "125801.148000", "125801.151000", "125801.153000", "125801.163000", "125801.166000", "125801.168000", "125801.171000", "125801.173000", "125801.176000", "125801.178000", "125801.181000", "125801.184000", "125801.186000", "125801.189000", "125801.191000", "125801.194000", "125801.196000", "125801.199000", "125801.201000", "125801.204000", "125801.207000", "125801.209000", "125801.212000", "125801.222000", "125801.224000", "125801.227000", "125801.230000", "125801.232000", "125801.235000", "125841.138000", "125841.140000", "125841.143000", "125841.146000", "125841.148000", "125841.151000", "125841.153000", "125841.156000", "125841.159000", "125841.161000", "125841.164000", "125841.166000", "125841.169000", "125841.171000", "125841.174000", "125841.176000", "125841.179000", "125841.181000", "125841.184000", "125841.187000", "125841.189000", "125841.192000", "125841.194000", "125841.197000", "125841.199000", "125841.202000", "125841.204000", "125841.207000", "125841.226000", "125841.229000", "125841.231000", "125841.234000", "125841.237000", "125921.137000", "125921.139000", "125921.142000", "125921.145000", "125921.147000", "125921.150000", "125921.152000", "125921.155000", "125921.158000", "125921.160000", "125921.163000", "125921.165000", "125921.168000", "125921.170000", "125921.173000", "125921.175000", "125921.178000", "125921.181000", "125921.183000", "125921.186000", "125921.188000", "125921.195000", "125921.197000", "125921.200000", "125921.203000", "125921.205000", "125921.208000", "125921.210000", "125921.213000", "125921.215000", "125921.218000", "125921.221000", "125921.223000", "125921.226000", "130001.137000", "130001.140000", "130001.143000", "130001.145000", "130001.148000", "130001.150000", "130001.153000", "130001.156000", "130001.158000", "130001.161000", "130001.163000", "130001.166000", "130001.168000", "130001.171000", "130001.181000", "130001.184000", "130001.186000", "130001.189000", "130001.191000", "130001.194000", "130001.196000", "130001.199000", "130001.202000", "130001.204000", "130001.207000", "130001.209000", "130001.212000", "130001.214000", "130001.217000", "130001.219000", "130001.222000", "130001.225000", "130001.227000", "130041.137000", "130041.140000", "130041.143000", "130041.145000", "130041.148000", "130041.151000", "130041.161000", "130041.163000", "130041.166000", "130041.168000", "130041.171000", "130041.173000", "130041.176000", "130041.179000", "130041.181000", "130041.184000", "130041.186000", "130041.189000", "130041.191000", "130041.194000", "130041.196000", "130041.199000", "130041.202000", "130041.204000", "130041.207000", "130041.209000", "130041.212000", "130041.214000", "130041.217000", "130041.219000", "130041.222000", "130041.224000", "130041.227000", "130121.138000", "130121.140000", "130121.143000", "130121.146000", "130121.148000", "130121.151000", "130121.153000", "130121.156000", "130121.158000", "130121.161000", "130121.163000", "130121.166000", "130121.169000", "130121.172000", "130121.174000", "130121.177000", "130121.179000", "130121.182000", "130121.184000", "130121.187000", "130121.190000", "130121.192000", "130121.195000", "130121.197000", "130121.200000", "130121.203000", "130121.205000", "130121.208000", "130121.210000", "130121.213000", "130121.215000", "130121.218000", "130121.221000", "130121.223000", "130141.137000", "130141.140000", "130141.142000", "130141.145000", "130141.147000", "130141.150000", "130141.153000", "130141.155000", "130141.158000", "130141.160000", "130141.163000", "130141.165000", "130141.168000", "130141.171000", "130141.173000", "130141.176000", "130221.137000", "130221.141000", "130221.143000", "130221.146000", "130221.149000", "130221.152000", "130221.154000", "130221.157000", "130221.159000", "130221.162000", "130221.165000", "130221.167000", "130221.170000", "130221.172000", "130221.175000", "130221.178000", "130221.180000", "130221.183000", "130221.185000", "130221.188000", "130221.190000", "130221.193000", "130221.195000", "130221.198000", "130221.201000", "130221.203000", "130221.206000", "130221.208000", "130221.227000", "130221.240000", "130221.243000", "130221.245000", "130221.248000", "130221.251000", "130301.137000", "130301.140000", "130301.143000", "130301.145000", "130301.148000", "130301.151000", "130301.153000", "130301.156000", "130301.158000", "130301.161000", "130301.163000", "130301.166000", "130301.168000", "130301.171000", "130301.174000", "130301.177000", "130301.179000", "130301.182000", "130301.184000", "130301.187000", "130301.189000", "130301.192000", "130301.202000", "130301.205000", "130301.207000", "130301.210000", "130301.213000", "130301.215000", "130301.218000", "130301.220000", "130301.223000", "130301.225000", "130301.228000", "130316.307000", "130316.310000", "130316.313000", "130316.316000", "130316.318000", "130316.321000", "130316.324000", "130316.326000", "130316.329000", "130316.332000", "130316.334000", "130316.337000", "130316.339000"],
      "InstanceCreationTime": ["125601.142000", "125601.145000", "125601.148000", "125601.150000", "125601.163000", "125601.165000", "125601.168000", "125601.170000", "125601.173000", "125601.175000", "125601.178000", "125601.180000", "125601.183000", "125601.189000", "125601.192000", "125601.194000", "125601.197000", "125601.199000", "125601.202000", "125601.204000", "125601.207000", "125601.210000", "125601.220000", "125601.222000", "125601.225000", "125601.227000", "125601.230000", "125601.232000", "125601.235000", "125641.138000", "125641.140000", "125641.143000", "125641.145000", "125641.148000", "125641.151000", "125641.153000", "125641.156000", "125641.158000", "125641.167000", "125641.169000", "125641.172000", "125641.175000", "125641.177000", "125641.180000", "125641.182000", "125641.185000", "125641.187000", "125641.190000", "125641.192000", "125641.195000", "125641.197000", "125641.200000", "125641.202000", "125641.205000", "125641.207000", "125641.210000", "125641.212000", "125641.215000", "125641.218000", "125641.220000", "125641.223000", "125641.225000", "125721.136000", "125721.139000", "125721.142000", "125721.145000", "125721.147000", "125721.150000", "125721.152000", "125721.155000", "125721.157000", "125721.160000", "125721.162000", "125721.165000", "125721.167000", "125721.170000", "125721.182000", "125721.184000", "125721.187000", "125721.189000", "125721.192000", "125721.194000", "125721.197000", "125721.200000", "125721.202000", "125721.205000", "125721.207000", "125721.210000", "125721.212000", "125721.215000", "125721.217000", "125721.220000", "125721.222000", "125721.225000", "125721.228000", "125721.230000", "125801.137000", "125801.140000", "125801.143000", "125801.146000", "125801.148000", "125801.151000", "125801.153000", "125801.163000", "125801.166000", "125801.168000", "125801.171000", "125801.173000", "125801.176000", "125801.178000", "125801.181000", "125801.184000", "125801.186000", "125801.189000", "125801.191000", "125801.194000", "125801.196000", "125801.199000", "125801.201000", "125801.204000", "125801.207000", "125801.209000", "125801.212000", "125801.222000", "125801.224000", "125801.227000", "125801.230000", "125801.232000", "125801.235000", "125841.138000", "125841.140000", "125841.143000", "125841.146000", "125841.148000", "125841.151000", "125841.153000", "125841.156000", "125841.159000", "125841.161000", "125841.164000", "125841.166000", "125841.169000", "125841.171000", "125841.174000", "125841.176000", "125841.179000", "125841.181000", "125841.184000", "125841.187000", "125841.189000", "125841.192000", "125841.194000", "125841.197000", "125841.199000", "125841.202000", "125841.204000", "125841.207000", "125841.226000", "125841.229000", "125841.231000", "125841.234000", "125841.237000", "125921.137000", "125921.139000", "125921.142000", "125921.145000", "125921.147000", "125921.150000", "125921.152000", "125921.155000", "125921.158000", "125921.160000", "125921.163000", "125921.165000", "125921.168000", "125921.170000", "125921.173000", "125921.175000", "125921.178000", "125921.181000", "125921.183000", "125921.186000", "125921.188000", "125921.195000", "125921.197000", "125921.200000", "125921.203000", "125921.205000", "125921.208000", "125921.210000", "125921.213000", "125921.215000", "125921.218000", "125921.221000", "125921.223000", "125921.226000", "130001.137000", "130001.140000", "130001.143000", "130001.145000", "130001.148000", "130001.150000", "130001.153000", "130001.156000", "130001.158000", "130001.161000", "130001.163000", "130001.166000", "130001.168000", "130001.171000", "130001.181000", "130001.184000", "130001.186000", "130001.189000", "130001.191000", "130001.194000", "130001.196000", "130001.199000", "130001.202000", "130001.204000", "130001.207000", "130001.209000", "130001.212000", "130001.214000", "130001.217000", "130001.219000", "130001.222000", "130001.225000", "130001.227000", "130041.137000", "130041.140000", "130041.143000", "130041.145000", "130041.148000", "130041.151000", "130041.161000", "130041.163000", "130041.166000", "130041.168000", "130041.171000", "130041.173000", "130041.176000", "130041.179000", "130041.181000", "130041.184000", "130041.186000", "130041.189000", "130041.191000", "130041.194000", "130041.196000", "130041.199000", "130041.202000", "130041.204000", "130041.207000", "130041.209000", "130041.212000", "130041.214000", "130041.217000", "130041.219000", "130041.222000", "130041.224000", "130041.227000", "130121.138000", "130121.140000", "130121.143000", "130121.146000", "130121.148000", "130121.151000", "130121.153000", "130121.156000", "130121.158000", "130121.161000", "130121.163000", "130121.166000", "130121.169000", "130121.172000", "130121.174000", "130121.177000", "130121.179000", "130121.182000", "130121.184000", "130121.187000", "130121.190000", "130121.192000", "130121.195000", "130121.197000", "130121.200000", "130121.203000", "130121.205000", "130121.208000", "130121.210000", "130121.213000", "130121.215000", "130121.218000", "130121.221000", "130121.223000", "130141.137000", "130141.140000", "130141.142000", "130141.145000", "130141.147000", "130141.150000", "130141.153000", "130141.155000", "130141.158000", "130141.160000", "130141.163000", "130141.165000", "130141.168000", "130141.171000", "130141.173000", "130141.176000", "130221.137000", "130221.141000", "130221.143000", "130221.146000", "130221.149000", "130221.152000", "130221.154000", "130221.157000", "130221.159000", "130221.162000", "130221.165000", "130221.167000", "130221.170000", "130221.172000", "130221.175000", "130221.178000", "130221.180000", "130221.183000", "130221.185000", "130221.188000", "130221.190000", "130221.193000", "130221.195000", "130221.198000", "130221.201000", "130221.203000", "130221.206000", "130221.208000", "130221.227000", "130221.240000", "130221.243000", "130221.245000", "130221.248000", "130221.251000", "130301.137000", "130301.140000", "130301.143000", "130301.145000", "130301.148000", "130301.151000", "130301.153000", "130301.156000", "130301.158000", "130301.161000", "130301.163000", "130301.166000", "130301.168000", "130301.171000", "130301.174000", "130301.177000", "130301.179000", "130301.182000", "130301.184000", "130301.187000", "130301.189000", "130301.192000", "130301.202000", "130301.205000", "130301.207000", "130301.210000", "130301.213000", "130301.215000", "130301.218000", "130301.220000", "130301.223000", "130301.225000", "130301.228000", "130316.307000", "130316.310000", "130316.313000", "130316.316000", "130316.318000", "130316.321000", "130316.324000", "130316.326000", "130316.329000", "130316.332000", "130316.334000", "130316.337000", "130316.339000"],
      "InstanceNumber": [1, 2, 3, 4, 5, 6, 7, 8, 9, 10, 11, 12, 13, 14, 15, 16, 17, 18, 19, 20, 21, 22, 23, 24, 25, 26, 27, 28, 29, 30, 31, 32, 33, 34, 35, 36, 37, 38, 39, 40, 41, 42, 43, 44, 45, 46, 47, 48, 49, 50, 51, 52, 53, 54, 55, 56, 57, 58, 59, 60, 61, 62, 63, 64, 65, 66, 67, 68, 69, 70, 71, 72, 73, 74, 75, 76, 77, 78, 79, 80, 81, 82, 83, 84, 85, 86, 87, 88, 89, 90, 91, 92, 93, 94, 95, 96, 97, 98, 99, 100, 101, 102, 103, 104, 105, 106, 107, 108, 109, 110, 111, 112, 113, 114, 115, 116, 117, 118, 119, 120, 121, 122, 123, 124, 125, 126, 127, 128, 129, 130, 131, 132, 133, 134, 135, 136, 137, 138, 139, 140, 141, 142, 143, 144, 145, 146, 147, 148, 149, 150, 151, 152, 153, 154, 155, 156, 157, 158, 159, 160, 161, 162, 163, 164, 165, 166, 167, 168, 169, 170, 171, 172, 173, 174, 175, 176, 177, 178, 179, 180, 181, 182, 183, 184, 185, 186, 187, 188, 189, 190, 191, 192, 193, 194, 195, 196, 197, 198, 199, 200, 201, 202, 203, 204, 205, 206, 207, 208, 209, 210, 211, 212, 213, 214, 215, 216, 217, 218, 219, 220, 221, 222, 223, 224, 225, 226, 227, 228, 229, 230, 231, 232, 233, 234, 235, 236, 237, 238, 239, 240, 241, 242, 243, 244, 245, 246, 247, 248, 249, 250, 251, 252, 253, 254, 255, 256, 257, 258, 259, 260, 261, 262, 263, 264, 265, 266, 267, 268, 269, 270, 271, 272, 273, 274, 275, 276, 277, 278, 279, 280, 281, 282, 283, 284, 285, 286, 287, 288, 289, 290, 291, 292, 293, 294, 295, 296, 297, 298, 299, 300, 301, 302, 303, 304, 305, 306, 307, 308, 309, 310, 311, 312, 313, 314, 315, 316, 317, 318, 319, 320, 321, 322, 323, 324, 325, 326, 327, 328, 329, 330, 331, 332, 333, 334, 335, 336, 337, 338, 339, 340, 341, 342, 343, 344, 345, 346, 347, 348, 349, 350, 351, 352, 353, 354, 355, 356, 357, 358, 359, 360, 361, 362, 363, 364, 365, 366, 367, 368, 369, 370, 371, 372, 373, 374, 375, 376, 377, 378, 379, 380, 381, 382, 383, 384, 385, 386, 387, 388, 389, 390, 391, 392],
