{
  "AcquisitionMatrixPE": 88,
  "AcquisitionNumber": 1,
  "AcquisitionTime": "13:43:45.162500",
  "BandwidthPerPixelPhaseEncode": 19.592,
  "BaseResolution": 88,
  "BodyPartExamined": "BRAIN",
  "ConsistencyInfo": "N4_VE11C_LATEST_20160120",
  "ConversionSoftware": "dcm2niix",
  "ConversionSoftwareVersion": "v1.0.20190902",
  "DerivedVendorReportedEchoSpacing": 0.000580014,
  "DeviceSerialNumber": "67050",
  "DwellTime": 2.6e-06,
  "EchoTime": 0.033,
  "EchoTrainLength": 88,
  "EffectiveEchoSpacing": 0.000580014,
  "FlipAngle": 62,
  "ImageOrientationPatientDICOM": [0.992185, 0.116564, 0.0445073, -0.104633, 0.971625, -0.212124],
  "ImageType": [
    "ORIGINAL",
    "PRIMARY",
    "M",
    "ND",
    "MOSAIC"
],
  "ImagingFrequency": 123.251,
  "InPlanePhaseEncodingDirectionDICOM": "COL",
  "InstitutionAddress": "Olive_Street_60_Providence_RI_US_02912",
  "InstitutionName": "BROWN_UNIVERSITY_MRF",
  "InstitutionalDepartmentName": "Department",
  "MRAcquisitionType": "2D",
  "MagneticFieldStrength": 3,
  "Manufacturer": "Siemens",
  "ManufacturersModelName": "Prisma_fit",
  "Modality": "MR",
  "MultibandAccelerationFactor": 4,
  "PartialFourier": 1,
  "PatientPosition": "HFS",
  "PercentPhaseFOV": 100,
  "PhaseEncodingDirection": "j-",
  "PhaseEncodingSteps": 88,
  "PhaseResolution": 1,
  "PixelBandwidth": 2185,
  "ProcedureStepDescription": "ASHENHAV_1222",
  "ProtocolName": "func-bold_task-RDMcolor_run-05",
  "PulseSequenceDetails": "%SiemensSeq%_ep2d_bold",
  "ReceiveCoilActiveElements": "HC1-7;NC1",
  "ReceiveCoilName": "HeadNeck_64",
  "ReconMatrixPE": 88,
  "RefLinesPE": 8,
  "RepetitionTime": 1.2,
  "SAR": 0.0441591,
  "ScanOptions": "FS",
  "ScanningSequence": "EP",
  "SequenceName": "_epfid2d1_88",
  "SequenceVariant": "SK",
  "SeriesDescription": "func-bold_task-RDMcolor_run-05",
  "SeriesNumber": 16,
  "ShimSetting": [1753, -9105, 4379, 399, -75, -372, -126, -1],
  "SliceThickness": 2.4,
  "SliceTiming": [0.55, 0, 0.63, 0.0775, 0.7075, 0.1575, 0.7875, 0.235, 0.865, 0.315, 0.9425, 0.3925, 1.0225, 0.4725, 1.1, 0.55, 0, 0.63, 0.0775, 0.7075, 0.1575, 0.7875, 0.235, 0.865, 0.315, 0.9425, 0.3925, 1.0225, 0.4725, 1.1, 0.55, 0, 0.63, 0.0775, 0.7075, 0.1575, 0.7875, 0.235, 0.865, 0.315, 0.9425, 0.3925, 1.0225, 0.4725, 1.1, 0.55, 0, 0.63, 0.0775, 0.7075, 0.1575, 0.7875, 0.235, 0.865, 0.315, 0.9425, 0.3925, 1.0225, 0.4725, 1.1],
  "SoftwareVersions": "syngo_MR_E11",
  "SpacingBetweenSlices": 2.4,
  "StationName": "AWP67050",
  "TaskName": "RDMcolor",
  "TotalReadoutTime": 0.0504612,
  "TxRefAmp": 218.152,
  "dcmmeta_affine": [
    [-2.3789901733398438, -0.25088149309158325, 0.16312886774539948, 113.1288833618164],
    [-0.2794884443283081, 2.3296921253204346, -0.4939415156841278, -67.01716613769531],
    [0.10671635717153549, 0.5086144208908081, 2.342949151992798, -94.04196166992188],
    [0.0, 0.0, 0.0, 1.0]
],
  "dcmmeta_reorient_transform": [
    [0.0, -1.0, 0.0, 87.0],
    [1.0, 0.0, 0.0, 0.0],
    [0.0, 0.0, 1.0, 0.0],
    [0.0, 0.0, 0.0, 1.0]
],
  "dcmmeta_shape": [88, 88, 60, 392],
  "dcmmeta_slice_dim": 2,
  "dcmmeta_version": 0.6,
  "global": {
    "const": {
      "AcquisitionMatrix": [88, 0, 0, 88],
      "AngioFlag": "N",
      "BitsAllocated": 16,
      "BitsStored": 12,
      "BodyPartExamined": "BRAIN",
      "Columns": 704,
      "DeidentificationMethodCodeSequence": [
        {
          "CodeMeaning": "XNAT DicomEdit 6 Script",
          "CodeValue": "3",
          "CodingSchemeDesignator": "XNAT",
          "CodingSchemeVersion": "1.0"}
],
      "EchoNumbers": 1,
      "EchoTime": 33.0,
      "EchoTrainLength": 88,
      "FlipAngle": 62.0,
      "HighBit": 11,
      "ImageOrientationPatient": [0.99218544443487, 0.1165639069301, 0.04450729662394, -0.104633044433, 0.97162519899935, -0.2121235457986],
      "ImagePositionPatient": [-746.75963101767, -939.29370724017, 73.992092211587],
      "ImageType": [
        "ORIGINAL",
        "PRIMARY",
        "M",
        "ND",
        "MOSAIC"
],
      "ImagedNucleus": "1H",
      "ImagingFrequency": 123.250612,
      "InPlanePhaseEncodingDirection": "COL",
      "MRAcquisitionType": "2D",
      "MagneticFieldStrength": 3.0,
      "Manufacturer": "SIEMENS",
      "ManufacturerModelName": "Prisma_fit",
      "Modality": "MR",
      "NumberOfAverages": 1.0,
      "NumberOfPhaseEncodingSteps": 88,
      "PercentPhaseFieldOfView": 100.0,
      "PercentSampling": 100.0,
      "PerformedProcedureStepStartTime": "121325.150000",
      "PhotometricInterpretation": "MONOCHROME2",
      "PixelBandwidth": 2185.0,
      "PixelRepresentation": 0,
      "PixelSpacing": [2.3977272510529, 2.3977272510529],
      "ProtocolName": "func-bold_task-RDMcolor_run-05",
      "RepetitionTime": 1200.0,
      "Rows": 704,
      "SAR": 0.04415911874986,
      "SamplesPerPixel": 1,
      "ScanOptions": "FS",
      "ScanningSequence": "EP",
      "SequenceName": "*epfid2d1_88",
      "SequenceVariant": "SK",
      "SeriesDescription": "func-bold_task-RDMcolor_run-05",
      "SeriesNumber": 16,
      "SeriesTime": "134427.971000",
      "SliceLocation": -70.32432790832,
      "SliceThickness": 2.4000000953674,
      "SmallestImagePixelValue": 0,
      "SoftwareVersions": "syngo MR E11",
      "SpacingBetweenSlices": 2.400000012327,
      "SpecificCharacterSet": "ISO_IR 100",
      "StudyID": "1",
      "StudyTime": "121325.008000",
      "TransmitCoilName": "Body",
      "VariableFlipAngleFlag": "N",
      "WindowCenterWidthExplanation": "Algo1",
      "dBdt": 0.0},
    "slices": {}
  },
  "time": {
    "samples": {
      "AcquisitionNumber": [1, 2, 3, 4, 5, 6, 7, 8, 9, 10, 11, 12, 13, 14, 15, 16, 17, 18, 19, 20, 21, 22, 23, 24, 25, 26, 27, 28, 29, 30, 31, 32, 33, 34, 35, 36, 37, 38, 39, 40, 41, 42, 43, 44, 45, 46, 47, 48, 49, 50, 51, 52, 53, 54, 55, 56, 57, 58, 59, 60, 61, 62, 63, 64, 65, 66, 67, 68, 69, 70, 71, 72, 73, 74, 75, 76, 77, 78, 79, 80, 81, 82, 83, 84, 85, 86, 87, 88, 89, 90, 91, 92, 93, 94, 95, 96, 97, 98, 99, 100, 101, 102, 103, 104, 105, 106, 107, 108, 109, 110, 111, 112, 113, 114, 115, 116, 117, 118, 119, 120, 121, 122, 123, 124, 125, 126, 127, 128, 129, 130, 131, 132, 133, 134, 135, 136, 137, 138, 139, 140, 141, 142, 143, 144, 145, 146, 147, 148, 149, 150, 151, 152, 153, 154, 155, 156, 157, 158, 159, 160, 161, 162, 163, 164, 165, 166, 167, 168, 169, 170, 171, 172, 173, 174, 175, 176, 177, 178, 179, 180, 181, 182, 183, 184, 185, 186, 187, 188, 189, 190, 191, 192, 193, 194, 195, 196, 197, 198, 199, 200, 201, 202, 203, 204, 205, 206, 207, 208, 209, 210, 211, 212, 213, 214, 215, 216, 217, 218, 219, 220, 221, 222, 223, 224, 225, 226, 227, 228, 229, 230, 231, 232, 233, 234, 235, 236, 237, 238, 239, 240, 241, 242, 243, 244, 245, 246, 247, 248, 249, 250, 251, 252, 253, 254, 255, 256, 257, 258, 259, 260, 261, 262, 263, 264, 265, 266, 267, 268, 269, 270, 271, 272, 273, 274, 275, 276, 277, 278, 279, 280, 281, 282, 283, 284, 285, 286, 287, 288, 289, 290, 291, 292, 293, 294, 295, 296, 297, 298, 299, 300, 301, 302, 303, 304, 305, 306, 307, 308, 309, 310, 311, 312, 313, 314, 315, 316, 317, 318, 319, 320, 321, 322, 323, 324, 325, 326, 327, 328, 329, 330, 331, 332, 333, 334, 335, 336, 337, 338, 339, 340, 341, 342, 343, 344, 345, 346, 347, 348, 349, 350, 351, 352, 353, 354, 355, 356, 357, 358, 359, 360, 361, 362, 363, 364, 365, 366, 367, 368, 369, 370, 371, 372, 373, 374, 375, 376, 377, 378, 379, 380, 381, 382, 383, 384, 385, 386, 387, 388, 389, 390, 391, 392],
      "AcquisitionTime": ["134345.162500", "134346.362500", "134347.562500", "134348.762500", "134349.962500", "134351.162500", "134352.362500", "134353.562500", "134354.762500", "134355.962500", "134357.162500", "134358.362500", "134359.562500", "134400.762500", "134401.962500", "134403.162500", "134404.362500", "134405.562500", "134406.762500", "134407.962500", "134409.162500", "134410.362500", "134411.562500", "134412.762500", "134413.962500", "134415.162500", "134416.362500", "134417.562500", "134418.762500", "134419.962500", "134421.162500", "134422.362500", "134423.562500", "134424.762500", "134425.962500", "134427.162500", "134428.362500", "134429.562500", "134430.762500", "134431.962500", "134433.162500", "134434.362500", "134435.562500", "134436.762500", "134437.962500", "134439.162500", "134440.362500", "134441.562500", "134442.762500", "134443.962500", "134445.162500", "134446.362500", "134447.562500", "134448.762500", "134449.962500", "134451.162500", "134452.362500", "134453.562500", "134454.762500", "134455.962500", "134457.162500", "134458.362500", "134459.562500", "134500.762500", "134501.962500", "134503.162500", "134504.362500", "134505.562500", "134506.762500", "134507.962500", "134509.162500", "134510.362500", "134511.562500", "134512.762500", "134513.962500", "134515.162500", "134516.362500", "134517.562500", "134518.762500", "134519.962500", "134521.162500", "134522.362500", "134523.562500", "134524.762500", "134525.962500", "134527.162500", "134528.362500", "134529.562500", "134530.762500", "134531.962500", "134533.162500", "134534.362500", "134535.562500", "134536.762500", "134537.962500", "134539.162500", "134540.362500", "134541.562500", "134542.762500", "134543.962500", "134545.162500", "134546.362500", "134547.562500", "134548.762500", "134549.962500", "134551.162500", "134552.362500", "134553.562500", "134554.762500", "134555.962500", "134557.162500", "134558.362500", "134559.562500", "134600.762500", "134601.962500", "134603.162500", "134604.362500", "134605.562500", "134606.762500", "134607.962500", "134609.162500", "134610.362500", "134611.562500", "134612.762500", "134613.962500", "134615.162500", "134616.362500", "134617.562500", "134618.762500", "134619.962500", "134621.162500", "134622.362500", "134623.562500", "134624.762500", "134625.962500", "134627.162500", "134628.362500", "134629.562500", "134630.762500", "134631.962500", "134633.162500", "134634.362500", "134635.562500", "134636.762500", "134637.962500", "134639.162500", "134640.362500", "134641.562500", "134642.762500", "134643.962500", "134645.162500", "134646.362500", "134647.562500", "134648.762500", "134649.962500", "134651.162500", "134652.362500", "134653.562500", "134654.762500", "134655.962500", "134657.162500", "134658.362500", "134659.562500", "134700.762500", "134701.962500", "134703.162500", "134704.362500", "134705.562500", "134706.762500", "134707.962500", "134709.162500", "134710.362500", "134711.562500", "134712.762500", "134713.962500", "134715.162500", "134716.362500", "134717.562500", "134718.762500", "134719.962500", "134721.162500", "134722.362500", "134723.562500", "134724.762500", "134725.962500", "134727.162500", "134728.362500", "134729.562500", "134730.762500", "134731.962500", "134733.162500", "134734.362500", "134735.562500", "134736.762500", "134737.962500", "134739.162500", "134740.362500", "134741.562500", "134742.762500", "134743.962500", "134745.162500", "134746.362500", "134747.562500", "134748.762500", "134749.962500", "134751.162500", "134752.362500", "134753.562500", "134754.762500", "134755.962500", "134757.162500", "134758.362500", "134759.562500", "134800.762500", "134801.962500", "134803.162500", "134804.362500", "134805.562500", "134806.762500", "134807.962500", "134809.162500", "134810.362500", "134811.562500", "134812.762500", "134813.962500", "134815.162500", "134816.362500", "134817.562500", "134818.762500", "134819.962500", "134821.162500", "134822.362500", "134823.562500", "134824.762500", "134825.962500", "134827.162500", "134828.362500", "134829.562500", "134830.762500", "134831.962500", "134833.162500", "134834.362500", "134835.562500", "134836.762500", "134837.962500", "134839.162500", "134840.362500", "134841.562500", "134842.762500", "134843.962500", "134845.162500", "134846.362500", "134847.562500", "134848.762500", "134849.962500", "134851.162500", "134852.362500", "134853.562500", "134854.762500", "134855.962500", "134857.162500", "134858.362500", "134859.562500", "134900.762500", "134901.962500", "134903.162500", "134904.362500", "134905.562500", "134906.762500", "134907.962500", "134909.162500", "134910.362500", "134911.562500", "134912.762500", "134913.962500", "134915.162500", "134916.362500", "134917.562500", "134918.762500", "134919.962500", "134921.162500", "134922.362500", "134923.562500", "134924.762500", "134925.962500", "134927.162500", "134928.362500", "134929.562500", "134930.762500", "134931.962500", "134933.162500", "134934.362500", "134935.562500", "134936.762500", "134937.962500", "134939.162500", "134940.362500", "134941.562500", "134942.762500", "134943.962500", "134945.162500", "134946.362500", "134947.562500", "134948.762500", "134949.962500", "134951.162500", "134952.362500", "134953.562500", "134954.762500", "134955.962500", "134957.162500", "134958.362500", "134959.562500", "135000.762500", "135001.962500", "135003.162500", "135004.362500", "135005.562500", "135006.762500", "135007.962500", "135009.162500", "135010.362500", "135011.562500", "135012.762500", "135013.962500", "135015.162500", "135016.362500", "135017.562500", "135018.762500", "135019.962500", "135021.162500", "135022.362500", "135023.562500", "135024.762500", "135025.962500", "135027.162500", "135028.362500", "135029.562500", "135030.762500", "135031.962500", "135033.162500", "135034.362500", "135035.562500", "135036.762500", "135037.962500", "135039.162500", "135040.362500", "135041.562500", "135042.762500", "135043.962500", "135045.162500", "135046.362500", "135047.562500", "135048.762500", "135049.962500", "135051.162500", "135052.362500", "135053.562500", "135054.762500", "135055.962500", "135057.162500", "135058.362500", "135059.562500", "135100.762500", "135101.962500", "135103.162500", "135104.362500", "135105.562500", "135106.762500", "135107.962500", "135109.162500", "135110.362500", "135111.562500", "135112.762500", "135113.962500", "135115.162500", "135116.362500", "135117.562500", "135118.762500", "135119.962500", "135121.162500", "135122.362500", "135123.562500", "135124.762500", "135125.962500", "135127.162500", "135128.362500", "135129.562500", "135130.762500", "135131.962500", "135133.162500", "135134.362500"],
      "ContentTime": ["134427.975000", "134427.978000", "134427.980000", "134427.987000", "134427.990000", "134427.992000", "134427.995000", "134427.998000", "134428.001000", "134428.004000", "134428.006000", "134428.009000", "134428.011000", "134428.014000", "134428.017000", "134428.019000", "134428.022000", "134428.024000", "134428.027000", "134428.029000", "134428.032000", "134428.035000", "134428.037000", "134428.040000", "134428.043000", "134428.045000", "134428.048000", "134428.050000", "134428.053000", "134428.055000", "134428.058000", "134428.061000", "134428.063000", "134428.066000", "134428.068000", "134507.970000", "134507.973000", "134507.977000", "134507.979000", "134507.982000", "134507.985000", "134507.987000", "134507.990000", "134507.992000", "134507.995000", "134507.998000", "134508.002000", "134508.004000", "134508.007000", "134508.010000", "134508.012000", "134508.015000", "134508.017000", "134508.020000", "134508.022000", "134508.025000", "134508.027000", "134508.030000", "134508.033000", "134508.035000", "134508.038000", "134508.041000", "134508.043000", "134508.046000", "134508.048000", "134508.051000", "134508.054000", "134508.056000", "134547.972000", "134547.974000", "134547.977000", "134547.980000", "134547.982000", "134547.985000", "134547.988000", "134547.990000", "134547.993000", "134547.996000", "134548.014000", "134548.017000", "134548.019000", "134548.029000", "134548.032000", "134548.035000", "134548.037000", "134548.049000", "134548.052000", "134548.054000", "134548.057000", "134548.060000", "134548.062000", "134548.065000", "134548.067000", "134548.070000", "134548.073000", "134548.075000", "134548.078000", "134548.080000", "134548.083000", "134548.085000", "134548.088000", "134627.971000", "134627.974000", "134627.977000", "134627.979000", "134627.982000", "134627.985000", "134627.987000", "134627.990000", "134627.992000", "134627.995000", "134627.998000", "134628.001000", "134628.004000", "134628.006000", "134628.009000", "134628.011000", "134628.014000", "134628.017000", "134628.019000", "134628.022000", "134628.024000", "134628.027000", "134628.029000", "134628.032000", "134628.034000", "134628.045000", "134628.048000", "134628.050000", "134628.053000", "134628.056000", "134628.059000", "134628.061000", "134628.064000", "134628.066000", "134707.970000", "134707.973000", "134707.978000", "134707.981000", "134707.983000", "134707.986000", "134707.988000", "134707.991000", "134707.993000", "134707.996000", "134708.000000", "134708.002000", "134708.005000", "134708.007000", "134708.010000", "134708.012000", "134708.015000", "134708.018000", "134708.020000", "134708.023000", "134708.025000", "134708.028000", "134708.031000", "134708.033000", "134708.036000", "134708.038000", "134708.041000", "134708.044000", "134708.046000", "134708.049000", "134708.051000", "134708.054000", "134708.056000", "134747.971000", "134747.975000", "134747.989000", "134747.991000", "134747.994000", "134747.997000", "134747.999000", "134748.002000", "134748.004000", "134748.007000", "134748.009000", "134748.012000", "134748.015000", "134748.017000", "134748.020000", "134748.022000", "134748.025000", "134748.028000", "134748.030000", "134748.033000", "134748.035000", "134748.038000", "134748.041000", "134748.043000", "134748.046000", "134748.048000", "134748.051000", "134748.054000", "134748.056000", "134748.059000", "134748.061000", "134748.064000", "134748.067000", "134748.069000", "134827.972000", "134827.974000", "134827.977000", "134827.979000", "134827.982000", "134827.985000", "134827.987000", "134827.990000", "134827.992000", "134827.995000", "134827.998000", "134828.001000", "134828.004000", "134828.006000", "134828.009000", "134828.011000", "134828.020000", "134828.023000", "134828.025000", "134828.028000", "134828.030000", "134828.033000", "134828.036000", "134828.038000", "134828.041000", "134828.043000", "134828.046000", "134828.048000", "134828.051000", "134828.054000", "134828.056000", "134828.059000", "134828.061000", "134907.971000", "134907.973000", "134907.977000", "134907.979000", "134907.982000", "134907.985000", "134907.987000", "134907.990000", "134907.993000", "134907.995000", "134907.998000", "134908.001000", "134908.004000", "134908.006000", "134908.009000", "134908.012000", "134908.014000", "134908.017000", "134908.020000", "134908.022000", "134908.025000", "134908.027000", "134908.030000", "134908.032000", "134908.035000", "134908.038000", "134908.040000", "134908.043000", "134908.045000", "134908.048000", "134908.051000", "134908.053000", "134908.056000", "134947.970000", "134947.974000", "134947.976000", "134947.979000", "134947.981000", "134947.984000", "134947.987000", "134948.002000", "134948.005000", "134948.007000", "134948.010000", "134948.013000", "134948.015000", "134948.018000", "134948.021000", "134948.023000", "134948.026000", "134948.028000", "134948.031000", "134948.034000", "134948.036000", "134948.039000", "134948.041000", "134948.044000", "134948.046000", "134948.049000", "134948.052000", "134948.054000", "134948.057000", "134948.059000", "134948.062000", "134948.064000", "134948.067000", "134948.070000", "135027.972000", "135027.975000", "135027.977000", "135027.980000", "135027.982000", "135027.985000", "135027.987000", "135027.990000", "135027.993000", "135027.995000", "135027.998000", "135028.001000", "135028.004000", "135028.007000", "135028.009000", "135028.012000", "135028.014000", "135028.017000", "135028.020000", "135028.022000", "135028.025000", "135028.027000", "135028.030000", "135028.032000", "135028.035000", "135028.038000", "135028.040000", "135028.043000", "135028.045000", "135028.048000", "135028.050000", "135028.053000", "135028.055000", "135107.971000", "135107.975000", "135107.978000", "135107.980000", "135107.983000", "135107.986000", "135107.988000", "135107.991000", "135107.994000", "135107.996000", "135108.000000", "135108.002000", "135108.005000", "135108.007000", "135108.010000", "135108.013000", "135108.015000", "135108.018000", "135108.021000", "135108.023000", "135108.026000", "135108.028000", "135108.031000", "135108.034000", "135108.036000", "135108.039000", "135108.042000", "135108.044000", "135108.047000", "135108.049000", "135108.052000", "135108.055000", "135108.057000", "135136.013000", "135136.016000", "135136.019000", "135136.021000", "135136.024000", "135136.027000", "135136.029000", "135136.032000", "135136.034000", "135136.037000", "135136.040000", "135136.042000", "135136.045000", "135136.047000", "135136.050000", "135136.053000", "135136.055000", "135136.058000", "135136.060000", "135136.063000", "135136.065000", "135136.068000", "135136.071000", "135136.073000"],
      "InstanceCreationTime": ["134427.975000", "134427.978000", "134427.980000", "134427.987000", "134427.990000", "134427.992000", "134427.995000", "134427.998000", "134428.001000", "134428.004000", "134428.006000", "134428.009000", "134428.011000", "134428.014000", "134428.017000", "134428.019000", "134428.022000", "134428.024000", "134428.027000", "134428.029000", "134428.032000", "134428.035000", "134428.037000", "134428.040000", "134428.043000", "134428.045000", "134428.048000", "134428.050000", "134428.053000", "134428.055000", "134428.058000", "134428.061000", "134428.063000", "134428.066000", "134428.068000", "134507.970000", "134507.973000", "134507.977000", "134507.979000", "134507.982000", "134507.985000", "134507.987000", "134507.990000", "134507.992000", "134507.995000", "134507.998000", "134508.002000", "134508.004000", "134508.007000", "134508.010000", "134508.012000", "134508.015000", "134508.017000", "134508.020000", "134508.022000", "134508.025000", "134508.027000", "134508.030000", "134508.033000", "134508.035000", "134508.038000", "134508.041000", "134508.043000", "134508.046000", "134508.048000", "134508.051000", "134508.054000", "134508.056000", "134547.972000", "134547.974000", "134547.977000", "134547.980000", "134547.982000", "134547.985000", "134547.988000", "134547.990000", "134547.993000", "134547.996000", "134548.014000", "134548.017000", "134548.019000", "134548.029000", "134548.032000", "134548.035000", "134548.037000", "134548.049000", "134548.052000", "134548.054000", "134548.057000", "134548.060000", "134548.062000", "134548.065000", "134548.067000", "134548.070000", "134548.073000", "134548.075000", "134548.078000", "134548.080000", "134548.083000", "134548.085000", "134548.088000", "134627.971000", "134627.974000", "134627.977000", "134627.979000", "134627.982000", "134627.985000", "134627.987000", "134627.990000", "134627.992000", "134627.995000", "134627.998000", "134628.001000", "134628.004000", "134628.006000", "134628.009000", "134628.011000", "134628.014000", "134628.017000", "134628.019000", "134628.022000", "134628.024000", "134628.027000", "134628.029000", "134628.032000", "134628.034000", "134628.045000", "134628.048000", "134628.050000", "134628.053000", "134628.056000", "134628.059000", "134628.061000", "134628.064000", "134628.066000", "134707.970000", "134707.973000", "134707.978000", "134707.981000", "134707.983000", "134707.986000", "134707.988000", "134707.991000", "134707.993000", "134707.996000", "134708.000000", "134708.002000", "134708.005000", "134708.007000", "134708.010000", "134708.012000", "134708.015000", "134708.018000", "134708.020000", "134708.023000", "134708.025000", "134708.028000", "134708.031000", "134708.033000", "134708.036000", "134708.038000", "134708.041000", "134708.044000", "134708.046000", "134708.049000", "134708.051000", "134708.054000", "134708.056000", "134747.971000", "134747.975000", "134747.989000", "134747.991000", "134747.994000", "134747.997000", "134747.999000", "134748.002000", "134748.004000", "134748.007000", "134748.009000", "134748.012000", "134748.015000", "134748.017000", "134748.020000", "134748.022000", "134748.025000", "134748.028000", "134748.030000", "134748.033000", "134748.035000", "134748.038000", "134748.041000", "134748.043000", "134748.046000", "134748.048000", "134748.051000", "134748.054000", "134748.056000", "134748.059000", "134748.061000", "134748.064000", "134748.067000", "134748.069000", "134827.972000", "134827.974000", "134827.977000", "134827.979000", "134827.982000", "134827.985000", "134827.987000", "134827.990000", "134827.992000", "134827.995000", "134827.998000", "134828.001000", "134828.004000", "134828.006000", "134828.009000", "134828.011000", "134828.020000", "134828.023000", "134828.025000", "134828.028000", "134828.030000", "134828.033000", "134828.036000", "134828.038000", "134828.041000", "134828.043000", "134828.046000", "134828.048000", "134828.051000", "134828.054000", "134828.056000", "134828.059000", "134828.061000", "134907.971000", "134907.973000", "134907.977000", "134907.979000", "134907.982000", "134907.985000", "134907.987000", "134907.990000", "134907.993000", "134907.995000", "134907.998000", "134908.001000", "134908.004000", "134908.006000", "134908.009000", "134908.012000", "134908.014000", "134908.017000", "134908.020000", "134908.022000", "134908.025000", "134908.027000", "134908.030000", "134908.032000", "134908.035000", "134908.038000", "134908.040000", "134908.043000", "134908.045000", "134908.048000", "134908.051000", "134908.053000", "134908.056000", "134947.970000", "134947.974000", "134947.976000", "134947.979000", "134947.981000", "134947.984000", "134947.987000", "134948.002000", "134948.005000", "134948.007000", "134948.010000", "134948.013000", "134948.015000", "134948.018000", "134948.021000", "134948.023000", "134948.026000", "134948.028000", "134948.031000", "134948.034000", "134948.036000", "134948.039000", "134948.041000", "134948.044000", "134948.046000", "134948.049000", "134948.052000", "134948.054000", "134948.057000", "134948.059000", "134948.062000", "134948.064000", "134948.067000", "134948.070000", "135027.972000", "135027.975000", "135027.977000", "135027.980000", "135027.982000", "135027.985000", "135027.987000", "135027.990000", "135027.993000", "135027.995000", "135027.998000", "135028.001000", "135028.004000", "135028.007000", "135028.009000", "135028.012000", "135028.014000", "135028.017000", "135028.020000", "135028.022000", "135028.025000", "135028.027000", "135028.030000", "135028.032000", "135028.035000", "135028.038000", "135028.040000", "135028.043000", "135028.045000", "135028.048000", "135028.050000", "135028.053000", "135028.055000", "135107.971000", "135107.975000", "135107.978000", "135107.980000", "135107.983000", "135107.986000", "135107.988000", "135107.991000", "135107.994000", "135107.996000", "135108.000000", "135108.002000", "135108.005000", "135108.007000", "135108.010000", "135108.013000", "135108.015000", "135108.018000", "135108.021000", "135108.023000", "135108.026000", "135108.028000", "135108.031000", "135108.034000", "135108.036000", "135108.039000", "135108.042000", "135108.044000", "135108.047000", "135108.049000", "135108.052000", "135108.055000", "135108.057000", "135136.013000", "135136.016000", "135136.019000", "135136.021000", "135136.024000", "135136.027000", "135136.029000", "135136.032000", "135136.034000", "135136.037000", "135136.040000", "135136.042000", "135136.045000", "135136.047000", "135136.050000", "135136.053000", "135136.055000", "135136.058000", "135136.060000", "135136.063000", "135136.065000", "135136.068000", "135136.071000", "135136.073000"],
      "InstanceNumber": [1, 2, 3, 4, 5, 6, 7, 8, 9, 10, 11, 12, 13, 14, 15, 16, 17, 18, 19, 20, 21, 22, 23, 24, 25, 26, 27, 28, 29, 30, 31, 32, 33, 34, 35, 36, 37, 38, 39, 40, 41, 42, 43, 44, 45, 46, 47, 48, 49, 50, 51, 52, 53, 54, 55, 56, 57, 58, 59, 60, 61, 62, 63, 64, 65, 66, 67, 68, 69, 70, 71, 72, 73, 74, 75, 76, 77, 78, 79, 80, 81, 82, 83, 84, 85, 86, 87, 88, 89, 90, 91, 92, 93, 94, 95, 96, 97, 98, 99, 100, 101, 102, 103, 104, 105, 106, 107, 108, 109, 110, 111, 112, 113, 114, 115, 116, 117, 118, 119, 120, 121, 122, 123, 124, 125, 126, 127, 128, 129, 130, 131, 132, 133, 134, 135, 136, 137, 138, 139, 140, 141, 142, 143, 144, 145, 146, 147, 148, 149, 150, 151, 152, 153, 154, 155, 156, 157, 158, 159, 160, 161, 162, 163, 164, 165, 166, 167, 168, 169, 170, 171, 172, 173, 174, 175, 176, 177, 178, 179, 180, 181, 182, 183, 184, 185, 186, 187, 188, 189, 190, 191, 192, 193, 194, 195, 196, 197, 198, 199, 200, 201, 202, 203, 204, 205, 206, 207, 208, 209, 210, 211, 212, 213, 214, 215, 216, 217, 218, 219, 220, 221, 222, 223, 224, 225, 226, 227, 228, 229, 230, 231, 232, 233, 234, 235, 236, 237, 238, 239, 240, 241, 242, 243, 244, 245, 246, 247, 248, 249, 250, 251, 252, 253, 254, 255, 256, 257, 258, 259, 260, 261, 262, 263, 264, 265, 266, 267, 268, 269, 270, 271, 272, 273, 274, 275, 276, 277, 278, 279, 280, 281, 282, 283, 284, 285, 286, 287, 288, 289, 290, 291, 292, 293, 294, 295, 296, 297, 298, 299, 300, 301, 302, 303, 304, 305, 306, 307, 308, 309, 310, 311, 312, 313, 314, 315, 316, 317, 318, 319, 320, 321, 322, 323, 324, 325, 326, 327, 328, 329, 330, 331, 332, 333, 334, 335, 336, 337, 338, 339, 340, 341, 342, 343, 344, 345, 346, 347, 348, 349, 350, 351, 352, 353, 354, 355, 356, 357, 358, 359, 360, 361, 362, 363, 364, 365, 366, 367, 368, 369, 370, 371, 372, 373, 374, 375, 376, 377, 378, 379, 380, 381, 382, 383, 384, 385, 386, 387, 388, 389, 390, 391, 392],
