{
  "AcquisitionMatrixPE": 88,
  "AcquisitionNumber": 1,
  "AcquisitionTime": "15:39:18.332500",
  "BandwidthPerPixelPhaseEncode": 19.592,
  "BaseResolution": 88,
  "BodyPartExamined": "BRAIN",
  "ConsistencyInfo": "N4_VE11C_LATEST_20160120",
  "ConversionSoftware": "dcm2niix",
  "ConversionSoftwareVersion": "v1.0.20190902",
  "DerivedVendorReportedEchoSpacing": 0.000580014,
  "DeviceSerialNumber": "67050",
  "DwellTime": 2.6e-06,
  "EchoTime": 0.033,
  "EchoTrainLength": 88,
  "EffectiveEchoSpacing": 0.000580014,
  "FlipAngle": 62,
  "ImageOrientationPatientDICOM": [0.996601, 0.014862, 0.081029, -0.0114805, 0.99905, -0.0420397],
  "ImageType": [
    "ORIGINAL",
    "PRIMARY",
    "M",
    "ND",
    "MOSAIC"
],
  "ImagingFrequency": 123.251,
  "InPlanePhaseEncodingDirectionDICOM": "COL",
  "InstitutionAddress": "Olive_Street_60_Providence_RI_US_02912",
  "InstitutionName": "BROWN_UNIVERSITY_MRF",
  "InstitutionalDepartmentName": "Department",
  "MRAcquisitionType": "2D",
  "MagneticFieldStrength": 3,
  "Manufacturer": "Siemens",
  "ManufacturersModelName": "Prisma_fit",
  "Modality": "MR",
  "MultibandAccelerationFactor": 4,
  "PartialFourier": 1,
  "PatientPosition": "HFS",
  "PercentPhaseFOV": 100,
  "PhaseEncodingDirection": "j-",
  "PhaseEncodingSteps": 88,
  "PhaseResolution": 1,
  "PixelBandwidth": 2185,
  "ProcedureStepDescription": "ASHENHAV_1222",
  "ProtocolName": "func-bold_task-RDMcolor_run-02",
  "PulseSequenceDetails": "%SiemensSeq%_ep2d_bold",
  "ReceiveCoilActiveElements": "HC1-7",
  "ReceiveCoilName": "HeadNeck_64",
  "ReconMatrixPE": 88,
  "RefLinesPE": 8,
  "RepetitionTime": 1.2,
  "SAR": 0.0506807,
  "ScanOptions": "FS",
  "ScanningSequence": "EP",
  "SequenceName": "_epfid2d1_88",
  "SequenceVariant": "SK",
  "SeriesDescription": "func-bold_task-RDMcolor_run-02",
  "SeriesNumber": 10,
  "ShimSetting": [1777, -9075, 4423, 477, -157, -280, 45, 0],
  "SliceThickness": 2.4,
  "SliceTiming": [0.55, 0, 0.63, 0.08, 0.7075, 0.1575, 0.7875, 0.235, 0.865, 0.315, 0.945, 0.3925, 1.0225, 0.4725, 1.1025, 0.55, 0, 0.63, 0.08, 0.7075, 0.1575, 0.7875, 0.235, 0.865, 0.315, 0.945, 0.3925, 1.0225, 0.4725, 1.1025, 0.55, 0, 0.63, 0.08, 0.7075, 0.1575, 0.7875, 0.235, 0.865, 0.315, 0.945, 0.3925, 1.0225, 0.4725, 1.1025, 0.55, 0, 0.63, 0.08, 0.7075, 0.1575, 0.7875, 0.235, 0.865, 0.315, 0.945, 0.3925, 1.0225, 0.4725, 1.1025],
  "SoftwareVersions": "syngo_MR_E11",
  "SpacingBetweenSlices": 2.4,
  "StationName": "AWP67050",
  "TaskName": "RDMcolor",
  "TotalReadoutTime": 0.0504612,
  "TxRefAmp": 236.972,
  "dcmmeta_affine": [
    [-2.3895771503448486, -0.027527064085006714, 0.195784330368042, 102.752685546875],
    [-0.03563505411148071, 2.39544939994812, -0.09831973165273666, -92.75927734375],
    [0.19428542256355286, 0.10079973936080933, 2.389979362487793, -86.37842559814453],
    [0.0, 0.0, 0.0, 1.0]
],
  "dcmmeta_reorient_transform": [
    [0.0, -1.0, 0.0, 87.0],
    [1.0, 0.0, 0.0, 0.0],
    [0.0, 0.0, 1.0, 0.0],
    [0.0, 0.0, 0.0, 1.0]
],
  "dcmmeta_shape": [88, 88, 60, 392],
  "dcmmeta_slice_dim": 2,
  "dcmmeta_version": 0.6,
  "global": {
    "const": {
      "AcquisitionMatrix": [88, 0, 0, 88],
      "AngioFlag": "N",
      "BitsAllocated": 16,
      "BitsStored": 12,
      "BodyPartExamined": "BRAIN",
      "Columns": 704,
      "DeidentificationMethodCodeSequence": [
        {
          "CodeMeaning": "XNAT DicomEdit 6 Script",
          "CodeValue": "3",
          "CodingSchemeDesignator": "XNAT",
          "CodingSchemeVersion": "1.0"}
],
      "EchoNumbers": 1,
      "EchoTime": 33.0,
      "EchoTrainLength": 88,
      "FlipAngle": 62.0,
      "HighBit": 11,
      "ImageOrientationPatient": [0.99660093492524, 0.0148620130788, 0.08102898909271, -0.011480482122, 0.99904997967526, -0.0420397031521],
      "ImagePositionPatient": [-827.8692774452, -864.41881814517, -106.40243280549],
      "ImageType": [
        "ORIGINAL",
        "PRIMARY",
        "M",
        "ND",
        "MOSAIC"
],
      "ImagedNucleus": "1H",
      "ImagingFrequency": 123.250682,
      "InPlanePhaseEncodingDirection": "COL",
      "MRAcquisitionType": "2D",
      "MagneticFieldStrength": 3.0,
      "Manufacturer": "SIEMENS",
      "ManufacturerModelName": "Prisma_fit",
      "Modality": "MR",
      "NumberOfAverages": 1.0,
      "NumberOfPhaseEncodingSteps": 88,
      "PercentPhaseFieldOfView": 100.0,
      "PercentSampling": 100.0,
      "PerformedProcedureStepStartTime": "145313.809000",
      "PhotometricInterpretation": "MONOCHROME2",
      "PixelBandwidth": 2185.0,
      "PixelRepresentation": 0,
      "PixelSpacing": [2.3977272510529, 2.3977272510529],
      "ProtocolName": "func-bold_task-RDMcolor_run-02",
      "RepetitionTime": 1200.0,
      "Rows": 704,
      "SAR": 0.05068068250147,
      "SamplesPerPixel": 1,
      "ScanOptions": "FS",
      "ScanningSequence": "EP",
      "SequenceName": "*epfid2d1_88",
      "SequenceVariant": "SK",
      "SeriesDescription": "func-bold_task-RDMcolor_run-02",
      "SeriesNumber": 10,
      "SeriesTime": "153957.521000",
      "SliceLocation": -73.835509203022,
      "SliceThickness": 2.4000000953674,
      "SmallestImagePixelValue": 0,
      "SoftwareVersions": "syngo MR E11",
      "SpacingBetweenSlices": 2.4000000347878,
      "SpecificCharacterSet": "ISO_IR 100",
      "StudyID": "1",
      "StudyTime": "145313.737000",
      "TransmitCoilName": "Body",
      "VariableFlipAngleFlag": "N",
      "WindowCenterWidthExplanation": "Algo1",
      "dBdt": 0.0},
    "slices": {}
  },
  "time": {
    "samples": {
      "AcquisitionNumber": [1, 2, 3, 4, 5, 6, 7, 8, 9, 10, 11, 12, 13, 14, 15, 16, 17, 18, 19, 20, 21, 22, 23, 24, 25, 26, 27, 28, 29, 30, 31, 32, 33, 34, 35, 36, 37, 38, 39, 40, 41, 42, 43, 44, 45, 46, 47, 48, 49, 50, 51, 52, 53, 54, 55, 56, 57, 58, 59, 60, 61, 62, 63, 64, 65, 66, 67, 68, 69, 70, 71, 72, 73, 74, 75, 76, 77, 78, 79, 80, 81, 82, 83, 84, 85, 86, 87, 88, 89, 90, 91, 92, 93, 94, 95, 96, 97, 98, 99, 100, 101, 102, 103, 104, 105, 106, 107, 108, 109, 110, 111, 112, 113, 114, 115, 116, 117, 118, 119, 120, 121, 122, 123, 124, 125, 126, 127, 128, 129, 130, 131, 132, 133, 134, 135, 136, 137, 138, 139, 140, 141, 142, 143, 144, 145, 146, 147, 148, 149, 150, 151, 152, 153, 154, 155, 156, 157, 158, 159, 160, 161, 162, 163, 164, 165, 166, 167, 168, 169, 170, 171, 172, 173, 174, 175, 176, 177, 178, 179, 180, 181, 182, 183, 184, 185, 186, 187, 188, 189, 190, 191, 192, 193, 194, 195, 196, 197, 198, 199, 200, 201, 202, 203, 204, 205, 206, 207, 208, 209, 210, 211, 212, 213, 214, 215, 216, 217, 218, 219, 220, 221, 222, 223, 224, 225, 226, 227, 228, 229, 230, 231, 232, 233, 234, 235, 236, 237, 238, 239, 240, 241, 242, 243, 244, 245, 246, 247, 248, 249, 250, 251, 252, 253, 254, 255, 256, 257, 258, 259, 260, 261, 262, 263, 264, 265, 266, 267, 268, 269, 270, 271, 272, 273, 274, 275, 276, 277, 278, 279, 280, 281, 282, 283, 284, 285, 286, 287, 288, 289, 290, 291, 292, 293, 294, 295, 296, 297, 298, 299, 300, 301, 302, 303, 304, 305, 306, 307, 308, 309, 310, 311, 312, 313, 314, 315, 316, 317, 318, 319, 320, 321, 322, 323, 324, 325, 326, 327, 328, 329, 330, 331, 332, 333, 334, 335, 336, 337, 338, 339, 340, 341, 342, 343, 344, 345, 346, 347, 348, 349, 350, 351, 352, 353, 354, 355, 356, 357, 358, 359, 360, 361, 362, 363, 364, 365, 366, 367, 368, 369, 370, 371, 372, 373, 374, 375, 376, 377, 378, 379, 380, 381, 382, 383, 384, 385, 386, 387, 388, 389, 390, 391, 392],
      "AcquisitionTime": ["153918.332500", "153919.532500", "153920.732500", "153921.932500", "153923.132500", "153924.332500", "153925.532500", "153926.732500", "153927.932500", "153929.132500", "153930.332500", "153931.532500", "153932.732500", "153933.932500", "153935.132500", "153936.332500", "153937.532500", "153938.732500", "153939.932500", "153941.132500", "153942.332500", "153943.532500", "153944.732500", "153945.932500", "153947.132500", "153948.332500", "153949.532500", "153950.732500", "153951.932500", "153953.132500", "153954.332500", "153955.532500", "153956.732500", "153957.932500", "153959.132500", "154000.332500", "154001.532500", "154002.732500", "154003.932500", "154005.132500", "154006.332500", "154007.532500", "154008.732500", "154009.932500", "154011.132500", "154012.332500", "154013.532500", "154014.732500", "154015.932500", "154017.132500", "154018.332500", "154019.532500", "154020.732500", "154021.932500", "154023.132500", "154024.332500", "154025.532500", "154026.732500", "154027.932500", "154029.132500", "154030.332500", "154031.532500", "154032.732500", "154033.932500", "154035.132500", "154036.332500", "154037.532500", "154038.732500", "154039.932500", "154041.132500", "154042.332500", "154043.532500", "154044.732500", "154045.932500", "154047.132500", "154048.332500", "154049.532500", "154050.732500", "154051.932500", "154053.132500", "154054.332500", "154055.532500", "154056.732500", "154057.932500", "154059.132500", "154100.332500", "154101.532500", "154102.732500", "154103.932500", "154105.132500", "154106.332500", "154107.532500", "154108.732500", "154109.932500", "154111.132500", "154112.332500", "154113.532500", "154114.732500", "154115.932500", "154117.132500", "154118.332500", "154119.532500", "154120.732500", "154121.932500", "154123.132500", "154124.332500", "154125.532500", "154126.732500", "154127.932500", "154129.132500", "154130.332500", "154131.532500", "154132.732500", "154133.932500", "154135.132500", "154136.332500", "154137.532500", "154138.732500", "154139.932500", "154141.132500", "154142.332500", "154143.532500", "154144.732500", "154145.932500", "154147.132500", "154148.332500", "154149.532500", "154150.732500", "154151.932500", "154153.132500", "154154.332500", "154155.532500", "154156.732500", "154157.932500", "154159.132500", "154200.332500", "154201.532500", "154202.732500", "154203.932500", "154205.132500", "154206.332500", "154207.532500", "154208.732500", "154209.932500", "154211.132500", "154212.332500", "154213.532500", "154214.732500", "154215.932500", "154217.132500", "154218.332500", "154219.532500", "154220.732500", "154221.932500", "154223.132500", "154224.332500", "154225.532500", "154226.732500", "154227.932500", "154229.132500", "154230.332500", "154231.532500", "154232.732500", "154233.932500", "154235.132500", "154236.332500", "154237.532500", "154238.732500", "154239.932500", "154241.132500", "154242.332500", "154243.532500", "154244.732500", "154245.932500", "154247.132500", "154248.332500", "154249.532500", "154250.732500", "154251.932500", "154253.132500", "154254.332500", "154255.532500", "154256.732500", "154257.932500", "154259.132500", "154300.332500", "154301.532500", "154302.732500", "154303.932500", "154305.132500", "154306.332500", "154307.532500", "154308.732500", "154309.932500", "154311.132500", "154312.332500", "154313.532500", "154314.732500", "154315.932500", "154317.132500", "154318.332500", "154319.532500", "154320.732500", "154321.932500", "154323.132500", "154324.332500", "154325.532500", "154326.732500", "154327.932500", "154329.132500", "154330.332500", "154331.532500", "154332.732500", "154333.932500", "154335.132500", "154336.332500", "154337.532500", "154338.732500", "154339.932500", "154341.132500", "154342.332500", "154343.532500", "154344.732500", "154345.932500", "154347.132500", "154348.332500", "154349.532500", "154350.732500", "154351.932500", "154353.132500", "154354.332500", "154355.532500", "154356.732500", "154357.932500", "154359.132500", "154400.332500", "154401.532500", "154402.732500", "154403.932500", "154405.132500", "154406.332500", "154407.532500", "154408.732500", "154409.932500", "154411.132500", "154412.332500", "154413.532500", "154414.732500", "154415.932500", "154417.132500", "154418.332500", "154419.532500", "154420.732500", "154421.932500", "154423.132500", "154424.332500", "154425.532500", "154426.732500", "154427.932500", "154429.132500", "154430.332500", "154431.532500", "154432.732500", "154433.932500", "154435.132500", "154436.332500", "154437.532500", "154438.732500", "154439.932500", "154441.132500", "154442.332500", "154443.532500", "154444.732500", "154445.932500", "154447.132500", "154448.332500", "154449.532500", "154450.732500", "154451.932500", "154453.132500", "154454.332500", "154455.532500", "154456.732500", "154457.932500", "154459.132500", "154500.332500", "154501.532500", "154502.732500", "154503.932500", "154505.132500", "154506.332500", "154507.532500", "154508.732500", "154509.932500", "154511.132500", "154512.332500", "154513.532500", "154514.732500", "154515.932500", "154517.132500", "154518.332500", "154519.532500", "154520.732500", "154521.932500", "154523.132500", "154524.332500", "154525.532500", "154526.732500", "154527.932500", "154529.132500", "154530.332500", "154531.532500", "154532.732500", "154533.932500", "154535.132500", "154536.332500", "154537.532500", "154538.732500", "154539.932500", "154541.132500", "154542.332500", "154543.532500", "154544.732500", "154545.932500", "154547.132500", "154548.332500", "154549.532500", "154550.732500", "154551.932500", "154553.132500", "154554.332500", "154555.532500", "154556.732500", "154557.932500", "154559.132500", "154600.332500", "154601.532500", "154602.732500", "154603.932500", "154605.132500", "154606.332500", "154607.532500", "154608.732500", "154609.932500", "154611.132500", "154612.332500", "154613.532500", "154614.732500", "154615.932500", "154617.132500", "154618.332500", "154619.532500", "154620.732500", "154621.932500", "154623.132500", "154624.332500", "154625.532500", "154626.732500", "154627.932500", "154629.132500", "154630.332500", "154631.532500", "154632.732500", "154633.932500", "154635.132500", "154636.332500", "154637.532500", "154638.732500", "154639.932500", "154641.132500", "154642.332500", "154643.532500", "154644.732500", "154645.932500", "154647.132500", "154648.332500", "154649.532500", "154650.732500", "154651.932500", "154653.132500", "154654.332500", "154655.532500", "154656.732500", "154657.932500", "154659.132500", "154700.332500", "154701.532500", "154702.732500", "154703.932500", "154705.132500", "154706.332500", "154707.532500"],
      "ContentTime": ["153957.525000", "153957.528000", "153957.531000", "153957.534000", "153957.536000", "153957.549000", "153957.552000", "153957.555000", "153957.557000", "153957.560000", "153957.563000", "153957.565000", "153957.568000", "153957.591000", "153957.594000", "153957.597000", "153957.599000", "153957.602000", "153957.605000", "153957.607000", "153957.610000", "153957.612000", "153957.615000", "153957.619000", "153957.622000", "153957.624000", "153957.627000", "153957.630000", "153957.632000", "153957.635000", "153957.638000", "153957.640000", "154037.522000", "154037.524000", "154037.527000", "154037.530000", "154037.533000", "154037.535000", "154037.542000", "154037.545000", "154037.547000", "154037.550000", "154037.552000", "154037.555000", "154037.558000", "154037.560000", "154037.563000", "154037.566000", "154037.568000", "154037.571000", "154037.573000", "154037.576000", "154037.579000", "154037.581000", "154037.584000", "154037.586000", "154037.589000", "154037.592000", "154037.594000", "154037.597000", "154037.599000", "154037.602000", "154037.604000", "154037.607000", "154037.610000", "154117.521000", "154117.524000", "154117.526000", "154117.529000", "154117.532000", "154117.535000", "154117.538000", "154117.540000", "154117.543000", "154117.545000", "154117.548000", "154117.551000", "154117.553000", "154117.556000", "154117.559000", "154117.562000", "154117.564000", "154117.567000", "154117.570000", "154117.572000", "154117.575000", "154117.577000", "154117.580000", "154117.583000", "154117.585000", "154117.588000", "154117.591000", "154117.594000", "154117.596000", "154117.599000", "154117.613000", "154117.616000", "154117.618000", "154117.621000", "154157.520000", "154157.523000", "154157.526000", "154157.529000", "154157.531000", "154157.534000", "154157.537000", "154157.539000", "154157.542000", "154157.544000", "154157.547000", "154157.549000", "154157.552000", "154157.555000", "154157.557000", "154157.560000", "154157.562000", "154157.565000", "154157.568000", "154157.570000", "154157.573000", "154157.576000", "154157.578000", "154157.581000", "154157.583000", "154157.586000", "154157.589000", "154157.591000", "154157.594000", "154157.597000", "154157.600000", "154157.609000", "154157.612000", "154237.521000", "154237.523000", "154237.526000", "154237.529000", "154237.531000", "154237.534000", "154237.537000", "154237.539000", "154237.542000", "154237.544000", "154237.547000", "154237.550000", "154237.552000", "154237.555000", "154237.557000", "154237.560000", "154237.563000", "154237.565000", "154237.568000", "154237.570000", "154237.573000", "154237.576000", "154237.578000", "154237.581000", "154237.583000", "154237.586000", "154237.589000", "154237.591000", "154237.594000", "154237.596000", "154237.599000", "154237.601000", "154237.604000", "154317.522000", "154317.525000", "154317.527000", "154317.530000", "154317.533000", "154317.536000", "154317.538000", "154317.541000", "154317.543000", "154317.546000", "154317.548000", "154317.551000", "154317.554000", "154317.556000", "154317.559000", "154317.561000", "154317.564000", "154317.567000", "154317.569000", "154317.572000", "154317.575000", "154317.577000", "154317.580000", "154317.583000", "154317.585000", "154317.588000", "154317.591000", "154317.593000", "154317.596000", "154317.598000", "154317.601000", "154317.604000", "154317.606000", "154317.609000", "154357.520000", "154357.523000", "154357.526000", "154357.529000", "154357.531000", "154357.534000", "154357.536000", "154357.539000", "154357.542000", "154357.544000", "154357.562000", "154357.564000", "154357.567000", "154357.570000", "154357.572000", "154357.575000", "154357.577000", "154357.580000", "154357.582000", "154357.585000", "154357.588000", "154357.590000", "154357.593000", "154357.596000", "154357.599000", "154357.602000", "154357.604000", "154357.607000", "154357.609000", "154357.612000", "154357.615000", "154357.617000", "154357.620000", "154437.521000", "154437.523000", "154437.526000", "154437.529000", "154437.531000", "154437.534000", "154437.537000", "154437.540000", "154437.542000", "154437.545000", "154437.548000", "154437.550000", "154437.553000", "154437.555000", "154437.569000", "154437.572000", "154437.574000", "154437.577000", "154437.579000", "154437.582000", "154437.584000", "154437.587000", "154437.590000", "154437.592000", "154437.595000", "154437.598000", "154437.600000", "154437.603000", "154437.605000", "154437.608000", "154437.611000", "154437.613000", "154437.616000", "154517.521000", "154517.525000", "154517.527000", "154517.530000", "154517.532000", "154517.535000", "154517.538000", "154517.541000", "154517.543000", "154517.546000", "154517.549000", "154517.551000", "154517.554000", "154517.557000", "154517.559000", "154517.562000", "154517.564000", "154517.567000", "154517.570000", "154517.573000", "154517.576000", "154517.578000", "154517.581000", "154517.584000", "154517.586000", "154517.589000", "154517.591000", "154517.594000", "154517.597000", "154517.599000", "154517.602000", "154517.605000", "154517.607000", "154517.610000", "154557.520000", "154557.523000", "154557.526000", "154557.529000", "154557.531000", "154557.534000", "154557.537000", "154557.539000", "154557.542000", "154557.544000", "154557.547000", "154557.556000", "154557.559000", "154557.562000", "154557.564000", "154557.567000", "154557.570000", "154557.572000", "154557.575000", "154557.577000", "154557.580000", "154557.583000", "154557.585000", "154557.588000", "154557.590000", "154557.593000", "154557.596000", "154557.599000", "154557.601000", "154557.604000", "154557.607000", "154557.609000", "154557.612000", "154637.521000", "154637.524000", "154637.527000", "154637.529000", "154637.532000", "154637.534000", "154637.537000", "154637.540000", "154637.542000", "154637.545000", "154637.548000", "154637.550000", "154637.553000", "154637.555000", "154637.558000", "154637.561000", "154637.563000", "154637.566000", "154637.569000", "154637.571000", "154637.574000", "154637.576000", "154637.579000", "154637.582000", "154637.584000", "154637.587000", "154637.589000", "154637.592000", "154637.595000", "154637.597000", "154637.600000", "154637.602000", "154637.605000", "154708.969000", "154708.971000", "154708.974000", "154708.977000", "154708.980000", "154708.982000", "154708.985000", "154708.988000", "154708.990000", "154708.993000", "154708.996000", "154708.998000", "154709.002000", "154709.005000", "154709.007000", "154709.026000", "154709.029000", "154709.032000", "154709.034000", "154709.047000", "154709.050000", "154709.053000", "154709.056000", "154709.059000", "154709.062000", "154709.065000", "154709.068000"],
      "InstanceCreationTime": ["153957.525000", "153957.528000", "153957.531000", "153957.534000", "153957.536000", "153957.549000", "153957.552000", "153957.555000", "153957.557000", "153957.560000", "153957.563000", "153957.565000", "153957.568000", "153957.591000", "153957.594000", "153957.597000", "153957.599000", "153957.602000", "153957.605000", "153957.607000", "153957.610000", "153957.612000", "153957.615000", "153957.619000", "153957.622000", "153957.624000", "153957.627000", "153957.630000", "153957.632000", "153957.635000", "153957.638000", "153957.640000", "154037.522000", "154037.524000", "154037.527000", "154037.530000", "154037.533000", "154037.535000", "154037.542000", "154037.545000", "154037.547000", "154037.550000", "154037.552000", "154037.555000", "154037.558000", "154037.560000", "154037.563000", "154037.566000", "154037.568000", "154037.571000", "154037.573000", "154037.576000", "154037.579000", "154037.581000", "154037.584000", "154037.586000", "154037.589000", "154037.592000", "154037.594000", "154037.597000", "154037.599000", "154037.602000", "154037.604000", "154037.607000", "154037.610000", "154117.521000", "154117.524000", "154117.526000", "154117.529000", "154117.532000", "154117.535000", "154117.538000", "154117.540000", "154117.543000", "154117.545000", "154117.548000", "154117.551000", "154117.553000", "154117.556000", "154117.559000", "154117.562000", "154117.564000", "154117.567000", "154117.570000", "154117.572000", "154117.575000", "154117.577000", "154117.580000", "154117.583000", "154117.585000", "154117.588000", "154117.591000", "154117.594000", "154117.596000", "154117.599000", "154117.613000", "154117.616000", "154117.618000", "154117.621000", "154157.520000", "154157.523000", "154157.526000", "154157.529000", "154157.531000", "154157.534000", "154157.537000", "154157.539000", "154157.542000", "154157.544000", "154157.547000", "154157.549000", "154157.552000", "154157.555000", "154157.557000", "154157.560000", "154157.562000", "154157.565000", "154157.568000", "154157.570000", "154157.573000", "154157.576000", "154157.578000", "154157.581000", "154157.583000", "154157.586000", "154157.589000", "154157.591000", "154157.594000", "154157.597000", "154157.600000", "154157.609000", "154157.612000", "154237.521000", "154237.523000", "154237.526000", "154237.529000", "154237.531000", "154237.534000", "154237.537000", "154237.539000", "154237.542000", "154237.544000", "154237.547000", "154237.550000", "154237.552000", "154237.555000", "154237.557000", "154237.560000", "154237.563000", "154237.565000", "154237.568000", "154237.570000", "154237.573000", "154237.576000", "154237.578000", "154237.581000", "154237.583000", "154237.586000", "154237.589000", "154237.591000", "154237.594000", "154237.596000", "154237.599000", "154237.601000", "154237.604000", "154317.522000", "154317.525000", "154317.527000", "154317.530000", "154317.533000", "154317.536000", "154317.538000", "154317.541000", "154317.543000", "154317.546000", "154317.548000", "154317.551000", "154317.554000", "154317.556000", "154317.559000", "154317.561000", "154317.564000", "154317.567000", "154317.569000", "154317.572000", "154317.575000", "154317.577000", "154317.580000", "154317.583000", "154317.585000", "154317.588000", "154317.591000", "154317.593000", "154317.596000", "154317.598000", "154317.601000", "154317.604000", "154317.606000", "154317.609000", "154357.520000", "154357.523000", "154357.526000", "154357.529000", "154357.531000", "154357.534000", "154357.536000", "154357.539000", "154357.542000", "154357.544000", "154357.562000", "154357.564000", "154357.567000", "154357.570000", "154357.572000", "154357.575000", "154357.577000", "154357.580000", "154357.582000", "154357.585000", "154357.588000", "154357.590000", "154357.593000", "154357.596000", "154357.599000", "154357.602000", "154357.604000", "154357.607000", "154357.609000", "154357.612000", "154357.615000", "154357.617000", "154357.620000", "154437.521000", "154437.523000", "154437.526000", "154437.529000", "154437.531000", "154437.534000", "154437.537000", "154437.540000", "154437.542000", "154437.545000", "154437.548000", "154437.550000", "154437.553000", "154437.555000", "154437.569000", "154437.572000", "154437.574000", "154437.577000", "154437.579000", "154437.582000", "154437.584000", "154437.587000", "154437.590000", "154437.592000", "154437.595000", "154437.598000", "154437.600000", "154437.603000", "154437.605000", "154437.608000", "154437.611000", "154437.613000", "154437.616000", "154517.521000", "154517.525000", "154517.527000", "154517.530000", "154517.532000", "154517.535000", "154517.538000", "154517.541000", "154517.543000", "154517.546000", "154517.549000", "154517.551000", "154517.554000", "154517.557000", "154517.559000", "154517.562000", "154517.564000", "154517.567000", "154517.570000", "154517.573000", "154517.576000", "154517.578000", "154517.581000", "154517.584000", "154517.586000", "154517.589000", "154517.591000", "154517.594000", "154517.597000", "154517.599000", "154517.602000", "154517.605000", "154517.607000", "154517.610000", "154557.520000", "154557.523000", "154557.526000", "154557.529000", "154557.531000", "154557.534000", "154557.537000", "154557.539000", "154557.542000", "154557.544000", "154557.547000", "154557.556000", "154557.559000", "154557.562000", "154557.564000", "154557.567000", "154557.570000", "154557.572000", "154557.575000", "154557.577000", "154557.580000", "154557.583000", "154557.585000", "154557.588000", "154557.590000", "154557.593000", "154557.596000", "154557.599000", "154557.601000", "154557.604000", "154557.607000", "154557.609000", "154557.612000", "154637.521000", "154637.524000", "154637.527000", "154637.529000", "154637.532000", "154637.534000", "154637.537000", "154637.540000", "154637.542000", "154637.545000", "154637.548000", "154637.550000", "154637.553000", "154637.555000", "154637.558000", "154637.561000", "154637.563000", "154637.566000", "154637.569000", "154637.571000", "154637.574000", "154637.576000", "154637.579000", "154637.582000", "154637.584000", "154637.587000", "154637.589000", "154637.592000", "154637.595000", "154637.597000", "154637.600000", "154637.602000", "154637.605000", "154708.969000", "154708.971000", "154708.974000", "154708.977000", "154708.980000", "154708.982000", "154708.985000", "154708.988000", "154708.990000", "154708.993000", "154708.996000", "154708.998000", "154709.002000", "154709.005000", "154709.007000", "154709.026000", "154709.029000", "154709.032000", "154709.034000", "154709.047000", "154709.050000", "154709.053000", "154709.056000", "154709.059000", "154709.062000", "154709.065000", "154709.068000"],
      "InstanceNumber": [1, 2, 3, 4, 5, 6, 7, 8, 9, 10, 11, 12, 13, 14, 15, 16, 17, 18, 19, 20, 21, 22, 23, 24, 25, 26, 27, 28, 29, 30, 31, 32, 33, 34, 35, 36, 37, 38, 39, 40, 41, 42, 43, 44, 45, 46, 47, 48, 49, 50, 51, 52, 53, 54, 55, 56, 57, 58, 59, 60, 61, 62, 63, 64, 65, 66, 67, 68, 69, 70, 71, 72, 73, 74, 75, 76, 77, 78, 79, 80, 81, 82, 83, 84, 85, 86, 87, 88, 89, 90, 91, 92, 93, 94, 95, 96, 97, 98, 99, 100, 101, 102, 103, 104, 105, 106, 107, 108, 109, 110, 111, 112, 113, 114, 115, 116, 117, 118, 119, 120, 121, 122, 123, 124, 125, 126, 127, 128, 129, 130, 131, 132, 133, 134, 135, 136, 137, 138, 139, 140, 141, 142, 143, 144, 145, 146, 147, 148, 149, 150, 151, 152, 153, 154, 155, 156, 157, 158, 159, 160, 161, 162, 163, 164, 165, 166, 167, 168, 169, 170, 171, 172, 173, 174, 175, 176, 177, 178, 179, 180, 181, 182, 183, 184, 185, 186, 187, 188, 189, 190, 191, 192, 193, 194, 195, 196, 197, 198, 199, 200, 201, 202, 203, 204, 205, 206, 207, 208, 209, 210, 211, 212, 213, 214, 215, 216, 217, 218, 219, 220, 221, 222, 223, 224, 225, 226, 227, 228, 229, 230, 231, 232, 233, 234, 235, 236, 237, 238, 239, 240, 241, 242, 243, 244, 245, 246, 247, 248, 249, 250, 251, 252, 253, 254, 255, 256, 257, 258, 259, 260, 261, 262, 263, 264, 265, 266, 267, 268, 269, 270, 271, 272, 273, 274, 275, 276, 277, 278, 279, 280, 281, 282, 283, 284, 285, 286, 287, 288, 289, 290, 291, 292, 293, 294, 295, 296, 297, 298, 299, 300, 301, 302, 303, 304, 305, 306, 307, 308, 309, 310, 311, 312, 313, 314, 315, 316, 317, 318, 319, 320, 321, 322, 323, 324, 325, 326, 327, 328, 329, 330, 331, 332, 333, 334, 335, 336, 337, 338, 339, 340, 341, 342, 343, 344, 345, 346, 347, 348, 349, 350, 351, 352, 353, 354, 355, 356, 357, 358, 359, 360, 361, 362, 363, 364, 365, 366, 367, 368, 369, 370, 371, 372, 373, 374, 375, 376, 377, 378, 379, 380, 381, 382, 383, 384, 385, 386, 387, 388, 389, 390, 391, 392],
