{
  "AcquisitionMatrixPE": 88,
  "AcquisitionNumber": 1,
  "AcquisitionTime": "09:32:20.567500",
  "BandwidthPerPixelPhaseEncode": 19.592,
  "BaseResolution": 88,
  "BodyPartExamined": "BRAIN",
  "ConsistencyInfo": "N4_VE11C_LATEST_20160120",
  "ConversionSoftware": "dcm2niix",
  "ConversionSoftwareVersion": "v1.0.20190902",
  "DerivedVendorReportedEchoSpacing": 0.000580014,
  "DeviceSerialNumber": "67050",
  "DwellTime": 2.6e-06,
  "EchoTime": 0.033,
  "EchoTrainLength": 88,
  "EffectiveEchoSpacing": 0.000580014,
  "FlipAngle": 62,
  "ImageOrientationPatientDICOM": [0.993117, 0.0714519, 0.0928122, -0.0630036, 0.993859, -0.0909704],
  "ImageType": [
    "ORIGINAL",
    "PRIMARY",
    "M",
    "ND",
    "MOSAIC"
],
  "ImagingFrequency": 123.251,
  "InPlanePhaseEncodingDirectionDICOM": "COL",
  "InstitutionAddress": "Olive_Street_60_Providence_RI_US_02912",
  "InstitutionName": "BROWN_UNIVERSITY_MRF",
  "InstitutionalDepartmentName": "Department",
  "MRAcquisitionType": "2D",
  "MagneticFieldStrength": 3,
  "Manufacturer": "Siemens",
  "ManufacturersModelName": "Prisma_fit",
  "Modality": "MR",
  "MultibandAccelerationFactor": 4,
  "PartialFourier": 1,
  "PatientPosition": "HFS",
  "PercentPhaseFOV": 100,
  "PhaseEncodingDirection": "j-",
  "PhaseEncodingSteps": 88,
  "PhaseResolution": 1,
  "PixelBandwidth": 2185,
  "ProcedureStepDescription": "ASHENHAV_1222",
  "ProtocolName": "func-bold_task-RDMcolor_run-03",
  "PulseSequenceDetails": "%SiemensSeq%_ep2d_bold",
  "ReceiveCoilActiveElements": "HC1-7",
  "ReceiveCoilName": "HeadNeck_64",
  "ReconMatrixPE": 88,
  "RefLinesPE": 8,
  "RepetitionTime": 1.2,
  "SAR": 0.0513766,
  "ScanOptions": "FS",
  "ScanningSequence": "EP",
  "SequenceName": "_epfid2d1_88",
  "SequenceVariant": "SK",
  "SeriesDescription": "func-bold_task-RDMcolor_run-03",
  "SeriesNumber": 12,
  "ShimSetting": [1762, -9072, 4373, 250, -125, -185, -82, -40],
  "SliceThickness": 2.4,
  "SliceTiming": [0.5525, 0, 0.63, 0.08, 0.71, 0.1575, 0.7875, 0.2375, 0.8675, 0.315, 0.945, 0.395, 1.0225, 0.4725, 1.1025, 0.5525, 0, 0.63, 0.08, 0.71, 0.1575, 0.7875, 0.2375, 0.8675, 0.315, 0.945, 0.395, 1.0225, 0.4725, 1.1025, 0.5525, 0, 0.63, 0.08, 0.71, 0.1575, 0.7875, 0.2375, 0.8675, 0.315, 0.945, 0.395, 1.0225, 0.4725, 1.1025, 0.5525, 0, 0.63, 0.08, 0.71, 0.1575, 0.7875, 0.2375, 0.8675, 0.315, 0.945, 0.395, 1.0225, 0.4725, 1.1025],
  "SoftwareVersions": "syngo_MR_E11",
  "SpacingBetweenSlices": 2.4,
  "StationName": "AWP67050",
  "TaskName": "RDMcolor",
  "TotalReadoutTime": 0.0504612,
  "TxRefAmp": 231.45,
  "dcmmeta_affine": [
    [-2.381222724914551, -0.15106554329395294, 0.23698143661022186, 106.57600402832031],
    [-0.1713222712278366, 2.3830018043518066, -0.20279209315776825, -85.0994873046875],
    [0.22253845632076263, 0.2181222140789032, 2.379646062850952, -83.88670349121094],
    [0.0, 0.0, 0.0, 1.0]
],
  "dcmmeta_reorient_transform": [
    [0.0, -1.0, 0.0, 87.0],
    [1.0, 0.0, 0.0, 0.0],
    [0.0, 0.0, 1.0, 0.0],
    [0.0, 0.0, 0.0, 1.0]
],
  "dcmmeta_shape": [88, 88, 60, 392],
  "dcmmeta_slice_dim": 2,
  "dcmmeta_version": 0.6,
  "global": {
    "const": {
      "AcquisitionMatrix": [88, 0, 0, 88],
      "AngioFlag": "N",
      "BitsAllocated": 16,
      "BitsStored": 12,
      "BodyPartExamined": "BRAIN",
      "Columns": 704,
      "DeidentificationMethodCodeSequence": [
        {
          "CodeMeaning": "XNAT DicomEdit 6 Script",
          "CodeValue": "3",
          "CodingSchemeDesignator": "XNAT",
          "CodingSchemeVersion": "1.0"}
],
      "EchoNumbers": 1,
      "EchoTime": 33.0,
      "EchoTrainLength": 88,
      "FlipAngle": 62.0,
      "HighBit": 11,
      "ImageOrientationPatient": [0.99311656243954, 0.07145194254986, 0.09281224765151, -0.063003642286, 0.9938586053007, -0.0909704002874],
      "ImagePositionPatient": [-780.3216849379, -908.95350371254, -66.27027843859],
      "ImageType": [
        "ORIGINAL",
        "PRIMARY",
        "M",
        "ND",
        "MOSAIC"
],
      "ImagedNucleus": "1H",
      "ImagingFrequency": 123.250775,
      "InPlanePhaseEncodingDirection": "COL",
      "MRAcquisitionType": "2D",
      "MagneticFieldStrength": 3.0,
      "Manufacturer": "SIEMENS",
      "ManufacturerModelName": "Prisma_fit",
      "Modality": "MR",
      "NumberOfAverages": 1.0,
      "NumberOfPhaseEncodingSteps": 88,
      "PercentPhaseFieldOfView": 100.0,
      "PercentSampling": 100.0,
      "PerformedProcedureStepStartTime": "083623.052000",
      "PhotometricInterpretation": "MONOCHROME2",
      "PixelBandwidth": 2185.0,
      "PixelRepresentation": 0,
      "PixelSpacing": [2.3977272510529, 2.3977272510529],
      "ProtocolName": "func-bold_task-RDMcolor_run-03",
      "RepetitionTime": 1200.0,
      "Rows": 704,
      "SAR": 0.05137664784957,
      "SamplesPerPixel": 1,
      "ScanOptions": "FS",
      "ScanningSequence": "EP",
      "SequenceName": "*epfid2d1_88",
      "SequenceVariant": "SK",
      "SeriesDescription": "func-bold_task-RDMcolor_run-03",
      "SeriesNumber": 12,
      "SeriesTime": "093247.740000",
      "SliceLocation": -65.461095798484,
      "SliceThickness": 2.4000000953674,
      "SmallestImagePixelValue": 0,
      "SoftwareVersions": "syngo MR E11",
      "SpacingBetweenSlices": 2.4000000239067,
      "SpecificCharacterSet": "ISO_IR 100",
      "StudyID": "1",
      "StudyTime": "083622.904000",
      "TransmitCoilName": "Body",
      "VariableFlipAngleFlag": "N",
      "WindowCenterWidthExplanation": "Algo1",
      "dBdt": 0.0},
    "slices": {}
  },
  "time": {
    "samples": {
      "AcquisitionNumber": [1, 2, 3, 4, 5, 6, 7, 8, 9, 10, 11, 12, 13, 14, 15, 16, 17, 18, 19, 20, 21, 22, 23, 24, 25, 26, 27, 28, 29, 30, 31, 32, 33, 34, 35, 36, 37, 38, 39, 40, 41, 42, 43, 44, 45, 46, 47, 48, 49, 50, 51, 52, 53, 54, 55, 56, 57, 58, 59, 60, 61, 62, 63, 64, 65, 66, 67, 68, 69, 70, 71, 72, 73, 74, 75, 76, 77, 78, 79, 80, 81, 82, 83, 84, 85, 86, 87, 88, 89, 90, 91, 92, 93, 94, 95, 96, 97, 98, 99, 100, 101, 102, 103, 104, 105, 106, 107, 108, 109, 110, 111, 112, 113, 114, 115, 116, 117, 118, 119, 120, 121, 122, 123, 124, 125, 126, 127, 128, 129, 130, 131, 132, 133, 134, 135, 136, 137, 138, 139, 140, 141, 142, 143, 144, 145, 146, 147, 148, 149, 150, 151, 152, 153, 154, 155, 156, 157, 158, 159, 160, 161, 162, 163, 164, 165, 166, 167, 168, 169, 170, 171, 172, 173, 174, 175, 176, 177, 178, 179, 180, 181, 182, 183, 184, 185, 186, 187, 188, 189, 190, 191, 192, 193, 194, 195, 196, 197, 198, 199, 200, 201, 202, 203, 204, 205, 206, 207, 208, 209, 210, 211, 212, 213, 214, 215, 216, 217, 218, 219, 220, 221, 222, 223, 224, 225, 226, 227, 228, 229, 230, 231, 232, 233, 234, 235, 236, 237, 238, 239, 240, 241, 242, 243, 244, 245, 246, 247, 248, 249, 250, 251, 252, 253, 254, 255, 256, 257, 258, 259, 260, 261, 262, 263, 264, 265, 266, 267, 268, 269, 270, 271, 272, 273, 274, 275, 276, 277, 278, 279, 280, 281, 282, 283, 284, 285, 286, 287, 288, 289, 290, 291, 292, 293, 294, 295, 296, 297, 298, 299, 300, 301, 302, 303, 304, 305, 306, 307, 308, 309, 310, 311, 312, 313, 314, 315, 316, 317, 318, 319, 320, 321, 322, 323, 324, 325, 326, 327, 328, 329, 330, 331, 332, 333, 334, 335, 336, 337, 338, 339, 340, 341, 342, 343, 344, 345, 346, 347, 348, 349, 350, 351, 352, 353, 354, 355, 356, 357, 358, 359, 360, 361, 362, 363, 364, 365, 366, 367, 368, 369, 370, 371, 372, 373, 374, 375, 376, 377, 378, 379, 380, 381, 382, 383, 384, 385, 386, 387, 388, 389, 390, 391, 392],
      "AcquisitionTime": ["093220.567500", "093221.767500", "093222.967500", "093224.167500", "093225.367500", "093226.567500", "093227.767500", "093228.967500", "093230.167500", "093231.367500", "093232.567500", "093233.767500", "093234.967500", "093236.167500", "093237.367500", "093238.567500", "093239.767500", "093240.967500", "093242.167500", "093243.367500", "093244.567500", "093245.767500", "093246.967500", "093248.167500", "093249.367500", "093250.567500", "093251.767500", "093252.967500", "093254.167500", "093255.367500", "093256.567500", "093257.767500", "093258.967500", "093300.167500", "093301.367500", "093302.567500", "093303.767500", "093304.967500", "093306.167500", "093307.367500", "093308.567500", "093309.767500", "093310.967500", "093312.167500", "093313.367500", "093314.567500", "093315.767500", "093316.967500", "093318.167500", "093319.367500", "093320.567500", "093321.767500", "093322.967500", "093324.167500", "093325.367500", "093326.567500", "093327.767500", "093328.967500", "093330.167500", "093331.367500", "093332.567500", "093333.767500", "093334.967500", "093336.167500", "093337.367500", "093338.567500", "093339.767500", "093340.967500", "093342.167500", "093343.367500", "093344.567500", "093345.767500", "093346.967500", "093348.167500", "093349.367500", "093350.567500", "093351.767500", "093352.967500", "093354.167500", "093355.367500", "093356.567500", "093357.767500", "093358.967500", "093400.167500", "093401.367500", "093402.567500", "093403.767500", "093404.967500", "093406.167500", "093407.367500", "093408.567500", "093409.767500", "093410.967500", "093412.167500", "093413.367500", "093414.567500", "093415.767500", "093416.967500", "093418.167500", "093419.367500", "093420.567500", "093421.767500", "093422.967500", "093424.167500", "093425.367500", "093426.567500", "093427.767500", "093428.967500", "093430.167500", "093431.367500", "093432.567500", "093433.767500", "093434.967500", "093436.167500", "093437.367500", "093438.567500", "093439.767500", "093440.967500", "093442.167500", "093443.367500", "093444.567500", "093445.767500", "093446.967500", "093448.167500", "093449.367500", "093450.567500", "093451.767500", "093452.967500", "093454.167500", "093455.367500", "093456.567500", "093457.767500", "093458.967500", "093500.167500", "093501.367500", "093502.567500", "093503.767500", "093504.967500", "093506.167500", "093507.367500", "093508.567500", "093509.767500", "093510.967500", "093512.167500", "093513.367500", "093514.567500", "093515.767500", "093516.967500", "093518.167500", "093519.367500", "093520.567500", "093521.767500", "093522.967500", "093524.167500", "093525.367500", "093526.567500", "093527.767500", "093528.967500", "093530.167500", "093531.367500", "093532.567500", "093533.767500", "093534.967500", "093536.167500", "093537.367500", "093538.567500", "093539.767500", "093540.967500", "093542.167500", "093543.367500", "093544.567500", "093545.767500", "093546.967500", "093548.167500", "093549.367500", "093550.567500", "093551.767500", "093552.967500", "093554.167500", "093555.367500", "093556.567500", "093557.767500", "093558.967500", "093600.167500", "093601.367500", "093602.567500", "093603.767500", "093604.967500", "093606.167500", "093607.367500", "093608.567500", "093609.767500", "093610.967500", "093612.167500", "093613.367500", "093614.567500", "093615.767500", "093616.967500", "093618.167500", "093619.367500", "093620.567500", "093621.767500", "093622.967500", "093624.167500", "093625.367500", "093626.567500", "093627.767500", "093628.967500", "093630.167500", "093631.367500", "093632.567500", "093633.767500", "093634.967500", "093636.167500", "093637.367500", "093638.567500", "093639.767500", "093640.967500", "093642.167500", "093643.367500", "093644.567500", "093645.767500", "093646.967500", "093648.167500", "093649.367500", "093650.567500", "093651.767500", "093652.967500", "093654.167500", "093655.367500", "093656.567500", "093657.767500", "093658.967500", "093700.167500", "093701.367500", "093702.567500", "093703.767500", "093704.967500", "093706.167500", "093707.367500", "093708.567500", "093709.767500", "093710.967500", "093712.167500", "093713.367500", "093714.567500", "093715.767500", "093716.967500", "093718.167500", "093719.367500", "093720.567500", "093721.767500", "093722.967500", "093724.167500", "093725.367500", "093726.567500", "093727.767500", "093728.967500", "093730.167500", "093731.367500", "093732.567500", "093733.767500", "093734.967500", "093736.167500", "093737.367500", "093738.567500", "093739.767500", "093740.967500", "093742.167500", "093743.367500", "093744.567500", "093745.767500", "093746.967500", "093748.167500", "093749.367500", "093750.567500", "093751.767500", "093752.967500", "093754.167500", "093755.367500", "093756.567500", "093757.767500", "093758.967500", "093800.167500", "093801.367500", "093802.567500", "093803.767500", "093804.967500", "093806.167500", "093807.367500", "093808.567500", "093809.767500", "093810.967500", "093812.167500", "093813.367500", "093814.567500", "093815.767500", "093816.967500", "093818.167500", "093819.367500", "093820.567500", "093821.767500", "093822.967500", "093824.167500", "093825.367500", "093826.567500", "093827.767500", "093828.967500", "093830.167500", "093831.367500", "093832.567500", "093833.767500", "093834.967500", "093836.167500", "093837.367500", "093838.567500", "093839.767500", "093840.967500", "093842.167500", "093843.367500", "093844.567500", "093845.767500", "093846.967500", "093848.167500", "093849.367500", "093850.567500", "093851.767500", "093852.967500", "093854.167500", "093855.367500", "093856.567500", "093857.767500", "093858.967500", "093900.167500", "093901.367500", "093902.567500", "093903.767500", "093904.967500", "093906.167500", "093907.367500", "093908.567500", "093909.767500", "093910.967500", "093912.167500", "093913.367500", "093914.567500", "093915.767500", "093916.967500", "093918.167500", "093919.367500", "093920.567500", "093921.767500", "093922.967500", "093924.167500", "093925.367500", "093926.567500", "093927.767500", "093928.967500", "093930.167500", "093931.367500", "093932.567500", "093933.767500", "093934.967500", "093936.167500", "093937.367500", "093938.567500", "093939.767500", "093940.967500", "093942.167500", "093943.367500", "093944.567500", "093945.767500", "093946.967500", "093948.167500", "093949.367500", "093950.567500", "093951.767500", "093952.967500", "093954.167500", "093955.367500", "093956.567500", "093957.767500", "093958.967500", "094000.167500", "094001.367500", "094002.567500", "094003.767500", "094004.967500", "094006.167500", "094007.367500", "094008.567500", "094009.767500"],
      "ContentTime": ["093247.743000", "093247.746000", "093247.749000", "093247.751000", "093247.754000", "093247.757000", "093247.759000", "093247.762000", "093247.764000", "093247.767000", "093247.770000", "093247.778000", "093247.780000", "093247.790000", "093247.793000", "093247.795000", "093247.798000", "093247.806000", "093247.809000", "093247.811000", "093247.814000", "093247.816000", "093327.737000", "093327.740000", "093327.743000", "093327.745000", "093327.748000", "093327.751000", "093327.753000", "093327.756000", "093327.758000", "093327.761000", "093327.764000", "093327.767000", "093327.770000", "093327.772000", "093327.775000", "093327.777000", "093327.791000", "093327.794000", "093327.797000", "093327.799000", "093327.802000", "093327.804000", "093327.807000", "093327.809000", "093327.812000", "093327.815000", "093327.818000", "093327.821000", "093327.824000", "093327.826000", "093327.837000", "093327.840000", "093327.843000", "093407.737000", "093407.740000", "093407.743000", "093407.745000", "093407.748000", "093407.750000", "093407.753000", "093407.756000", "093407.758000", "093407.761000", "093407.764000", "093407.766000", "093407.769000", "093407.771000", "093407.774000", "093407.776000", "093407.787000", "093407.789000", "093407.792000", "093407.794000", "093407.797000", "093407.800000", "093407.802000", "093407.805000", "093407.807000", "093407.810000", "093407.812000", "093407.815000", "093407.818000", "093407.820000", "093407.823000", "093407.826000", "093407.828000", "093407.831000", "093447.738000", "093447.741000", "093447.747000", "093447.749000", "093447.752000", "093447.755000", "093447.757000", "093447.760000", "093447.762000", "093447.765000", "093447.767000", "093447.770000", "093447.772000", "093447.775000", "093447.777000", "093447.780000", "093447.783000", "093447.785000", "093447.788000", "093447.791000", "093447.793000", "093447.796000", "093447.798000", "093447.801000", "093447.803000", "093447.806000", "093447.809000", "093447.811000", "093447.828000", "093447.831000", "093447.834000", "093447.836000", "093447.839000", "093527.738000", "093527.741000", "093527.743000", "093527.746000", "093527.749000", "093527.751000", "093527.754000", "093527.756000", "093527.759000", "093527.762000", "093527.764000", "093527.768000", "093527.770000", "093527.773000", "093527.776000", "093527.778000", "093527.781000", "093527.783000", "093527.786000", "093527.789000", "093527.791000", "093527.794000", "093527.797000", "093527.799000", "093527.802000", "093527.805000", "093527.807000", "093527.810000", "093527.812000", "093527.815000", "093527.818000", "093527.821000", "093527.824000", "093607.737000", "093607.740000", "093607.743000", "093607.746000", "093607.748000", "093607.751000", "093607.753000", "093607.756000", "093607.759000", "093607.762000", "093607.766000", "093607.768000", "093607.771000", "093607.773000", "093607.776000", "093607.779000", "093607.781000", "093607.794000", "093607.797000", "093607.800000", "093607.802000", "093607.805000", "093607.807000", "093607.810000", "093607.812000", "093607.815000", "093607.818000", "093607.820000", "093607.823000", "093607.826000", "093607.828000", "093607.831000", "093607.833000", "093647.739000", "093647.741000", "093647.744000", "093647.747000", "093647.749000", "093647.752000", "093647.755000", "093647.757000", "093647.760000", "093647.762000", "093647.765000", "093647.767000", "093647.770000", "093647.773000", "093647.775000", "093647.778000", "093647.780000", "093647.783000", "093647.786000", "093647.788000", "093647.791000", "093647.793000", "093647.796000", "093647.799000", "093647.801000", "093647.804000", "093647.806000", "093647.809000", "093647.812000", "093647.814000", "093647.817000", "093647.820000", "093647.822000", "093647.825000", "093727.739000", "093727.741000", "093727.744000", "093727.747000", "093727.749000", "093727.752000", "093727.755000", "093727.757000", "093727.760000", "093727.762000", "093727.766000", "093727.768000", "093727.771000", "093727.774000", "093727.776000", "093727.779000", "093727.782000", "093727.784000", "093727.787000", "093727.789000", "093727.792000", "093727.794000", "093727.797000", "093727.800000", "093727.802000", "093727.805000", "093727.807000", "093727.810000", "093727.813000", "093727.815000", "093727.818000", "093727.821000", "093727.823000", "093807.737000", "093807.740000", "093807.743000", "093807.745000", "093807.748000", "093807.751000", "093807.753000", "093807.756000", "093807.758000", "093807.761000", "093807.763000", "093807.766000", "093807.769000", "093807.771000", "093807.774000", "093807.776000", "093807.779000", "093807.782000", "093807.785000", "093807.788000", "093807.791000", "093807.794000", "093807.797000", "093807.800000", "093807.802000", "093807.805000", "093807.808000", "093807.810000", "093807.813000", "093807.816000", "093807.818000", "093807.821000", "093807.823000", "093847.737000", "093847.740000", "093847.743000", "093847.745000", "093847.748000", "093847.751000", "093847.753000", "093847.756000", "093847.758000", "093847.761000", "093847.764000", "093847.766000", "093847.769000", "093847.771000", "093847.774000", "093847.777000", "093847.779000", "093847.782000", "093847.785000", "093847.787000", "093847.790000", "093847.792000", "093847.795000", "093847.798000", "093847.800000", "093847.803000", "093847.821000", "093847.824000", "093847.826000", "093847.829000", "093847.832000", "093847.834000", "093847.837000", "093847.839000", "093927.739000", "093927.741000", "093927.744000", "093927.747000", "093927.749000", "093927.752000", "093927.755000", "093927.757000", "093927.760000", "093927.763000", "093927.766000", "093927.769000", "093927.771000", "093927.774000", "093927.776000", "093927.779000", "093927.782000", "093927.784000", "093927.787000", "093927.790000", "093927.792000", "093927.795000", "093927.798000", "093927.800000", "093927.803000", "093927.805000", "093927.808000", "093927.810000", "093927.813000", "093927.816000", "093927.819000", "093927.821000", "093927.824000", "094007.738000", "094007.741000", "094007.744000", "094007.747000", "094007.750000", "094007.752000", "094007.755000", "094007.757000", "094007.771000", "094007.774000", "094007.777000", "094007.779000", "094007.782000", "094007.784000", "094007.787000", "094007.790000", "094007.792000", "094007.795000", "094007.797000", "094007.800000", "094007.803000", "094007.805000", "094007.808000", "094007.810000", "094007.813000", "094007.816000", "094007.818000", "094007.821000", "094007.823000", "094007.826000", "094007.829000", "094007.831000", "094007.834000", "094011.384000", "094011.386000", "094011.389000", "094011.392000"],
      "InstanceCreationTime": ["093247.743000", "093247.746000", "093247.749000", "093247.751000", "093247.754000", "093247.757000", "093247.759000", "093247.762000", "093247.764000", "093247.767000", "093247.770000", "093247.778000", "093247.780000", "093247.790000", "093247.793000", "093247.795000", "093247.798000", "093247.806000", "093247.809000", "093247.811000", "093247.814000", "093247.816000", "093327.737000", "093327.740000", "093327.743000", "093327.745000", "093327.748000", "093327.751000", "093327.753000", "093327.756000", "093327.758000", "093327.761000", "093327.764000", "093327.767000", "093327.770000", "093327.772000", "093327.775000", "093327.777000", "093327.791000", "093327.794000", "093327.797000", "093327.799000", "093327.802000", "093327.804000", "093327.807000", "093327.809000", "093327.812000", "093327.815000", "093327.818000", "093327.821000", "093327.824000", "093327.826000", "093327.837000", "093327.840000", "093327.843000", "093407.737000", "093407.740000", "093407.743000", "093407.745000", "093407.748000", "093407.750000", "093407.753000", "093407.756000", "093407.758000", "093407.761000", "093407.764000", "093407.766000", "093407.769000", "093407.771000", "093407.774000", "093407.776000", "093407.787000", "093407.789000", "093407.792000", "093407.794000", "093407.797000", "093407.800000", "093407.802000", "093407.805000", "093407.807000", "093407.810000", "093407.812000", "093407.815000", "093407.818000", "093407.820000", "093407.823000", "093407.826000", "093407.828000", "093407.831000", "093447.738000", "093447.741000", "093447.747000", "093447.749000", "093447.752000", "093447.755000", "093447.757000", "093447.760000", "093447.762000", "093447.765000", "093447.767000", "093447.770000", "093447.772000", "093447.775000", "093447.777000", "093447.780000", "093447.783000", "093447.785000", "093447.788000", "093447.791000", "093447.793000", "093447.796000", "093447.798000", "093447.801000", "093447.803000", "093447.806000", "093447.809000", "093447.811000", "093447.828000", "093447.831000", "093447.834000", "093447.836000", "093447.839000", "093527.738000", "093527.741000", "093527.743000", "093527.746000", "093527.749000", "093527.751000", "093527.754000", "093527.756000", "093527.759000", "093527.762000", "093527.764000", "093527.768000", "093527.770000", "093527.773000", "093527.776000", "093527.778000", "093527.781000", "093527.783000", "093527.786000", "093527.789000", "093527.791000", "093527.794000", "093527.797000", "093527.799000", "093527.802000", "093527.805000", "093527.807000", "093527.810000", "093527.812000", "093527.815000", "093527.818000", "093527.821000", "093527.824000", "093607.737000", "093607.740000", "093607.743000", "093607.746000", "093607.748000", "093607.751000", "093607.753000", "093607.756000", "093607.759000", "093607.762000", "093607.766000", "093607.768000", "093607.771000", "093607.773000", "093607.776000", "093607.779000", "093607.781000", "093607.794000", "093607.797000", "093607.800000", "093607.802000", "093607.805000", "093607.807000", "093607.810000", "093607.812000", "093607.815000", "093607.818000", "093607.820000", "093607.823000", "093607.826000", "093607.828000", "093607.831000", "093607.833000", "093647.739000", "093647.741000", "093647.744000", "093647.747000", "093647.749000", "093647.752000", "093647.755000", "093647.757000", "093647.760000", "093647.762000", "093647.765000", "093647.767000", "093647.770000", "093647.773000", "093647.775000", "093647.778000", "093647.780000", "093647.783000", "093647.786000", "093647.788000", "093647.791000", "093647.793000", "093647.796000", "093647.799000", "093647.801000", "093647.804000", "093647.806000", "093647.809000", "093647.812000", "093647.814000", "093647.817000", "093647.820000", "093647.822000", "093647.825000", "093727.739000", "093727.741000", "093727.744000", "093727.747000", "093727.749000", "093727.752000", "093727.755000", "093727.757000", "093727.760000", "093727.762000", "093727.766000", "093727.768000", "093727.771000", "093727.774000", "093727.776000", "093727.779000", "093727.782000", "093727.784000", "093727.787000", "093727.789000", "093727.792000", "093727.794000", "093727.797000", "093727.800000", "093727.802000", "093727.805000", "093727.807000", "093727.810000", "093727.813000", "093727.815000", "093727.818000", "093727.821000", "093727.823000", "093807.737000", "093807.740000", "093807.743000", "093807.745000", "093807.748000", "093807.751000", "093807.753000", "093807.756000", "093807.758000", "093807.761000", "093807.763000", "093807.766000", "093807.769000", "093807.771000", "093807.774000", "093807.776000", "093807.779000", "093807.782000", "093807.785000", "093807.788000", "093807.791000", "093807.794000", "093807.797000", "093807.800000", "093807.802000", "093807.805000", "093807.808000", "093807.810000", "093807.813000", "093807.816000", "093807.818000", "093807.821000", "093807.823000", "093847.737000", "093847.740000", "093847.743000", "093847.745000", "093847.748000", "093847.751000", "093847.753000", "093847.756000", "093847.758000", "093847.761000", "093847.764000", "093847.766000", "093847.769000", "093847.771000", "093847.774000", "093847.777000", "093847.779000", "093847.782000", "093847.785000", "093847.787000", "093847.790000", "093847.792000", "093847.795000", "093847.798000", "093847.800000", "093847.803000", "093847.821000", "093847.824000", "093847.826000", "093847.829000", "093847.832000", "093847.834000", "093847.837000", "093847.839000", "093927.739000", "093927.741000", "093927.744000", "093927.747000", "093927.749000", "093927.752000", "093927.755000", "093927.757000", "093927.760000", "093927.763000", "093927.766000", "093927.769000", "093927.771000", "093927.774000", "093927.776000", "093927.779000", "093927.782000", "093927.784000", "093927.787000", "093927.790000", "093927.792000", "093927.795000", "093927.798000", "093927.800000", "093927.803000", "093927.805000", "093927.808000", "093927.810000", "093927.813000", "093927.816000", "093927.819000", "093927.821000", "093927.824000", "094007.738000", "094007.741000", "094007.744000", "094007.747000", "094007.750000", "094007.752000", "094007.755000", "094007.757000", "094007.771000", "094007.774000", "094007.777000", "094007.779000", "094007.782000", "094007.784000", "094007.787000", "094007.790000", "094007.792000", "094007.795000", "094007.797000", "094007.800000", "094007.803000", "094007.805000", "094007.808000", "094007.810000", "094007.813000", "094007.816000", "094007.818000", "094007.821000", "094007.823000", "094007.826000", "094007.829000", "094007.831000", "094007.834000", "094011.384000", "094011.386000", "094011.389000", "094011.392000"],
      "InstanceNumber": [1, 2, 3, 4, 5, 6, 7, 8, 9, 10, 11, 12, 13, 14, 15, 16, 17, 18, 19, 20, 21, 22, 23, 24, 25, 26, 27, 28, 29, 30, 31, 32, 33, 34, 35, 36, 37, 38, 39, 40, 41, 42, 43, 44, 45, 46, 47, 48, 49, 50, 51, 52, 53, 54, 55, 56, 57, 58, 59, 60, 61, 62, 63, 64, 65, 66, 67, 68, 69, 70, 71, 72, 73, 74, 75, 76, 77, 78, 79, 80, 81, 82, 83, 84, 85, 86, 87, 88, 89, 90, 91, 92, 93, 94, 95, 96, 97, 98, 99, 100, 101, 102, 103, 104, 105, 106, 107, 108, 109, 110, 111, 112, 113, 114, 115, 116, 117, 118, 119, 120, 121, 122, 123, 124, 125, 126, 127, 128, 129, 130, 131, 132, 133, 134, 135, 136, 137, 138, 139, 140, 141, 142, 143, 144, 145, 146, 147, 148, 149, 150, 151, 152, 153, 154, 155, 156, 157, 158, 159, 160, 161, 162, 163, 164, 165, 166, 167, 168, 169, 170, 171, 172, 173, 174, 175, 176, 177, 178, 179, 180, 181, 182, 183, 184, 185, 186, 187, 188, 189, 190, 191, 192, 193, 194, 195, 196, 197, 198, 199, 200, 201, 202, 203, 204, 205, 206, 207, 208, 209, 210, 211, 212, 213, 214, 215, 216, 217, 218, 219, 220, 221, 222, 223, 224, 225, 226, 227, 228, 229, 230, 231, 232, 233, 234, 235, 236, 237, 238, 239, 240, 241, 242, 243, 244, 245, 246, 247, 248, 249, 250, 251, 252, 253, 254, 255, 256, 257, 258, 259, 260, 261, 262, 263, 264, 265, 266, 267, 268, 269, 270, 271, 272, 273, 274, 275, 276, 277, 278, 279, 280, 281, 282, 283, 284, 285, 286, 287, 288, 289, 290, 291, 292, 293, 294, 295, 296, 297, 298, 299, 300, 301, 302, 303, 304, 305, 306, 307, 308, 309, 310, 311, 312, 313, 314, 315, 316, 317, 318, 319, 320, 321, 322, 323, 324, 325, 326, 327, 328, 329, 330, 331, 332, 333, 334, 335, 336, 337, 338, 339, 340, 341, 342, 343, 344, 345, 346, 347, 348, 349, 350, 351, 352, 353, 354, 355, 356, 357, 358, 359, 360, 361, 362, 363, 364, 365, 366, 367, 368, 369, 370, 371, 372, 373, 374, 375, 376, 377, 378, 379, 380, 381, 382, 383, 384, 385, 386, 387, 388, 389, 390, 391, 392],
