{
  "AcquisitionMatrixPE": 88,
  "AcquisitionNumber": 1,
  "AcquisitionTime": "09:09:8.220000",
  "BandwidthPerPixelPhaseEncode": 19.592,
  "BaseResolution": 88,
  "BodyPartExamined": "BRAIN",
  "ConsistencyInfo": "N4_VE11C_LATEST_20160120",
  "ConversionSoftware": "dcm2niix",
  "ConversionSoftwareVersion": "v1.0.20190902",
  "DerivedVendorReportedEchoSpacing": 0.000580014,
  "DeviceSerialNumber": "67050",
  "DwellTime": 2.6e-06,
  "EchoTime": 0.033,
  "EchoTrainLength": 88,
  "EffectiveEchoSpacing": 0.000580014,
  "FlipAngle": 62,
  "ImageOrientationPatientDICOM": [0.993117, 0.0714519, 0.0928122, -0.0630036, 0.993859, -0.0909704],
  "ImageType": [
    "ORIGINAL",
    "PRIMARY",
    "M",
    "ND",
    "MOSAIC"
],
  "ImagingFrequency": 123.251,
  "InPlanePhaseEncodingDirectionDICOM": "COL",
  "InstitutionAddress": "Olive_Street_60_Providence_RI_US_02912",
  "InstitutionName": "BROWN_UNIVERSITY_MRF",
  "InstitutionalDepartmentName": "Department",
  "MRAcquisitionType": "2D",
  "MagneticFieldStrength": 3,
  "Manufacturer": "Siemens",
  "ManufacturersModelName": "Prisma_fit",
  "Modality": "MR",
  "MultibandAccelerationFactor": 4,
  "PartialFourier": 1,
  "PatientPosition": "HFS",
  "PercentPhaseFOV": 100,
  "PhaseEncodingDirection": "j-",
  "PhaseEncodingSteps": 88,
  "PhaseResolution": 1,
  "PixelBandwidth": 2185,
  "ProcedureStepDescription": "ASHENHAV_1222",
  "ProtocolName": "func-bold_task-RDMcolor_run-01",
  "PulseSequenceDetails": "%SiemensSeq%_ep2d_bold",
  "ReceiveCoilActiveElements": "HC1-7",
  "ReceiveCoilName": "HeadNeck_64",
  "ReconMatrixPE": 88,
  "RefLinesPE": 8,
  "RepetitionTime": 1.2,
  "SAR": 0.0513766,
  "ScanOptions": "FS",
  "ScanningSequence": "EP",
  "SequenceName": "_epfid2d1_88",
  "SequenceVariant": "SK",
  "SeriesDescription": "func-bold_task-RDMcolor_run-01",
  "SeriesNumber": 8,
  "ShimSetting": [1762, -9072, 4373, 250, -125, -185, -82, -40],
  "SliceThickness": 2.4,
  "SliceTiming": [0.55, 0, 0.63, 0.0775, 0.7075, 0.1575, 0.785, 0.235, 0.865, 0.315, 0.9425, 0.3925, 1.0225, 0.4725, 1.1, 0.55, 0, 0.63, 0.0775, 0.7075, 0.1575, 0.785, 0.235, 0.865, 0.315, 0.9425, 0.3925, 1.0225, 0.4725, 1.1, 0.55, 0, 0.63, 0.0775, 0.7075, 0.1575, 0.785, 0.235, 0.865, 0.315, 0.9425, 0.3925, 1.0225, 0.4725, 1.1, 0.55, 0, 0.63, 0.0775, 0.7075, 0.1575, 0.785, 0.235, 0.865, 0.315, 0.9425, 0.3925, 1.0225, 0.4725, 1.1],
  "SoftwareVersions": "syngo_MR_E11",
  "SpacingBetweenSlices": 2.4,
  "StationName": "AWP67050",
  "TaskName": "RDMcolor",
  "TotalReadoutTime": 0.0504612,
  "TxRefAmp": 231.45,
  "dcmmeta_affine": [
    [-2.381222724914551, -0.15106554329395294, 0.23698143661022186, 106.57600402832031],
    [-0.1713222712278366, 2.3830018043518066, -0.20279209315776825, -85.0994873046875],
    [0.22253845632076263, 0.2181222140789032, 2.379646062850952, -83.88670349121094],
    [0.0, 0.0, 0.0, 1.0]
],
  "dcmmeta_reorient_transform": [
    [0.0, -1.0, 0.0, 87.0],
    [1.0, 0.0, 0.0, 0.0],
    [0.0, 0.0, 1.0, 0.0],
    [0.0, 0.0, 0.0, 1.0]
],
  "dcmmeta_shape": [88, 88, 60, 392],
  "dcmmeta_slice_dim": 2,
  "dcmmeta_version": 0.6,
  "global": {
    "const": {
      "AcquisitionMatrix": [88, 0, 0, 88],
      "AngioFlag": "N",
      "BitsAllocated": 16,
      "BitsStored": 12,
      "BodyPartExamined": "BRAIN",
      "Columns": 704,
      "DeidentificationMethodCodeSequence": [
        {
          "CodeMeaning": "XNAT DicomEdit 6 Script",
          "CodeValue": "3",
          "CodingSchemeDesignator": "XNAT",
          "CodingSchemeVersion": "1.0"}
],
      "EchoNumbers": 1,
      "EchoTime": 33.0,
      "EchoTrainLength": 88,
      "FlipAngle": 62.0,
      "HighBit": 11,
      "ImageOrientationPatient": [0.99311656243954, 0.07145194254986, 0.09281224765151, -0.063003642286, 0.9938586053007, -0.0909704002874],
      "ImagePositionPatient": [-780.3216849379, -908.95350371254, -66.27027843859],
      "ImageType": [
        "ORIGINAL",
        "PRIMARY",
        "M",
        "ND",
        "MOSAIC"
],
      "ImagedNucleus": "1H",
      "ImagingFrequency": 123.250762,
      "InPlanePhaseEncodingDirection": "COL",
      "MRAcquisitionType": "2D",
      "MagneticFieldStrength": 3.0,
      "Manufacturer": "SIEMENS",
      "ManufacturerModelName": "Prisma_fit",
      "Modality": "MR",
      "NumberOfAverages": 1.0,
      "NumberOfPhaseEncodingSteps": 88,
      "PercentPhaseFieldOfView": 100.0,
      "PercentSampling": 100.0,
      "PerformedProcedureStepStartTime": "083623.052000",
      "PhotometricInterpretation": "MONOCHROME2",
      "PixelBandwidth": 2185.0,
      "PixelRepresentation": 0,
      "PixelSpacing": [2.3977272510529, 2.3977272510529],
      "ProtocolName": "func-bold_task-RDMcolor_run-01",
      "RepetitionTime": 1200.0,
      "Rows": 704,
      "SAR": 0.05137664784957,
      "SamplesPerPixel": 1,
      "ScanOptions": "FS",
      "ScanningSequence": "EP",
      "SequenceName": "*epfid2d1_88",
      "SequenceVariant": "SK",
      "SeriesDescription": "func-bold_task-RDMcolor_run-01",
      "SeriesNumber": 8,
      "SeriesTime": "090949.199000",
      "SliceLocation": -65.461095798484,
      "SliceThickness": 2.4000000953674,
      "SmallestImagePixelValue": 0,
      "SoftwareVersions": "syngo MR E11",
      "SpacingBetweenSlices": 2.4000000239067,
      "SpecificCharacterSet": "ISO_IR 100",
      "StudyID": "1",
      "StudyTime": "083622.904000",
      "TransmitCoilName": "Body",
      "VariableFlipAngleFlag": "N",
      "WindowCenterWidthExplanation": "Algo1",
      "dBdt": 0.0},
    "slices": {}
  },
  "time": {
    "samples": {
      "AcquisitionNumber": [1, 2, 3, 4, 5, 6, 7, 8, 9, 10, 11, 12, 13, 14, 15, 16, 17, 18, 19, 20, 21, 22, 23, 24, 25, 26, 27, 28, 29, 30, 31, 32, 33, 34, 35, 36, 37, 38, 39, 40, 41, 42, 43, 44, 45, 46, 47, 48, 49, 50, 51, 52, 53, 54, 55, 56, 57, 58, 59, 60, 61, 62, 63, 64, 65, 66, 67, 68, 69, 70, 71, 72, 73, 74, 75, 76, 77, 78, 79, 80, 81, 82, 83, 84, 85, 86, 87, 88, 89, 90, 91, 92, 93, 94, 95, 96, 97, 98, 99, 100, 101, 102, 103, 104, 105, 106, 107, 108, 109, 110, 111, 112, 113, 114, 115, 116, 117, 118, 119, 120, 121, 122, 123, 124, 125, 126, 127, 128, 129, 130, 131, 132, 133, 134, 135, 136, 137, 138, 139, 140, 141, 142, 143, 144, 145, 146, 147, 148, 149, 150, 151, 152, 153, 154, 155, 156, 157, 158, 159, 160, 161, 162, 163, 164, 165, 166, 167, 168, 169, 170, 171, 172, 173, 174, 175, 176, 177, 178, 179, 180, 181, 182, 183, 184, 185, 186, 187, 188, 189, 190, 191, 192, 193, 194, 195, 196, 197, 198, 199, 200, 201, 202, 203, 204, 205, 206, 207, 208, 209, 210, 211, 212, 213, 214, 215, 216, 217, 218, 219, 220, 221, 222, 223, 224, 225, 226, 227, 228, 229, 230, 231, 232, 233, 234, 235, 236, 237, 238, 239, 240, 241, 242, 243, 244, 245, 246, 247, 248, 249, 250, 251, 252, 253, 254, 255, 256, 257, 258, 259, 260, 261, 262, 263, 264, 265, 266, 267, 268, 269, 270, 271, 272, 273, 274, 275, 276, 277, 278, 279, 280, 281, 282, 283, 284, 285, 286, 287, 288, 289, 290, 291, 292, 293, 294, 295, 296, 297, 298, 299, 300, 301, 302, 303, 304, 305, 306, 307, 308, 309, 310, 311, 312, 313, 314, 315, 316, 317, 318, 319, 320, 321, 322, 323, 324, 325, 326, 327, 328, 329, 330, 331, 332, 333, 334, 335, 336, 337, 338, 339, 340, 341, 342, 343, 344, 345, 346, 347, 348, 349, 350, 351, 352, 353, 354, 355, 356, 357, 358, 359, 360, 361, 362, 363, 364, 365, 366, 367, 368, 369, 370, 371, 372, 373, 374, 375, 376, 377, 378, 379, 380, 381, 382, 383, 384, 385, 386, 387, 388, 389, 390, 391, 392],
      "AcquisitionTime": ["090908.220000", "090909.420000", "090910.620000", "090911.820000", "090913.020000", "090914.220000", "090915.420000", "090916.620000", "090917.820000", "090919.020000", "090920.220000", "090921.420000", "090922.620000", "090923.820000", "090925.020000", "090926.220000", "090927.420000", "090928.620000", "090929.820000", "090931.020000", "090932.220000", "090933.420000", "090934.620000", "090935.820000", "090937.020000", "090938.220000", "090939.420000", "090940.620000", "090941.820000", "090943.020000", "090944.220000", "090945.420000", "090946.620000", "090947.820000", "090949.020000", "090950.220000", "090951.420000", "090952.620000", "090953.820000", "090955.020000", "090956.220000", "090957.420000", "090958.620000", "090959.820000", "091001.020000", "091002.220000", "091003.420000", "091004.620000", "091005.820000", "091007.020000", "091008.220000", "091009.420000", "091010.620000", "091011.820000", "091013.020000", "091014.220000", "091015.420000", "091016.620000", "091017.820000", "091019.020000", "091020.220000", "091021.420000", "091022.620000", "091023.820000", "091025.020000", "091026.220000", "091027.420000", "091028.620000", "091029.820000", "091031.020000", "091032.220000", "091033.420000", "091034.620000", "091035.820000", "091037.020000", "091038.220000", "091039.420000", "091040.620000", "091041.820000", "091043.020000", "091044.220000", "091045.420000", "091046.620000", "091047.820000", "091049.020000", "091050.220000", "091051.420000", "091052.620000", "091053.820000", "091055.020000", "091056.220000", "091057.420000", "091058.620000", "091059.820000", "091101.020000", "091102.220000", "091103.420000", "091104.620000", "091105.820000", "091107.020000", "091108.220000", "091109.420000", "091110.620000", "091111.820000", "091113.020000", "091114.220000", "091115.420000", "091116.620000", "091117.820000", "091119.020000", "091120.220000", "091121.420000", "091122.620000", "091123.820000", "091125.020000", "091126.220000", "091127.420000", "091128.620000", "091129.820000", "091131.020000", "091132.220000", "091133.420000", "091134.620000", "091135.820000", "091137.020000", "091138.220000", "091139.420000", "091140.620000", "091141.820000", "091143.020000", "091144.220000", "091145.420000", "091146.620000", "091147.820000", "091149.020000", "091150.220000", "091151.420000", "091152.620000", "091153.820000", "091155.020000", "091156.220000", "091157.420000", "091158.620000", "091159.820000", "091201.020000", "091202.220000", "091203.420000", "091204.620000", "091205.820000", "091207.020000", "091208.220000", "091209.420000", "091210.620000", "091211.820000", "091213.020000", "091214.220000", "091215.420000", "091216.620000", "091217.820000", "091219.020000", "091220.220000", "091221.420000", "091222.620000", "091223.820000", "091225.020000", "091226.220000", "091227.420000", "091228.620000", "091229.820000", "091231.020000", "091232.220000", "091233.420000", "091234.620000", "091235.820000", "091237.020000", "091238.220000", "091239.420000", "091240.620000", "091241.820000", "091243.020000", "091244.220000", "091245.420000", "091246.620000", "091247.820000", "091249.020000", "091250.220000", "091251.420000", "091252.620000", "091253.820000", "091255.020000", "091256.220000", "091257.420000", "091258.620000", "091259.820000", "091301.020000", "091302.220000", "091303.420000", "091304.620000", "091305.820000", "091307.020000", "091308.220000", "091309.420000", "091310.620000", "091311.820000", "091313.020000", "091314.220000", "091315.420000", "091316.620000", "091317.820000", "091319.020000", "091320.220000", "091321.420000", "091322.620000", "091323.820000", "091325.020000", "091326.220000", "091327.420000", "091328.620000", "091329.820000", "091331.020000", "091332.220000", "091333.420000", "091334.620000", "091335.820000", "091337.020000", "091338.220000", "091339.420000", "091340.620000", "091341.820000", "091343.020000", "091344.220000", "091345.420000", "091346.620000", "091347.820000", "091349.020000", "091350.220000", "091351.420000", "091352.620000", "091353.820000", "091355.020000", "091356.220000", "091357.420000", "091358.620000", "091359.820000", "091401.020000", "091402.220000", "091403.420000", "091404.620000", "091405.820000", "091407.020000", "091408.220000", "091409.420000", "091410.620000", "091411.820000", "091413.020000", "091414.220000", "091415.420000", "091416.620000", "091417.820000", "091419.020000", "091420.220000", "091421.420000", "091422.620000", "091423.820000", "091425.020000", "091426.220000", "091427.420000", "091428.620000", "091429.820000", "091431.020000", "091432.220000", "091433.420000", "091434.620000", "091435.820000", "091437.020000", "091438.220000", "091439.420000", "091440.620000", "091441.820000", "091443.020000", "091444.220000", "091445.420000", "091446.620000", "091447.820000", "091449.020000", "091450.220000", "091451.420000", "091452.620000", "091453.820000", "091455.020000", "091456.220000", "091457.420000", "091458.620000", "091459.820000", "091501.020000", "091502.220000", "091503.420000", "091504.620000", "091505.820000", "091507.020000", "091508.220000", "091509.420000", "091510.620000", "091511.820000", "091513.020000", "091514.220000", "091515.420000", "091516.620000", "091517.820000", "091519.020000", "091520.220000", "091521.420000", "091522.620000", "091523.820000", "091525.020000", "091526.220000", "091527.420000", "091528.620000", "091529.820000", "091531.020000", "091532.220000", "091533.420000", "091534.620000", "091535.820000", "091537.020000", "091538.220000", "091539.420000", "091540.620000", "091541.820000", "091543.020000", "091544.220000", "091545.420000", "091546.620000", "091547.820000", "091549.020000", "091550.220000", "091551.420000", "091552.620000", "091553.820000", "091555.020000", "091556.220000", "091557.420000", "091558.620000", "091559.820000", "091601.020000", "091602.220000", "091603.420000", "091604.620000", "091605.820000", "091607.020000", "091608.220000", "091609.420000", "091610.620000", "091611.820000", "091613.020000", "091614.220000", "091615.420000", "091616.620000", "091617.820000", "091619.020000", "091620.220000", "091621.420000", "091622.620000", "091623.820000", "091625.020000", "091626.220000", "091627.420000", "091628.620000", "091629.820000", "091631.020000", "091632.220000", "091633.420000", "091634.620000", "091635.820000", "091637.020000", "091638.220000", "091639.420000", "091640.620000", "091641.820000", "091643.020000", "091644.220000", "091645.420000", "091646.620000", "091647.820000", "091649.020000", "091650.220000", "091651.420000", "091652.620000", "091653.820000", "091655.020000", "091656.220000", "091657.420000"],
      "ContentTime": ["090949.203000", "090949.207000", "090949.209000", "090949.212000", "090949.214000", "090949.217000", "090949.220000", "090949.222000", "090949.225000", "090949.227000", "090949.230000", "090949.232000", "090949.235000", "090949.238000", "090949.240000", "090949.243000", "090949.245000", "090949.248000", "090949.250000", "090949.262000", "090949.264000", "090949.267000", "090949.270000", "090949.272000", "090949.275000", "090949.278000", "090949.280000", "090949.283000", "090949.285000", "090949.288000", "090949.290000", "090949.293000", "090949.295000", "091009.199000", "091009.202000", "091009.204000", "091009.207000", "091009.209000", "091009.212000", "091009.215000", "091009.217000", "091009.220000", "091009.223000", "091009.225000", "091009.228000", "091009.230000", "091009.233000", "091009.236000", "091009.238000", "091009.241000", "091049.198000", "091049.201000", "091049.235000", "091049.237000", "091049.240000", "091049.243000", "091049.245000", "091049.248000", "091049.251000", "091049.253000", "091049.256000", "091049.258000", "091049.261000", "091049.264000", "091049.266000", "091049.269000", "091049.272000", "091049.274000", "091049.277000", "091049.279000", "091049.282000", "091049.285000", "091049.287000", "091049.290000", "091049.292000", "091049.295000", "091049.297000", "091049.300000", "091049.302000", "091049.305000", "091049.308000", "091049.310000", "091049.313000", "091129.199000", "091129.201000", "091129.204000", "091129.206000", "091129.209000", "091129.212000", "091129.214000", "091129.217000", "091129.220000", "091129.222000", "091129.225000", "091129.227000", "091129.230000", "091129.232000", "091129.235000", "091129.237000", "091129.240000", "091129.243000", "091129.245000", "091129.248000", "091129.251000", "091129.253000", "091129.256000", "091129.258000", "091129.261000", "091129.264000", "091129.266000", "091129.269000", "091129.271000", "091129.274000", "091129.276000", "091129.279000", "091129.282000", "091129.284000", "091209.199000", "091209.201000", "091209.204000", "091209.207000", "091209.209000", "091209.212000", "091209.214000", "091209.217000", "091209.220000", "091209.223000", "091209.225000", "091209.228000", "091209.231000", "091209.233000", "091209.236000", "091209.239000", "091209.241000", "091209.244000", "091209.246000", "091209.249000", "091209.251000", "091209.254000", "091209.257000", "091209.259000", "091209.262000", "091209.265000", "091209.267000", "091209.270000", "091209.273000", "091209.275000", "091209.278000", "091209.280000", "091209.283000", "091249.198000", "091249.200000", "091249.203000", "091249.206000", "091249.209000", "091249.212000", "091249.214000", "091249.217000", "091249.220000", "091249.223000", "091249.225000", "091249.228000", "091249.230000", "091249.233000", "091249.236000", "091249.238000", "091249.241000", "091249.244000", "091249.246000", "091249.249000", "091249.251000", "091249.254000", "091249.257000", "091249.259000", "091249.262000", "091249.264000", "091249.267000", "091249.270000", "091249.272000", "091249.275000", "091249.277000", "091249.280000", "091249.283000", "091329.198000", "091329.201000", "091329.204000", "091329.206000", "091329.209000", "091329.212000", "091329.214000", "091329.217000", "091329.219000", "091329.222000", "091329.225000", "091329.227000", "091329.230000", "091329.233000", "091329.235000", "091329.238000", "091329.240000", "091329.243000", "091329.245000", "091329.248000", "091329.251000", "091329.253000", "091329.256000", "091329.258000", "091329.261000", "091329.264000", "091329.266000", "091329.269000", "091329.271000", "091329.274000", "091329.277000", "091329.279000", "091329.282000", "091329.284000", "091409.199000", "091409.202000", "091409.204000", "091409.207000", "091409.209000", "091409.212000", "091409.215000", "091409.217000", "091409.220000", "091409.223000", "091409.225000", "091409.228000", "091409.230000", "091409.233000", "091409.236000", "091409.238000", "091409.241000", "091409.243000", "091409.246000", "091409.249000", "091409.251000", "091409.254000", "091409.256000", "091409.259000", "091409.262000", "091409.264000", "091409.267000", "091409.270000", "091409.273000", "091409.275000", "091409.278000", "091409.280000", "091409.295000", "091449.199000", "091449.201000", "091449.204000", "091449.207000", "091449.209000", "091449.212000", "091449.215000", "091449.217000", "091449.220000", "091449.223000", "091449.225000", "091449.228000", "091449.230000", "091449.233000", "091449.236000", "091449.238000", "091449.241000", "091449.243000", "091449.246000", "091449.249000", "091449.251000", "091449.254000", "091449.256000", "091449.259000", "091449.262000", "091449.264000", "091449.267000", "091449.270000", "091449.272000", "091449.275000", "091449.278000", "091449.280000", "091449.283000", "091529.198000", "091529.201000", "091529.203000", "091529.206000", "091529.208000", "091529.211000", "091529.214000", "091529.216000", "091529.219000", "091529.221000", "091529.224000", "091529.227000", "091529.229000", "091529.232000", "091529.234000", "091529.237000", "091529.239000", "091529.242000", "091529.245000", "091529.248000", "091529.250000", "091529.253000", "091529.255000", "091529.258000", "091529.260000", "091529.263000", "091529.266000", "091529.268000", "091529.271000", "091529.274000", "091529.276000", "091529.279000", "091529.281000", "091529.284000", "091609.199000", "091609.202000", "091609.204000", "091609.207000", "091609.209000", "091609.212000", "091609.215000", "091609.217000", "091609.220000", "091609.223000", "091609.226000", "091609.228000", "091609.231000", "091609.234000", "091609.236000", "091609.239000", "091609.241000", "091609.244000", "091609.246000", "091609.249000", "091609.251000", "091609.254000", "091609.257000", "091609.259000", "091609.262000", "091609.265000", "091609.267000", "091609.270000", "091609.272000", "091609.275000", "091609.278000", "091609.280000", "091609.283000", "091649.199000", "091649.201000", "091649.204000", "091649.207000", "091649.209000", "091649.212000", "091649.215000", "091649.217000", "091649.220000", "091649.223000", "091649.225000", "091649.228000", "091649.230000", "091649.233000", "091649.236000", "091649.238000", "091649.241000", "091649.244000", "091649.246000", "091649.249000", "091649.251000", "091649.254000", "091649.257000", "091649.259000", "091649.262000", "091649.264000", "091649.267000", "091649.270000", "091649.272000", "091649.275000", "091649.278000", "091649.280000", "091649.283000", "091658.976000", "091658.979000", "091658.982000", "091658.984000", "091658.987000", "091658.990000", "091658.992000", "091658.995000", "091658.998000"],
      "InstanceCreationTime": ["090949.203000", "090949.207000", "090949.209000", "090949.212000", "090949.214000", "090949.217000", "090949.220000", "090949.222000", "090949.225000", "090949.227000", "090949.230000", "090949.232000", "090949.235000", "090949.238000", "090949.240000", "090949.243000", "090949.245000", "090949.248000", "090949.250000", "090949.262000", "090949.264000", "090949.267000", "090949.270000", "090949.272000", "090949.275000", "090949.278000", "090949.280000", "090949.283000", "090949.285000", "090949.288000", "090949.290000", "090949.293000", "090949.295000", "091009.199000", "091009.202000", "091009.204000", "091009.207000", "091009.209000", "091009.212000", "091009.215000", "091009.217000", "091009.220000", "091009.223000", "091009.225000", "091009.228000", "091009.230000", "091009.233000", "091009.236000", "091009.238000", "091009.241000", "091049.198000", "091049.201000", "091049.235000", "091049.237000", "091049.240000", "091049.243000", "091049.245000", "091049.248000", "091049.251000", "091049.253000", "091049.256000", "091049.258000", "091049.261000", "091049.264000", "091049.266000", "091049.269000", "091049.272000", "091049.274000", "091049.277000", "091049.279000", "091049.282000", "091049.285000", "091049.287000", "091049.290000", "091049.292000", "091049.295000", "091049.297000", "091049.300000", "091049.302000", "091049.305000", "091049.308000", "091049.310000", "091049.313000", "091129.199000", "091129.201000", "091129.204000", "091129.206000", "091129.209000", "091129.212000", "091129.214000", "091129.217000", "091129.220000", "091129.222000", "091129.225000", "091129.227000", "091129.230000", "091129.232000", "091129.235000", "091129.237000", "091129.240000", "091129.243000", "091129.245000", "091129.248000", "091129.251000", "091129.253000", "091129.256000", "091129.258000", "091129.261000", "091129.264000", "091129.266000", "091129.269000", "091129.271000", "091129.274000", "091129.276000", "091129.279000", "091129.282000", "091129.284000", "091209.199000", "091209.201000", "091209.204000", "091209.207000", "091209.209000", "091209.212000", "091209.214000", "091209.217000", "091209.220000", "091209.223000", "091209.225000", "091209.228000", "091209.231000", "091209.233000", "091209.236000", "091209.239000", "091209.241000", "091209.244000", "091209.246000", "091209.249000", "091209.251000", "091209.254000", "091209.257000", "091209.259000", "091209.262000", "091209.265000", "091209.267000", "091209.270000", "091209.273000", "091209.275000", "091209.278000", "091209.280000", "091209.283000", "091249.198000", "091249.200000", "091249.203000", "091249.206000", "091249.209000", "091249.212000", "091249.214000", "091249.217000", "091249.220000", "091249.223000", "091249.225000", "091249.228000", "091249.230000", "091249.233000", "091249.236000", "091249.238000", "091249.241000", "091249.244000", "091249.246000", "091249.249000", "091249.251000", "091249.254000", "091249.257000", "091249.259000", "091249.262000", "091249.264000", "091249.267000", "091249.270000", "091249.272000", "091249.275000", "091249.277000", "091249.280000", "091249.283000", "091329.198000", "091329.201000", "091329.204000", "091329.206000", "091329.209000", "091329.212000", "091329.214000", "091329.217000", "091329.219000", "091329.222000", "091329.225000", "091329.227000", "091329.230000", "091329.233000", "091329.235000", "091329.238000", "091329.240000", "091329.243000", "091329.245000", "091329.248000", "091329.251000", "091329.253000", "091329.256000", "091329.258000", "091329.261000", "091329.264000", "091329.266000", "091329.269000", "091329.271000", "091329.274000", "091329.277000", "091329.279000", "091329.282000", "091329.284000", "091409.199000", "091409.202000", "091409.204000", "091409.207000", "091409.209000", "091409.212000", "091409.215000", "091409.217000", "091409.220000", "091409.223000", "091409.225000", "091409.228000", "091409.230000", "091409.233000", "091409.236000", "091409.238000", "091409.241000", "091409.243000", "091409.246000", "091409.249000", "091409.251000", "091409.254000", "091409.256000", "091409.259000", "091409.262000", "091409.264000", "091409.267000", "091409.270000", "091409.273000", "091409.275000", "091409.278000", "091409.280000", "091409.295000", "091449.199000", "091449.201000", "091449.204000", "091449.207000", "091449.209000", "091449.212000", "091449.215000", "091449.217000", "091449.220000", "091449.223000", "091449.225000", "091449.228000", "091449.230000", "091449.233000", "091449.236000", "091449.238000", "091449.241000", "091449.243000", "091449.246000", "091449.249000", "091449.251000", "091449.254000", "091449.256000", "091449.259000", "091449.262000", "091449.264000", "091449.267000", "091449.270000", "091449.272000", "091449.275000", "091449.278000", "091449.280000", "091449.283000", "091529.198000", "091529.201000", "091529.203000", "091529.206000", "091529.208000", "091529.211000", "091529.214000", "091529.216000", "091529.219000", "091529.221000", "091529.224000", "091529.227000", "091529.229000", "091529.232000", "091529.234000", "091529.237000", "091529.239000", "091529.242000", "091529.245000", "091529.248000", "091529.250000", "091529.253000", "091529.255000", "091529.258000", "091529.260000", "091529.263000", "091529.266000", "091529.268000", "091529.271000", "091529.274000", "091529.276000", "091529.279000", "091529.281000", "091529.284000", "091609.199000", "091609.202000", "091609.204000", "091609.207000", "091609.209000", "091609.212000", "091609.215000", "091609.217000", "091609.220000", "091609.223000", "091609.226000", "091609.228000", "091609.231000", "091609.234000", "091609.236000", "091609.239000", "091609.241000", "091609.244000", "091609.246000", "091609.249000", "091609.251000", "091609.254000", "091609.257000", "091609.259000", "091609.262000", "091609.265000", "091609.267000", "091609.270000", "091609.272000", "091609.275000", "091609.278000", "091609.280000", "091609.283000", "091649.199000", "091649.201000", "091649.204000", "091649.207000", "091649.209000", "091649.212000", "091649.215000", "091649.217000", "091649.220000", "091649.223000", "091649.225000", "091649.228000", "091649.230000", "091649.233000", "091649.236000", "091649.238000", "091649.241000", "091649.244000", "091649.246000", "091649.249000", "091649.251000", "091649.254000", "091649.257000", "091649.259000", "091649.262000", "091649.264000", "091649.267000", "091649.270000", "091649.272000", "091649.275000", "091649.278000", "091649.280000", "091649.283000", "091658.976000", "091658.979000", "091658.982000", "091658.984000", "091658.987000", "091658.990000", "091658.992000", "091658.995000", "091658.998000"],
      "InstanceNumber": [1, 2, 3, 4, 5, 6, 7, 8, 9, 10, 11, 12, 13, 14, 15, 16, 17, 18, 19, 20, 21, 22, 23, 24, 25, 26, 27, 28, 29, 30, 31, 32, 33, 34, 35, 36, 37, 38, 39, 40, 41, 42, 43, 44, 45, 46, 47, 48, 49, 50, 51, 52, 53, 54, 55, 56, 57, 58, 59, 60, 61, 62, 63, 64, 65, 66, 67, 68, 69, 70, 71, 72, 73, 74, 75, 76, 77, 78, 79, 80, 81, 82, 83, 84, 85, 86, 87, 88, 89, 90, 91, 92, 93, 94, 95, 96, 97, 98, 99, 100, 101, 102, 103, 104, 105, 106, 107, 108, 109, 110, 111, 112, 113, 114, 115, 116, 117, 118, 119, 120, 121, 122, 123, 124, 125, 126, 127, 128, 129, 130, 131, 132, 133, 134, 135, 136, 137, 138, 139, 140, 141, 142, 143, 144, 145, 146, 147, 148, 149, 150, 151, 152, 153, 154, 155, 156, 157, 158, 159, 160, 161, 162, 163, 164, 165, 166, 167, 168, 169, 170, 171, 172, 173, 174, 175, 176, 177, 178, 179, 180, 181, 182, 183, 184, 185, 186, 187, 188, 189, 190, 191, 192, 193, 194, 195, 196, 197, 198, 199, 200, 201, 202, 203, 204, 205, 206, 207, 208, 209, 210, 211, 212, 213, 214, 215, 216, 217, 218, 219, 220, 221, 222, 223, 224, 225, 226, 227, 228, 229, 230, 231, 232, 233, 234, 235, 236, 237, 238, 239, 240, 241, 242, 243, 244, 245, 246, 247, 248, 249, 250, 251, 252, 253, 254, 255, 256, 257, 258, 259, 260, 261, 262, 263, 264, 265, 266, 267, 268, 269, 270, 271, 272, 273, 274, 275, 276, 277, 278, 279, 280, 281, 282, 283, 284, 285, 286, 287, 288, 289, 290, 291, 292, 293, 294, 295, 296, 297, 298, 299, 300, 301, 302, 303, 304, 305, 306, 307, 308, 309, 310, 311, 312, 313, 314, 315, 316, 317, 318, 319, 320, 321, 322, 323, 324, 325, 326, 327, 328, 329, 330, 331, 332, 333, 334, 335, 336, 337, 338, 339, 340, 341, 342, 343, 344, 345, 346, 347, 348, 349, 350, 351, 352, 353, 354, 355, 356, 357, 358, 359, 360, 361, 362, 363, 364, 365, 366, 367, 368, 369, 370, 371, 372, 373, 374, 375, 376, 377, 378, 379, 380, 381, 382, 383, 384, 385, 386, 387, 388, 389, 390, 391, 392],
