{
  "AcquisitionMatrixPE": 88,
  "AcquisitionNumber": 1,
  "AcquisitionTime": "10:16:34.405000",
  "BandwidthPerPixelPhaseEncode": 19.592,
  "BaseResolution": 88,
  "BodyPartExamined": "BRAIN",
  "ConsistencyInfo": "N4_VE11C_LATEST_20160120",
  "ConversionSoftware": "dcm2niix",
  "ConversionSoftwareVersion": "v1.0.20190902",
  "DerivedVendorReportedEchoSpacing": 0.000580014,
  "DeviceSerialNumber": "67050",
  "DwellTime": 2.6e-06,
  "EchoTime": 0.033,
  "EchoTrainLength": 88,
  "EffectiveEchoSpacing": 0.000580014,
  "FlipAngle": 62,
  "ImageOrientationPatientDICOM": [0.993117, 0.0714519, 0.0928122, -0.0630036, 0.993859, -0.0909704],
  "ImageType": [
    "ORIGINAL",
    "PRIMARY",
    "M",
    "ND",
    "MOSAIC"
],
  "ImagingFrequency": 123.251,
  "InPlanePhaseEncodingDirectionDICOM": "COL",
  "InstitutionAddress": "Olive_Street_60_Providence_RI_US_02912",
  "InstitutionName": "BROWN_UNIVERSITY_MRF",
  "InstitutionalDepartmentName": "Department",
  "MRAcquisitionType": "2D",
  "MagneticFieldStrength": 3,
  "Manufacturer": "Siemens",
  "ManufacturersModelName": "Prisma_fit",
  "Modality": "MR",
  "MultibandAccelerationFactor": 4,
  "PartialFourier": 1,
  "PatientPosition": "HFS",
  "PercentPhaseFOV": 100,
  "PhaseEncodingDirection": "j-",
  "PhaseEncodingSteps": 88,
  "PhaseResolution": 1,
  "PixelBandwidth": 2185,
  "ProcedureStepDescription": "ASHENHAV_1222",
  "ProtocolName": "func-bold_task-RDMlocalizer_run-01",
  "PulseSequenceDetails": "%SiemensSeq%_ep2d_bold",
  "ReceiveCoilActiveElements": "HC1-7",
  "ReceiveCoilName": "HeadNeck_64",
  "ReconMatrixPE": 88,
  "RefLinesPE": 8,
  "RepetitionTime": 1.2,
  "SAR": 0.0511254,
  "ScanOptions": "FS",
  "ScanningSequence": "EP",
  "SequenceName": "_epfid2d1_88",
  "SequenceVariant": "SK",
  "SeriesDescription": "func-bold_task-RDMlocalizer_run-01",
  "SeriesNumber": 19,
  "ShimSetting": [1762, -9072, 4373, 250, -125, -185, -82, -40],
  "SliceThickness": 2.4,
  "SliceTiming": [0.55, 0, 0.63, 0.08, 0.7075, 0.1575, 0.7875, 0.2375, 0.865, 0.315, 0.945, 0.395, 1.0225, 0.4725, 1.1025, 0.55, 0, 0.63, 0.08, 0.7075, 0.1575, 0.7875, 0.2375, 0.865, 0.315, 0.945, 0.395, 1.0225, 0.4725, 1.1025, 0.55, 0, 0.63, 0.08, 0.7075, 0.1575, 0.7875, 0.2375, 0.865, 0.315, 0.945, 0.395, 1.0225, 0.4725, 1.1025, 0.55, 0, 0.63, 0.08, 0.7075, 0.1575, 0.7875, 0.2375, 0.865, 0.315, 0.945, 0.395, 1.0225, 0.4725, 1.1025],
  "SoftwareVersions": "syngo_MR_E11",
  "SpacingBetweenSlices": 2.4,
  "StationName": "AWP67050",
  "TaskName": "RDMlocalizer",
  "TotalReadoutTime": 0.0504612,
  "TxRefAmp": 231.45,
  "dcmmeta_affine": [
    [-2.381222724914551, -0.15106554329395294, 0.23698143661022186, 106.57600402832031],
    [-0.1713222712278366, 2.3830018043518066, -0.20279209315776825, -85.0994873046875],
    [0.22253845632076263, 0.2181222140789032, 2.379646062850952, -83.88670349121094],
    [0.0, 0.0, 0.0, 1.0]
],
  "dcmmeta_reorient_transform": [
    [0.0, -1.0, 0.0, 87.0],
    [1.0, 0.0, 0.0, 0.0],
    [0.0, 0.0, 1.0, 0.0],
    [0.0, 0.0, 0.0, 1.0]
],
  "dcmmeta_shape": [88, 88, 60, 195],
  "dcmmeta_slice_dim": 2,
  "dcmmeta_version": 0.6,
  "global": {
    "const": {
      "AcquisitionMatrix": [88, 0, 0, 88],
      "AngioFlag": "N",
      "BitsAllocated": 16,
      "BitsStored": 12,
      "BodyPartExamined": "BRAIN",
      "Columns": 704,
      "DeidentificationMethodCodeSequence": [
        {
          "CodeMeaning": "XNAT DicomEdit 6 Script",
          "CodeValue": "3",
          "CodingSchemeDesignator": "XNAT",
          "CodingSchemeVersion": "1.0"}
],
      "EchoNumbers": 1,
      "EchoTime": 33.0,
      "EchoTrainLength": 88,
      "FlipAngle": 62.0,
      "HighBit": 11,
      "ImageOrientationPatient": [0.99311656243954, 0.07145194254986, 0.09281224765151, -0.063003642286, 0.9938586053007, -0.0909704002874],
      "ImagePositionPatient": [-780.3216849379, -908.95350371254, -66.27027843859],
      "ImageType": [
        "ORIGINAL",
        "PRIMARY",
        "M",
        "ND",
        "MOSAIC"
],
      "ImagedNucleus": "1H",
      "ImagingFrequency": 123.250787,
      "InPlanePhaseEncodingDirection": "COL",
      "MRAcquisitionType": "2D",
      "MagneticFieldStrength": 3.0,
      "Manufacturer": "SIEMENS",
      "ManufacturerModelName": "Prisma_fit",
      "Modality": "MR",
      "NumberOfAverages": 1.0,
      "NumberOfPhaseEncodingSteps": 88,
      "PercentPhaseFieldOfView": 100.0,
      "PercentSampling": 100.0,
      "PerformedProcedureStepStartTime": "083623.052000",
      "PhotometricInterpretation": "MONOCHROME2",
      "PixelBandwidth": 2185.0,
      "PixelRepresentation": 0,
      "PixelSpacing": [2.3977272510529, 2.3977272510529],
      "ProtocolName": "func-bold_task-RDMlocalizer_run-01",
      "RepetitionTime": 1200.0,
      "Rows": 704,
      "SAR": 0.05112536226808,
      "SamplesPerPixel": 1,
      "ScanOptions": "FS",
      "ScanningSequence": "EP",
      "SequenceName": "*epfid2d1_88",
      "SequenceVariant": "SK",
      "SeriesDescription": "func-bold_task-RDMlocalizer_run-01",
      "SeriesNumber": 19,
      "SeriesTime": "101707.276000",
      "SliceLocation": -65.461095798484,
      "SliceThickness": 2.4000000953674,
      "SmallestImagePixelValue": 0,
      "SoftwareVersions": "syngo MR E11",
      "SpacingBetweenSlices": 2.4000000239067,
      "SpecificCharacterSet": "ISO_IR 100",
      "StudyID": "1",
      "StudyTime": "083622.904000",
      "TransmitCoilName": "Body",
      "VariableFlipAngleFlag": "N",
      "WindowCenterWidthExplanation": "Algo1",
      "dBdt": 0.0},
    "slices": {}
  },
  "time": {
    "samples": {
      "AcquisitionNumber": [1, 2, 3, 4, 5, 6, 7, 8, 9, 10, 11, 12, 13, 14, 15, 16, 17, 18, 19, 20, 21, 22, 23, 24, 25, 26, 27, 28, 29, 30, 31, 32, 33, 34, 35, 36, 37, 38, 39, 40, 41, 42, 43, 44, 45, 46, 47, 48, 49, 50, 51, 52, 53, 54, 55, 56, 57, 58, 59, 60, 61, 62, 63, 64, 65, 66, 67, 68, 69, 70, 71, 72, 73, 74, 75, 76, 77, 78, 79, 80, 81, 82, 83, 84, 85, 86, 87, 88, 89, 90, 91, 92, 93, 94, 95, 96, 97, 98, 99, 100, 101, 102, 103, 104, 105, 106, 107, 108, 109, 110, 111, 112, 113, 114, 115, 116, 117, 118, 119, 120, 121, 122, 123, 124, 125, 126, 127, 128, 129, 130, 131, 132, 133, 134, 135, 136, 137, 138, 139, 140, 141, 142, 143, 144, 145, 146, 147, 148, 149, 150, 151, 152, 153, 154, 155, 156, 157, 158, 159, 160, 161, 162, 163, 164, 165, 166, 167, 168, 169, 170, 171, 172, 173, 174, 175, 176, 177, 178, 179, 180, 181, 182, 183, 184, 185, 186, 187, 188, 189, 190, 191, 192, 193, 194, 195],
      "AcquisitionTime": ["101634.405000", "101635.605000", "101636.805000", "101638.005000", "101639.205000", "101640.405000", "101641.605000", "101642.805000", "101644.005000", "101645.205000", "101646.405000", "101647.605000", "101648.805000", "101650.005000", "101651.205000", "101652.405000", "101653.605000", "101654.805000", "101656.005000", "101657.205000", "101658.405000", "101659.605000", "101700.805000", "101702.005000", "101703.205000", "101704.405000", "101705.605000", "101706.805000", "101708.005000", "101709.205000", "101710.405000", "101711.605000", "101712.805000", "101714.005000", "101715.205000", "101716.405000", "101717.605000", "101718.805000", "101720.005000", "101721.205000", "101722.405000", "101723.605000", "101724.805000", "101726.005000", "101727.205000", "101728.405000", "101729.605000", "101730.805000", "101732.005000", "101733.205000", "101734.405000", "101735.605000", "101736.805000", "101738.005000", "101739.205000", "101740.405000", "101741.605000", "101742.805000", "101744.005000", "101745.205000", "101746.405000", "101747.605000", "101748.805000", "101750.005000", "101751.205000", "101752.405000", "101753.605000", "101754.805000", "101756.005000", "101757.205000", "101758.405000", "101759.605000", "101800.805000", "101802.005000", "101803.205000", "101804.405000", "101805.605000", "101806.805000", "101808.005000", "101809.205000", "101810.405000", "101811.605000", "101812.805000", "101814.005000", "101815.205000", "101816.405000", "101817.605000", "101818.805000", "101820.005000", "101821.205000", "101822.405000", "101823.605000", "101824.805000", "101826.005000", "101827.205000", "101828.405000", "101829.605000", "101830.805000", "101832.005000", "101833.205000", "101834.405000", "101835.605000", "101836.805000", "101838.005000", "101839.205000", "101840.405000", "101841.605000", "101842.805000", "101844.005000", "101845.205000", "101846.405000", "101847.605000", "101848.805000", "101850.005000", "101851.205000", "101852.405000", "101853.605000", "101854.805000", "101856.005000", "101857.205000", "101858.405000", "101859.605000", "101900.805000", "101902.005000", "101903.205000", "101904.405000", "101905.605000", "101906.805000", "101908.005000", "101909.205000", "101910.405000", "101911.605000", "101912.805000", "101914.005000", "101915.205000", "101916.405000", "101917.605000", "101918.805000", "101920.005000", "101921.205000", "101922.405000", "101923.605000", "101924.805000", "101926.005000", "101927.205000", "101928.405000", "101929.605000", "101930.805000", "101932.005000", "101933.205000", "101934.405000", "101935.605000", "101936.805000", "101938.005000", "101939.205000", "101940.405000", "101941.605000", "101942.805000", "101944.005000", "101945.205000", "101946.405000", "101947.605000", "101948.805000", "101950.005000", "101951.205000", "101952.405000", "101953.605000", "101954.805000", "101956.005000", "101957.205000", "101958.405000", "101959.605000", "102000.805000", "102002.005000", "102003.205000", "102004.405000", "102005.605000", "102006.805000", "102008.005000", "102009.205000", "102010.405000", "102011.605000", "102012.805000", "102014.005000", "102015.205000", "102016.405000", "102017.605000", "102018.805000", "102020.005000", "102021.205000", "102022.405000", "102023.605000", "102024.805000", "102026.005000", "102027.205000"],
      "ContentTime": ["101707.280000", "101707.283000", "101707.286000", "101707.288000", "101707.291000", "101707.293000", "101707.296000", "101707.299000", "101707.301000", "101707.304000", "101707.306000", "101707.316000", "101707.329000", "101707.332000", "101707.335000", "101707.337000", "101707.340000", "101707.342000", "101707.345000", "101707.347000", "101707.350000", "101707.353000", "101707.355000", "101707.358000", "101707.364000", "101707.366000", "101707.369000", "101747.275000", "101747.278000", "101747.281000", "101747.283000", "101747.286000", "101747.288000", "101747.291000", "101747.293000", "101747.303000", "101747.305000", "101747.308000", "101747.310000", "101747.313000", "101747.315000", "101747.318000", "101747.320000", "101747.323000", "101747.325000", "101747.328000", "101747.330000", "101747.333000", "101747.336000", "101747.338000", "101747.340000", "101747.348000", "101747.351000", "101747.353000", "101747.355000", "101747.358000", "101747.361000", "101747.363000", "101747.366000", "101747.369000", "101827.275000", "101827.278000", "101827.281000", "101827.283000", "101827.286000", "101827.289000", "101827.292000", "101827.294000", "101827.297000", "101827.300000", "101827.302000", "101827.305000", "101827.308000", "101827.311000", "101827.313000", "101827.316000", "101827.319000", "101827.321000", "101827.324000", "101827.327000", "101827.329000", "101827.332000", "101827.334000", "101827.337000", "101827.340000", "101827.342000", "101827.345000", "101827.348000", "101827.351000", "101827.353000", "101827.356000", "101827.358000", "101827.361000", "101907.275000", "101907.278000", "101907.281000", "101907.283000", "101907.286000", "101907.288000", "101907.291000", "101907.294000", "101907.296000", "101907.299000", "101907.301000", "101907.304000", "101907.307000", "101907.310000", "101907.312000", "101907.315000", "101907.317000", "101907.320000", "101907.323000", "101907.325000", "101907.328000", "101907.330000", "101907.333000", "101907.335000", "101907.338000", "101907.341000", "101907.343000", "101907.346000", "101907.349000", "101907.351000", "101907.354000", "101907.356000", "101907.359000", "101907.361000", "101947.275000", "101947.278000", "101947.281000", "101947.283000", "101947.287000", "101947.289000", "101947.292000", "101947.294000", "101947.297000", "101947.299000", "101947.302000", "101947.304000", "101947.307000", "101947.310000", "101947.312000", "101947.315000", "101947.317000", "101947.320000", "101947.323000", "101947.325000", "101947.328000", "101947.331000", "101947.333000", "101947.336000", "101947.338000", "101947.341000", "101947.343000", "101947.346000", "101947.349000", "101947.351000", "101947.354000", "101947.356000", "101947.359000", "102007.276000", "102007.286000", "102007.289000", "102007.291000", "102007.294000", "102007.297000", "102007.299000", "102007.302000", "102007.304000", "102007.307000", "102007.310000", "102007.312000", "102007.315000", "102007.317000", "102007.320000", "102007.323000", "102007.325000", "102028.863000", "102028.866000", "102028.869000", "102028.871000", "102028.874000", "102028.877000", "102028.879000", "102028.882000", "102028.885000", "102028.887000", "102028.890000", "102028.893000", "102028.895000", "102028.898000", "102028.900000", "102028.903000", "102028.906000", "102028.908000"],
      "InstanceCreationTime": ["101707.280000", "101707.283000", "101707.286000", "101707.288000", "101707.291000", "101707.293000", "101707.296000", "101707.299000", "101707.301000", "101707.304000", "101707.306000", "101707.316000", "101707.329000", "101707.332000", "101707.335000", "101707.337000", "101707.340000", "101707.342000", "101707.345000", "101707.347000", "101707.350000", "101707.353000", "101707.355000", "101707.358000", "101707.364000", "101707.366000", "101707.369000", "101747.275000", "101747.278000", "101747.281000", "101747.283000", "101747.286000", "101747.288000", "101747.291000", "101747.293000", "101747.303000", "101747.305000", "101747.308000", "101747.310000", "101747.313000", "101747.315000", "101747.318000", "101747.320000", "101747.323000", "101747.325000", "101747.328000", "101747.330000", "101747.333000", "101747.336000", "101747.338000", "101747.340000", "101747.348000", "101747.351000", "101747.353000", "101747.355000", "101747.358000", "101747.361000", "101747.363000", "101747.366000", "101747.369000", "101827.275000", "101827.278000", "101827.281000", "101827.283000", "101827.286000", "101827.289000", "101827.292000", "101827.294000", "101827.297000", "101827.300000", "101827.302000", "101827.305000", "101827.308000", "101827.311000", "101827.313000", "101827.316000", "101827.319000", "101827.321000", "101827.324000", "101827.327000", "101827.329000", "101827.332000", "101827.334000", "101827.337000", "101827.340000", "101827.342000", "101827.345000", "101827.348000", "101827.351000", "101827.353000", "101827.356000", "101827.358000", "101827.361000", "101907.275000", "101907.278000", "101907.281000", "101907.283000", "101907.286000", "101907.288000", "101907.291000", "101907.294000", "101907.296000", "101907.299000", "101907.301000", "101907.304000", "101907.307000", "101907.310000", "101907.312000", "101907.315000", "101907.317000", "101907.320000", "101907.323000", "101907.325000", "101907.328000", "101907.330000", "101907.333000", "101907.335000", "101907.338000", "101907.341000", "101907.343000", "101907.346000", "101907.349000", "101907.351000", "101907.354000", "101907.356000", "101907.359000", "101907.361000", "101947.275000", "101947.278000", "101947.281000", "101947.283000", "101947.287000", "101947.289000", "101947.292000", "101947.294000", "101947.297000", "101947.299000", "101947.302000", "101947.304000", "101947.307000", "101947.310000", "101947.312000", "101947.315000", "101947.317000", "101947.320000", "101947.323000", "101947.325000", "101947.328000", "101947.331000", "101947.333000", "101947.336000", "101947.338000", "101947.341000", "101947.343000", "101947.346000", "101947.349000", "101947.351000", "101947.354000", "101947.356000", "101947.359000", "102007.276000", "102007.286000", "102007.289000", "102007.291000", "102007.294000", "102007.297000", "102007.299000", "102007.302000", "102007.304000", "102007.307000", "102007.310000", "102007.312000", "102007.315000", "102007.317000", "102007.320000", "102007.323000", "102007.325000", "102028.863000", "102028.866000", "102028.869000", "102028.871000", "102028.874000", "102028.877000", "102028.879000", "102028.882000", "102028.885000", "102028.887000", "102028.890000", "102028.893000", "102028.895000", "102028.898000", "102028.900000", "102028.903000", "102028.906000", "102028.908000"],
      "InstanceNumber": [1, 2, 3, 4, 5, 6, 7, 8, 9, 10, 11, 12, 13, 14, 15, 16, 17, 18, 19, 20, 21, 22, 23, 24, 25, 26, 27, 28, 29, 30, 31, 32, 33, 34, 35, 36, 37, 38, 39, 40, 41, 42, 43, 44, 45, 46, 47, 48, 49, 50, 51, 52, 53, 54, 55, 56, 57, 58, 59, 60, 61, 62, 63, 64, 65, 66, 67, 68, 69, 70, 71, 72, 73, 74, 75, 76, 77, 78, 79, 80, 81, 82, 83, 84, 85, 86, 87, 88, 89, 90, 91, 92, 93, 94, 95, 96, 97, 98, 99, 100, 101, 102, 103, 104, 105, 106, 107, 108, 109, 110, 111, 112, 113, 114, 115, 116, 117, 118, 119, 120, 121, 122, 123, 124, 125, 126, 127, 128, 129, 130, 131, 132, 133, 134, 135, 136, 137, 138, 139, 140, 141, 142, 143, 144, 145, 146, 147, 148, 149, 150, 151, 152, 153, 154, 155, 156, 157, 158, 159, 160, 161, 162, 163, 164, 165, 166, 167, 168, 169, 170, 171, 172, 173, 174, 175, 176, 177, 178, 179, 180, 181, 182, 183, 184, 185, 186, 187, 188, 189, 190, 191, 192, 193, 194, 195],
      "LargestImagePixelValue": [2645, 2588, 2615, 2636, 2570, 2598, 2549, 2574, 2504, 2546, 2601, 2567, 2571, 2588, 2523, 2524, 2502, 2538, 2570, 2521, 2533, 2497, 2488, 2553, 2498, 2596, 2493, 2503, 2500, 2574, 2504, 2554, 2506, 2548, 2526, 2547, 2586, 2501, 2556, 2569, 2526, 2500, 2528, 2510, 2516, 2556, 2539, 2546, 2578, 2510, 2537, 2482, 2542, 2519, 2519, 2571, 2502, 2507, 2526, 2408, 2567, 2549, 2555, 2570, 2502, 2506, 2478, 2483, 2592, 2538, 2594, 2539, 2541, 2559, 2548, 2583, 2540, 2488, 2566, 2553, 2586, 2536, 2593, 2548, 2557, 2561, 2537, 2583, 2574, 2579, 2589, 2587, 2523, 2554, 2574, 2574, 2590, 2552, 2549, 2597, 2562, 2610, 2596, 2573, 2559, 2549, 2557, 2554, 2585, 2523, 2581, 2580, 2567, 2551, 2556, 2540, 2552, 2575, 2566, 2598, 2549, 2582, 2612, 2616, 2574, 2598, 2602, 2585, 2590, 2588, 2593, 2618, 2650, 2594, 2641, 2622, 2594, 2615, 2606, 2605, 2597, 2623, 2614, 2612, 2641, 2600, 2641, 2606, 2645, 2633, 2636, 2633, 2609, 2582, 2589, 2606, 2582, 2612, 2576, 2624, 2564, 2614, 2582, 2632, 2616, 2598, 2593, 2606, 2571, 2597, 2599, 2581, 2625, 2610, 2590, 2587, 2591, 2605, 2606, 2620, 2529, 2591, 2584, 2548, 2583, 2548, 2542, 2622, 2601, 2616, 2608, 2588, 2629, 2604, 2590],
      "WindowCenter": [641.0, 639.0, 638.0, 638.0, 639.0, 639.0, 638.0, 637.0, 636.0, 637.0, 637.0, 638.0, 638.0, 637.0, 636.0, 635.0, 634.0, 635.0, 636.0, 635.0, 634.0, 634.0, 634.0, 635.0, 636.0, 637.0, 635.0, 635.0, 635.0, 637.0, 636.0, 636.0, 636.0, 637.0, 636.0, 638.0, 637.0, 636.0, 636.0, 636.0, 635.0, 634.0, 634.0, 634.0, 635.0, 635.0, 635.0, 635.0, 637.0, 636.0, 636.0, 635.0, 635.0, 635.0, 636.0, 637.0, 636.0, 635.0, 635.0, 633.0, 635.0, 637.0, 639.0, 639.0, 637.0, 636.0, 635.0, 635.0, 636.0, 636.0, 636.0, 635.0, 635.0, 635.0, 635.0, 636.0, 636.0, 633.0, 634.0, 636.0, 636.0, 636.0, 636.0, 635.0, 636.0, 636.0, 635.0, 636.0, 636.0, 636.0, 636.0, 636.0, 634.0, 635.0, 636.0, 636.0, 636.0, 634.0, 634.0, 635.0, 635.0, 636.0, 635.0, 635.0, 634.0, 633.0, 633.0, 634.0, 634.0, 633.0, 635.0, 636.0, 637.0, 637.0, 636.0, 636.0, 636.0, 636.0, 635.0, 634.0, 634.0, 634.0, 635.0, 636.0, 636.0, 637.0, 636.0, 635.0, 635.0, 635.0, 635.0, 635.0, 636.0, 636.0, 636.0, 635.0, 636.0, 635.0, 635.0, 635.0, 635.0, 635.0, 636.0, 636.0, 636.0, 635.0, 636.0, 636.0, 635.0, 635.0, 635.0, 636.0, 637.0, 636.0, 636.0, 636.0, 636.0, 635.0, 635.0, 634.0, 633.0, 635.0, 636.0, 636.0, 637.0, 636.0, 636.0, 635.0, 635.0, 636.0, 636.0, 636.0, 637.0, 636.0, 635.0, 635.0, 635.0, 635.0, 636.0, 637.0, 636.0, 638.0, 637.0, 636.0, 637.0, 637.0, 636.0, 638.0, 637.0, 636.0, 636.0, 636.0, 638.0, 638.0, 638.0],
      "WindowWidth": [1370.0, 1365.0, 1363.0, 1363.0, 1364.0, 1365.0, 1362.0, 1360.0, 1359.0, 1359.0, 1360.0, 1361.0, 1361.0, 1360.0, 1358.0, 1356.0, 1354.0, 1354.0, 1357.0, 1355.0, 1354.0, 1352.0, 1353.0, 1356.0, 1357.0, 1359.0, 1355.0, 1355.0, 1357.0, 1359.0, 1358.0, 1359.0, 1359.0, 1359.0, 1359.0, 1361.0, 1360.0, 1358.0, 1358.0, 1357.0, 1356.0, 1354.0, 1354.0, 1354.0, 1355.0, 1356.0, 1356.0, 1357.0, 1359.0, 1359.0, 1357.0, 1355.0, 1356.0, 1356.0, 1358.0, 1360.0, 1358.0, 1355.0, 1355.0, 1351.0, 1357.0, 1361.0, 1364.0, 1364.0, 1361.0, 1357.0, 1356.0, 1355.0, 1358.0, 1358.0, 1358.0, 1356.0, 1355.0, 1355.0, 1356.0, 1357.0, 1358.0, 1352.0, 1353.0, 1357.0, 1358.0, 1358.0, 1358.0, 1356.0, 1357.0, 1357.0, 1356.0, 1357.0, 1356.0, 1357.0, 1358.0, 1358.0, 1354.0, 1355.0, 1357.0, 1359.0, 1356.0, 1353.0, 1353.0, 1354.0, 1355.0, 1356.0, 1355.0, 1355.0, 1353.0, 1351.0, 1351.0, 1352.0, 1352.0, 1351.0, 1354.0, 1358.0, 1361.0, 1360.0, 1357.0, 1357.0, 1358.0, 1358.0, 1355.0, 1352.0, 1352.0, 1354.0, 1356.0, 1357.0, 1358.0, 1359.0, 1358.0, 1356.0, 1354.0, 1354.0, 1355.0, 1356.0, 1358.0, 1358.0, 1356.0, 1355.0, 1356.0, 1356.0, 1355.0, 1354.0, 1354.0, 1355.0, 1357.0, 1357.0, 1357.0, 1355.0, 1356.0, 1356.0, 1355.0, 1354.0, 1355.0, 1358.0, 1359.0, 1358.0, 1357.0, 1357.0, 1356.0, 1356.0, 1355.0, 1352.0, 1351.0, 1355.0, 1356.0, 1358.0, 1358.0, 1357.0, 1357.0, 1356.0, 1355.0, 1356.0, 1358.0, 1357.0, 1359.0, 1358.0, 1355.0, 1354.0, 1354.0, 1354.0, 1357.0, 1360.0, 1359.0, 1361.0, 1360.0, 1358.0, 1359.0, 1359.0, 1358.0, 1361.0, 1359.0, 1357.0, 1358.0, 1358.0, 1361.0, 1362.0, 1361.0]
    },
    "slices": {}
  }
}