{
  "AcquisitionMatrixPE": 88,
  "AcquisitionNumber": 1,
  "AcquisitionTime": "11:09:25.992500",
  "BandwidthPerPixelPhaseEncode": 19.592,
  "BaseResolution": 88,
  "BodyPartExamined": "BRAIN",
  "ConsistencyInfo": "N4_VE11C_LATEST_20160120",
  "ConversionSoftware": "dcm2niix",
  "ConversionSoftwareVersion": "v1.0.20190902",
  "DerivedVendorReportedEchoSpacing": 0.000580014,
  "DeviceSerialNumber": "67050",
  "DwellTime": 2.6e-06,
  "EchoTime": 0.033,
  "EchoTrainLength": 88,
  "EffectiveEchoSpacing": 0.000580014,
  "FlipAngle": 62,
  "ImageOrientationPatientDICOM": [0.99137, -0.0233719, -0.128997, 0.0263063, 0.999431, 0.0210909],
  "ImageType": [
    "ORIGINAL",
    "PRIMARY",
    "M",
    "ND",
    "MOSAIC"
],
  "ImagingFrequency": 123.251,
  "InPlanePhaseEncodingDirectionDICOM": "COL",
  "InstitutionAddress": "Olive_Street_60_Providence_RI_US_02912",
  "InstitutionName": "BROWN_UNIVERSITY_MRF",
  "InstitutionalDepartmentName": "Department",
  "MRAcquisitionType": "2D",
  "MagneticFieldStrength": 3,
  "Manufacturer": "Siemens",
  "ManufacturersModelName": "Prisma_fit",
  "Modality": "MR",
  "MultibandAccelerationFactor": 4,
  "PartialFourier": 1,
  "PatientPosition": "HFS",
  "PercentPhaseFOV": 100,
  "PhaseEncodingDirection": "j-",
  "PhaseEncodingSteps": 88,
  "PhaseResolution": 1,
  "PixelBandwidth": 2185,
  "ProcedureStepDescription": "ASHENHAV_1222",
  "ProtocolName": "func-bold_task-RDMcolor_run-02",
  "PulseSequenceDetails": "%SiemensSeq%_ep2d_bold",
  "ReceiveCoilActiveElements": "HC1-7",
  "ReceiveCoilName": "HeadNeck_64",
  "ReconMatrixPE": 88,
  "RefLinesPE": 8,
  "RepetitionTime": 1.2,
  "SAR": 0.0550241,
  "ScanOptions": "FS",
  "ScanningSequence": "EP",
  "SequenceName": "_epfid2d1_88",
  "SequenceVariant": "SK",
  "SeriesDescription": "func-bold_task-RDMcolor_run-02",
  "SeriesNumber": 10,
  "ShimSetting": [1723, -9117, 4435, 490, 22, -188, -99, -23],
  "SliceThickness": 2.4,
  "SliceTiming": [0.5525, 0, 0.63, 0.08, 0.71, 0.1575, 0.7875, 0.2375, 0.8675, 0.315, 0.945, 0.395, 1.025, 0.4725, 1.1025, 0.5525, 0, 0.63, 0.08, 0.71, 0.1575, 0.7875, 0.2375, 0.8675, 0.315, 0.945, 0.395, 1.025, 0.4725, 1.1025, 0.5525, 0, 0.63, 0.08, 0.71, 0.1575, 0.7875, 0.2375, 0.8675, 0.315, 0.945, 0.395, 1.025, 0.4725, 1.1025, 0.5525, 0, 0.63, 0.08, 0.71, 0.1575, 0.7875, 0.2375, 0.8675, 0.315, 0.945, 0.395, 1.025, 0.4725, 1.1025],
  "SoftwareVersions": "syngo_MR_E11",
  "SpacingBetweenSlices": 2.4,
  "StationName": "AWP67050",
  "TaskName": "RDMcolor",
  "TotalReadoutTime": 0.0504612,
  "TxRefAmp": 215.627,
  "dcmmeta_affine": [
    [-2.3770337104797363, 0.06307527422904968, -0.30823373794555664, 104.931396484375],
    [0.056039370596408844, 2.3963639736175537, 0.058325450867414474, -107.56715393066406],
    [-0.30929961800575256, -0.05057014152407646, 2.3794095516204834, -30.331119537353516],
    [0.0, 0.0, 0.0, 1.0]
],
  "dcmmeta_reorient_transform": [
    [0.0, -1.0, 0.0, 87.0],
    [1.0, 0.0, 0.0, 0.0],
    [0.0, 0.0, 1.0, 0.0],
    [0.0, 0.0, 0.0, 1.0]
],
  "dcmmeta_shape": [88, 88, 60, 392],
  "dcmmeta_slice_dim": 2,
  "dcmmeta_version": 0.6,
  "global": {
    "const": {
      "AcquisitionMatrix": [88, 0, 0, 88],
      "AngioFlag": "N",
      "BitsAllocated": 16,
      "BitsStored": 12,
      "BodyPartExamined": "BRAIN",
      "Columns": 704,
      "DeidentificationMethodCodeSequence": [
        {
          "CodeMeaning": "XNAT DicomEdit 6 Script",
          "CodeValue": "3",
          "CodingSchemeDesignator": "XNAT",
          "CodingSchemeVersion": "1.0"}
],
      "EchoNumbers": 1,
      "EchoTime": 33.0,
      "EchoTrainLength": 88,
      "FlipAngle": 62.0,
      "HighBit": 11,
      "ImageOrientationPatient": [0.99136952244991, -0.0233718706033, -0.1289969984997, 0.02630627578245, 0.99943141598228, 0.02109086537136],
      "ImagePositionPatient": [-861.97251580996, -821.73647669354, 44.957956964073],
      "ImageType": [
        "ORIGINAL",
        "PRIMARY",
        "M",
        "ND",
        "MOSAIC"
],
      "ImagedNucleus": "1H",
      "ImagingFrequency": 123.250663,
      "InPlanePhaseEncodingDirection": "COL",
      "MRAcquisitionType": "2D",
      "MagneticFieldStrength": 3.0,
      "Manufacturer": "SIEMENS",
      "ManufacturerModelName": "Prisma_fit",
      "Modality": "MR",
      "NumberOfAverages": 1.0,
      "NumberOfPhaseEncodingSteps": 88,
      "PercentPhaseFieldOfView": 100.0,
      "PercentSampling": 100.0,
      "PerformedProcedureStepStartTime": "104127.933000",
      "PhotometricInterpretation": "MONOCHROME2",
      "PixelBandwidth": 2185.0,
      "PixelRepresentation": 0,
      "PixelSpacing": [2.3977272510529, 2.3977272510529],
      "ProtocolName": "func-bold_task-RDMcolor_run-02",
      "RepetitionTime": 1200.0,
      "Rows": 704,
      "SAR": 0.05502411895771,
      "SamplesPerPixel": 1,
      "ScanOptions": "FS",
      "ScanningSequence": "EP",
      "SequenceName": "*epfid2d1_88",
      "SequenceVariant": "SK",
      "SeriesDescription": "func-bold_task-RDMcolor_run-02",
      "SeriesNumber": 10,
      "SeriesTime": "111002.995000",
      "SliceLocation": -46.161439644074,
      "SliceThickness": 2.4000000953674,
      "SmallestImagePixelValue": 0,
      "SoftwareVersions": "syngo MR E11",
      "SpacingBetweenSlices": 2.3999999826302,
      "SpecificCharacterSet": "ISO_IR 100",
      "StudyID": "1",
      "StudyTime": "104127.873000",
      "TransmitCoilName": "Body",
      "VariableFlipAngleFlag": "N",
      "WindowCenterWidthExplanation": "Algo1",
      "dBdt": 0.0},
    "slices": {}
  },
  "time": {
    "samples": {
      "AcquisitionNumber": [1, 2, 3, 4, 5, 6, 7, 8, 9, 10, 11, 12, 13, 14, 15, 16, 17, 18, 19, 20, 21, 22, 23, 24, 25, 26, 27, 28, 29, 30, 31, 32, 33, 34, 35, 36, 37, 38, 39, 40, 41, 42, 43, 44, 45, 46, 47, 48, 49, 50, 51, 52, 53, 54, 55, 56, 57, 58, 59, 60, 61, 62, 63, 64, 65, 66, 67, 68, 69, 70, 71, 72, 73, 74, 75, 76, 77, 78, 79, 80, 81, 82, 83, 84, 85, 86, 87, 88, 89, 90, 91, 92, 93, 94, 95, 96, 97, 98, 99, 100, 101, 102, 103, 104, 105, 106, 107, 108, 109, 110, 111, 112, 113, 114, 115, 116, 117, 118, 119, 120, 121, 122, 123, 124, 125, 126, 127, 128, 129, 130, 131, 132, 133, 134, 135, 136, 137, 138, 139, 140, 141, 142, 143, 144, 145, 146, 147, 148, 149, 150, 151, 152, 153, 154, 155, 156, 157, 158, 159, 160, 161, 162, 163, 164, 165, 166, 167, 168, 169, 170, 171, 172, 173, 174, 175, 176, 177, 178, 179, 180, 181, 182, 183, 184, 185, 186, 187, 188, 189, 190, 191, 192, 193, 194, 195, 196, 197, 198, 199, 200, 201, 202, 203, 204, 205, 206, 207, 208, 209, 210, 211, 212, 213, 214, 215, 216, 217, 218, 219, 220, 221, 222, 223, 224, 225, 226, 227, 228, 229, 230, 231, 232, 233, 234, 235, 236, 237, 238, 239, 240, 241, 242, 243, 244, 245, 246, 247, 248, 249, 250, 251, 252, 253, 254, 255, 256, 257, 258, 259, 260, 261, 262, 263, 264, 265, 266, 267, 268, 269, 270, 271, 272, 273, 274, 275, 276, 277, 278, 279, 280, 281, 282, 283, 284, 285, 286, 287, 288, 289, 290, 291, 292, 293, 294, 295, 296, 297, 298, 299, 300, 301, 302, 303, 304, 305, 306, 307, 308, 309, 310, 311, 312, 313, 314, 315, 316, 317, 318, 319, 320, 321, 322, 323, 324, 325, 326, 327, 328, 329, 330, 331, 332, 333, 334, 335, 336, 337, 338, 339, 340, 341, 342, 343, 344, 345, 346, 347, 348, 349, 350, 351, 352, 353, 354, 355, 356, 357, 358, 359, 360, 361, 362, 363, 364, 365, 366, 367, 368, 369, 370, 371, 372, 373, 374, 375, 376, 377, 378, 379, 380, 381, 382, 383, 384, 385, 386, 387, 388, 389, 390, 391, 392],
      "AcquisitionTime": ["110925.992500", "110927.192500", "110928.392500", "110929.592500", "110930.792500", "110931.992500", "110933.192500", "110934.392500", "110935.592500", "110936.792500", "110937.992500", "110939.192500", "110940.392500", "110941.592500", "110942.792500", "110943.992500", "110945.192500", "110946.392500", "110947.592500", "110948.792500", "110949.992500", "110951.192500", "110952.392500", "110953.592500", "110954.792500", "110955.992500", "110957.192500", "110958.392500", "110959.592500", "111000.792500", "111001.992500", "111003.192500", "111004.392500", "111005.592500", "111006.792500", "111007.992500", "111009.192500", "111010.392500", "111011.592500", "111012.792500", "111013.992500", "111015.192500", "111016.392500", "111017.592500", "111018.792500", "111019.992500", "111021.192500", "111022.392500", "111023.592500", "111024.792500", "111025.992500", "111027.192500", "111028.392500", "111029.592500", "111030.792500", "111031.992500", "111033.192500", "111034.392500", "111035.592500", "111036.792500", "111037.992500", "111039.192500", "111040.392500", "111041.592500", "111042.792500", "111043.992500", "111045.192500", "111046.392500", "111047.592500", "111048.792500", "111049.992500", "111051.192500", "111052.392500", "111053.592500", "111054.792500", "111055.992500", "111057.192500", "111058.392500", "111059.592500", "111100.792500", "111101.992500", "111103.192500", "111104.392500", "111105.592500", "111106.792500", "111107.992500", "111109.192500", "111110.392500", "111111.592500", "111112.792500", "111113.992500", "111115.192500", "111116.392500", "111117.592500", "111118.792500", "111119.992500", "111121.192500", "111122.392500", "111123.592500", "111124.792500", "111125.992500", "111127.192500", "111128.392500", "111129.592500", "111130.792500", "111131.992500", "111133.192500", "111134.392500", "111135.592500", "111136.792500", "111137.992500", "111139.192500", "111140.392500", "111141.592500", "111142.792500", "111143.992500", "111145.192500", "111146.392500", "111147.592500", "111148.792500", "111149.992500", "111151.192500", "111152.392500", "111153.592500", "111154.792500", "111155.992500", "111157.192500", "111158.392500", "111159.592500", "111200.792500", "111201.992500", "111203.192500", "111204.392500", "111205.592500", "111206.792500", "111207.992500", "111209.192500", "111210.392500", "111211.592500", "111212.792500", "111213.992500", "111215.192500", "111216.392500", "111217.592500", "111218.792500", "111219.992500", "111221.192500", "111222.392500", "111223.592500", "111224.792500", "111225.992500", "111227.192500", "111228.392500", "111229.592500", "111230.792500", "111231.992500", "111233.192500", "111234.392500", "111235.592500", "111236.792500", "111237.992500", "111239.192500", "111240.392500", "111241.592500", "111242.792500", "111243.992500", "111245.192500", "111246.392500", "111247.592500", "111248.792500", "111249.992500", "111251.192500", "111252.392500", "111253.592500", "111254.792500", "111255.992500", "111257.192500", "111258.392500", "111259.592500", "111300.792500", "111301.992500", "111303.192500", "111304.392500", "111305.592500", "111306.792500", "111307.992500", "111309.192500", "111310.392500", "111311.592500", "111312.792500", "111313.992500", "111315.192500", "111316.392500", "111317.592500", "111318.792500", "111319.992500", "111321.192500", "111322.392500", "111323.592500", "111324.792500", "111325.992500", "111327.192500", "111328.392500", "111329.592500", "111330.792500", "111331.992500", "111333.192500", "111334.392500", "111335.592500", "111336.792500", "111337.992500", "111339.192500", "111340.392500", "111341.592500", "111342.792500", "111343.992500", "111345.192500", "111346.392500", "111347.592500", "111348.792500", "111349.992500", "111351.192500", "111352.392500", "111353.592500", "111354.792500", "111355.992500", "111357.192500", "111358.392500", "111359.592500", "111400.792500", "111401.992500", "111403.192500", "111404.392500", "111405.592500", "111406.792500", "111407.992500", "111409.192500", "111410.392500", "111411.592500", "111412.792500", "111413.992500", "111415.192500", "111416.392500", "111417.592500", "111418.792500", "111419.992500", "111421.192500", "111422.392500", "111423.592500", "111424.792500", "111425.992500", "111427.192500", "111428.392500", "111429.592500", "111430.792500", "111431.992500", "111433.192500", "111434.392500", "111435.592500", "111436.792500", "111437.992500", "111439.192500", "111440.392500", "111441.592500", "111442.792500", "111443.992500", "111445.192500", "111446.392500", "111447.592500", "111448.792500", "111449.992500", "111451.192500", "111452.392500", "111453.592500", "111454.792500", "111455.992500", "111457.192500", "111458.392500", "111459.592500", "111500.792500", "111501.992500", "111503.192500", "111504.392500", "111505.592500", "111506.792500", "111507.992500", "111509.192500", "111510.392500", "111511.592500", "111512.792500", "111513.992500", "111515.192500", "111516.392500", "111517.592500", "111518.792500", "111519.992500", "111521.192500", "111522.392500", "111523.592500", "111524.792500", "111525.992500", "111527.192500", "111528.392500", "111529.592500", "111530.792500", "111531.992500", "111533.192500", "111534.392500", "111535.592500", "111536.792500", "111537.992500", "111539.192500", "111540.392500", "111541.592500", "111542.792500", "111543.992500", "111545.192500", "111546.392500", "111547.592500", "111548.792500", "111549.992500", "111551.192500", "111552.392500", "111553.592500", "111554.792500", "111555.992500", "111557.192500", "111558.392500", "111559.592500", "111600.792500", "111601.992500", "111603.192500", "111604.392500", "111605.592500", "111606.792500", "111607.992500", "111609.192500", "111610.392500", "111611.592500", "111612.792500", "111613.992500", "111615.192500", "111616.392500", "111617.592500", "111618.792500", "111619.992500", "111621.192500", "111622.392500", "111623.592500", "111624.792500", "111625.992500", "111627.192500", "111628.392500", "111629.592500", "111630.792500", "111631.992500", "111633.192500", "111634.392500", "111635.592500", "111636.792500", "111637.992500", "111639.192500", "111640.392500", "111641.592500", "111642.792500", "111643.992500", "111645.192500", "111646.392500", "111647.592500", "111648.792500", "111649.992500", "111651.192500", "111652.392500", "111653.592500", "111654.792500", "111655.992500", "111657.192500", "111658.392500", "111659.592500", "111700.792500", "111701.992500", "111703.192500", "111704.392500", "111705.592500", "111706.792500", "111707.992500", "111709.192500", "111710.392500", "111711.592500", "111712.792500", "111713.992500", "111715.192500"],
      "ContentTime": ["111003.000000", "111003.003000", "111003.006000", "111003.009000", "111003.011000", "111003.014000", "111003.017000", "111003.019000", "111003.022000", "111003.024000", "111003.033000", "111003.036000", "111003.038000", "111003.057000", "111003.066000", "111003.068000", "111003.071000", "111003.073000", "111003.076000", "111003.079000", "111003.081000", "111003.084000", "111003.087000", "111003.089000", "111003.092000", "111003.095000", "111003.097000", "111003.100000", "111003.103000", "111003.105000", "111042.995000", "111042.998000", "111043.001000", "111043.004000", "111043.006000", "111043.009000", "111043.011000", "111043.014000", "111043.017000", "111043.030000", "111043.032000", "111043.035000", "111043.037000", "111043.040000", "111043.043000", "111043.045000", "111043.048000", "111043.051000", "111043.053000", "111043.056000", "111043.058000", "111043.061000", "111043.064000", "111043.066000", "111043.069000", "111043.072000", "111043.074000", "111043.077000", "111043.079000", "111043.082000", "111043.084000", "111043.087000", "111043.090000", "111122.994000", "111122.997000", "111123.000000", "111123.003000", "111123.005000", "111123.008000", "111123.010000", "111123.013000", "111123.016000", "111123.018000", "111123.021000", "111123.023000", "111123.026000", "111123.028000", "111123.031000", "111123.034000", "111123.036000", "111123.039000", "111123.041000", "111123.044000", "111123.047000", "111123.049000", "111123.052000", "111123.054000", "111123.057000", "111123.059000", "111123.062000", "111123.065000", "111123.067000", "111123.070000", "111123.072000", "111123.078000", "111123.081000", "111123.083000", "111202.994000", "111202.997000", "111203.000000", "111203.002000", "111203.005000", "111203.008000", "111203.010000", "111203.013000", "111203.015000", "111203.018000", "111203.021000", "111203.023000", "111203.026000", "111203.029000", "111203.031000", "111203.034000", "111203.036000", "111203.039000", "111203.042000", "111203.044000", "111203.047000", "111203.049000", "111203.052000", "111203.054000", "111203.057000", "111203.060000", "111203.062000", "111203.065000", "111203.068000", "111203.070000", "111203.073000", "111203.075000", "111203.078000", "111242.995000", "111242.998000", "111243.001000", "111243.004000", "111243.006000", "111243.009000", "111243.012000", "111243.014000", "111243.017000", "111243.020000", "111243.022000", "111243.025000", "111243.027000", "111243.030000", "111243.033000", "111243.035000", "111243.038000", "111243.040000", "111243.043000", "111243.046000", "111243.048000", "111243.051000", "111243.054000", "111243.056000", "111243.059000", "111243.061000", "111243.064000", "111243.067000", "111243.069000", "111243.072000", "111243.074000", "111243.077000", "111243.079000", "111322.995000", "111322.997000", "111323.001000", "111323.003000", "111323.006000", "111323.009000", "111323.012000", "111323.014000", "111323.017000", "111323.020000", "111323.022000", "111323.025000", "111323.027000", "111323.030000", "111323.033000", "111323.035000", "111323.038000", "111323.040000", "111323.043000", "111323.045000", "111323.048000", "111323.051000", "111323.053000", "111323.056000", "111323.059000", "111323.061000", "111323.064000", "111323.066000", "111323.069000", "111323.071000", "111323.074000", "111323.086000", "111323.088000", "111323.091000", "111402.994000", "111402.996000", "111403.000000", "111403.002000", "111403.005000", "111403.008000", "111403.010000", "111403.013000", "111403.016000", "111403.018000", "111403.021000", "111403.023000", "111403.037000", "111403.040000", "111403.042000", "111403.045000", "111403.048000", "111403.050000", "111403.053000", "111403.055000", "111403.058000", "111403.061000", "111403.063000", "111403.066000", "111403.069000", "111403.071000", "111403.074000", "111403.076000", "111403.079000", "111403.082000", "111403.084000", "111403.087000", "111403.090000", "111442.994000", "111442.997000", "111443.008000", "111443.010000", "111443.013000", "111443.016000", "111443.018000", "111443.021000", "111443.024000", "111443.026000", "111443.029000", "111443.031000", "111443.034000", "111443.037000", "111443.039000", "111443.042000", "111443.044000", "111443.047000", "111443.050000", "111443.052000", "111443.055000", "111443.057000", "111443.060000", "111443.062000", "111443.065000", "111443.068000", "111443.070000", "111443.073000", "111443.075000", "111443.078000", "111443.081000", "111443.083000", "111443.086000", "111522.995000", "111522.997000", "111523.001000", "111523.004000", "111523.006000", "111523.009000", "111523.011000", "111523.014000", "111523.017000", "111523.019000", "111523.022000", "111523.024000", "111523.027000", "111523.030000", "111523.032000", "111523.035000", "111523.038000", "111523.040000", "111523.043000", "111523.045000", "111523.048000", "111523.051000", "111523.053000", "111523.056000", "111523.058000", "111523.061000", "111523.064000", "111523.066000", "111523.069000", "111523.071000", "111523.074000", "111523.077000", "111523.079000", "111523.082000", "111602.995000", "111602.997000", "111603.001000", "111603.003000", "111603.006000", "111603.009000", "111603.012000", "111603.014000", "111603.017000", "111603.020000", "111603.022000", "111603.025000", "111603.027000", "111603.030000", "111603.032000", "111603.035000", "111603.038000", "111603.040000", "111603.043000", "111603.045000", "111603.048000", "111603.051000", "111603.053000", "111603.056000", "111603.059000", "111603.061000", "111603.064000", "111603.066000", "111603.069000", "111603.072000", "111603.074000", "111603.077000", "111603.079000", "111642.994000", "111642.997000", "111643.000000", "111643.003000", "111643.005000", "111643.008000", "111643.011000", "111643.013000", "111643.016000", "111643.018000", "111643.021000", "111643.024000", "111643.026000", "111643.029000", "111643.031000", "111643.034000", "111643.037000", "111643.039000", "111643.042000", "111643.044000", "111643.047000", "111643.050000", "111643.052000", "111643.055000", "111643.058000", "111643.060000", "111643.063000", "111643.065000", "111643.068000", "111643.071000", "111643.073000", "111643.076000", "111643.078000", "111716.884000", "111716.887000", "111716.890000", "111716.893000", "111716.895000", "111716.898000", "111716.901000", "111716.903000", "111716.906000", "111716.908000", "111716.911000", "111716.914000", "111716.917000", "111716.919000", "111716.926000", "111716.929000", "111716.932000", "111716.935000", "111716.938000", "111716.941000", "111716.945000", "111716.948000", "111716.952000", "111716.956000", "111716.978000", "111716.981000", "111716.984000", "111716.987000", "111717.006000"],
      "InstanceCreationTime": ["111003.000000", "111003.003000", "111003.006000", "111003.009000", "111003.011000", "111003.014000", "111003.017000", "111003.019000", "111003.022000", "111003.024000", "111003.033000", "111003.036000", "111003.038000", "111003.057000", "111003.066000", "111003.068000", "111003.071000", "111003.073000", "111003.076000", "111003.079000", "111003.081000", "111003.084000", "111003.087000", "111003.089000", "111003.092000", "111003.095000", "111003.097000", "111003.100000", "111003.103000", "111003.105000", "111042.995000", "111042.998000", "111043.001000", "111043.004000", "111043.006000", "111043.009000", "111043.011000", "111043.014000", "111043.017000", "111043.030000", "111043.032000", "111043.035000", "111043.037000", "111043.040000", "111043.043000", "111043.045000", "111043.048000", "111043.051000", "111043.053000", "111043.056000", "111043.058000", "111043.061000", "111043.064000", "111043.066000", "111043.069000", "111043.072000", "111043.074000", "111043.077000", "111043.079000", "111043.082000", "111043.084000", "111043.087000", "111043.090000", "111122.994000", "111122.997000", "111123.000000", "111123.003000", "111123.005000", "111123.008000", "111123.010000", "111123.013000", "111123.016000", "111123.018000", "111123.021000", "111123.023000", "111123.026000", "111123.028000", "111123.031000", "111123.034000", "111123.036000", "111123.039000", "111123.041000", "111123.044000", "111123.047000", "111123.049000", "111123.052000", "111123.054000", "111123.057000", "111123.059000", "111123.062000", "111123.065000", "111123.067000", "111123.070000", "111123.072000", "111123.078000", "111123.081000", "111123.083000", "111202.994000", "111202.997000", "111203.000000", "111203.002000", "111203.005000", "111203.008000", "111203.010000", "111203.013000", "111203.015000", "111203.018000", "111203.021000", "111203.023000", "111203.026000", "111203.029000", "111203.031000", "111203.034000", "111203.036000", "111203.039000", "111203.042000", "111203.044000", "111203.047000", "111203.049000", "111203.052000", "111203.054000", "111203.057000", "111203.060000", "111203.062000", "111203.065000", "111203.068000", "111203.070000", "111203.073000", "111203.075000", "111203.078000", "111242.995000", "111242.998000", "111243.001000", "111243.004000", "111243.006000", "111243.009000", "111243.012000", "111243.014000", "111243.017000", "111243.020000", "111243.022000", "111243.025000", "111243.027000", "111243.030000", "111243.033000", "111243.035000", "111243.038000", "111243.040000", "111243.043000", "111243.046000", "111243.048000", "111243.051000", "111243.054000", "111243.056000", "111243.059000", "111243.061000", "111243.064000", "111243.067000", "111243.069000", "111243.072000", "111243.074000", "111243.077000", "111243.079000", "111322.995000", "111322.997000", "111323.001000", "111323.003000", "111323.006000", "111323.009000", "111323.012000", "111323.014000", "111323.017000", "111323.020000", "111323.022000", "111323.025000", "111323.027000", "111323.030000", "111323.033000", "111323.035000", "111323.038000", "111323.040000", "111323.043000", "111323.045000", "111323.048000", "111323.051000", "111323.053000", "111323.056000", "111323.059000", "111323.061000", "111323.064000", "111323.066000", "111323.069000", "111323.071000", "111323.074000", "111323.086000", "111323.088000", "111323.091000", "111402.994000", "111402.996000", "111403.000000", "111403.002000", "111403.005000", "111403.008000", "111403.010000", "111403.013000", "111403.016000", "111403.018000", "111403.021000", "111403.023000", "111403.037000", "111403.040000", "111403.042000", "111403.045000", "111403.048000", "111403.050000", "111403.053000", "111403.055000", "111403.058000", "111403.061000", "111403.063000", "111403.066000", "111403.069000", "111403.071000", "111403.074000", "111403.076000", "111403.079000", "111403.082000", "111403.084000", "111403.087000", "111403.090000", "111442.994000", "111442.997000", "111443.008000", "111443.010000", "111443.013000", "111443.016000", "111443.018000", "111443.021000", "111443.024000", "111443.026000", "111443.029000", "111443.031000", "111443.034000", "111443.037000", "111443.039000", "111443.042000", "111443.044000", "111443.047000", "111443.050000", "111443.052000", "111443.055000", "111443.057000", "111443.060000", "111443.062000", "111443.065000", "111443.068000", "111443.070000", "111443.073000", "111443.075000", "111443.078000", "111443.081000", "111443.083000", "111443.086000", "111522.995000", "111522.997000", "111523.001000", "111523.004000", "111523.006000", "111523.009000", "111523.011000", "111523.014000", "111523.017000", "111523.019000", "111523.022000", "111523.024000", "111523.027000", "111523.030000", "111523.032000", "111523.035000", "111523.038000", "111523.040000", "111523.043000", "111523.045000", "111523.048000", "111523.051000", "111523.053000", "111523.056000", "111523.058000", "111523.061000", "111523.064000", "111523.066000", "111523.069000", "111523.071000", "111523.074000", "111523.077000", "111523.079000", "111523.082000", "111602.995000", "111602.997000", "111603.001000", "111603.003000", "111603.006000", "111603.009000", "111603.012000", "111603.014000", "111603.017000", "111603.020000", "111603.022000", "111603.025000", "111603.027000", "111603.030000", "111603.032000", "111603.035000", "111603.038000", "111603.040000", "111603.043000", "111603.045000", "111603.048000", "111603.051000", "111603.053000", "111603.056000", "111603.059000", "111603.061000", "111603.064000", "111603.066000", "111603.069000", "111603.072000", "111603.074000", "111603.077000", "111603.079000", "111642.994000", "111642.997000", "111643.000000", "111643.003000", "111643.005000", "111643.008000", "111643.011000", "111643.013000", "111643.016000", "111643.018000", "111643.021000", "111643.024000", "111643.026000", "111643.029000", "111643.031000", "111643.034000", "111643.037000", "111643.039000", "111643.042000", "111643.044000", "111643.047000", "111643.050000", "111643.052000", "111643.055000", "111643.058000", "111643.060000", "111643.063000", "111643.065000", "111643.068000", "111643.071000", "111643.073000", "111643.076000", "111643.078000", "111716.884000", "111716.887000", "111716.890000", "111716.893000", "111716.895000", "111716.898000", "111716.901000", "111716.903000", "111716.906000", "111716.908000", "111716.911000", "111716.914000", "111716.917000", "111716.919000", "111716.926000", "111716.929000", "111716.932000", "111716.935000", "111716.938000", "111716.941000", "111716.945000", "111716.948000", "111716.952000", "111716.956000", "111716.978000", "111716.981000", "111716.984000", "111716.987000", "111717.006000"],
      "InstanceNumber": [1, 2, 3, 4, 5, 6, 7, 8, 9, 10, 11, 12, 13, 14, 15, 16, 17, 18, 19, 20, 21, 22, 23, 24, 25, 26, 27, 28, 29, 30, 31, 32, 33, 34, 35, 36, 37, 38, 39, 40, 41, 42, 43, 44, 45, 46, 47, 48, 49, 50, 51, 52, 53, 54, 55, 56, 57, 58, 59, 60, 61, 62, 63, 64, 65, 66, 67, 68, 69, 70, 71, 72, 73, 74, 75, 76, 77, 78, 79, 80, 81, 82, 83, 84, 85, 86, 87, 88, 89, 90, 91, 92, 93, 94, 95, 96, 97, 98, 99, 100, 101, 102, 103, 104, 105, 106, 107, 108, 109, 110, 111, 112, 113, 114, 115, 116, 117, 118, 119, 120, 121, 122, 123, 124, 125, 126, 127, 128, 129, 130, 131, 132, 133, 134, 135, 136, 137, 138, 139, 140, 141, 142, 143, 144, 145, 146, 147, 148, 149, 150, 151, 152, 153, 154, 155, 156, 157, 158, 159, 160, 161, 162, 163, 164, 165, 166, 167, 168, 169, 170, 171, 172, 173, 174, 175, 176, 177, 178, 179, 180, 181, 182, 183, 184, 185, 186, 187, 188, 189, 190, 191, 192, 193, 194, 195, 196, 197, 198, 199, 200, 201, 202, 203, 204, 205, 206, 207, 208, 209, 210, 211, 212, 213, 214, 215, 216, 217, 218, 219, 220, 221, 222, 223, 224, 225, 226, 227, 228, 229, 230, 231, 232, 233, 234, 235, 236, 237, 238, 239, 240, 241, 242, 243, 244, 245, 246, 247, 248, 249, 250, 251, 252, 253, 254, 255, 256, 257, 258, 259, 260, 261, 262, 263, 264, 265, 266, 267, 268, 269, 270, 271, 272, 273, 274, 275, 276, 277, 278, 279, 280, 281, 282, 283, 284, 285, 286, 287, 288, 289, 290, 291, 292, 293, 294, 295, 296, 297, 298, 299, 300, 301, 302, 303, 304, 305, 306, 307, 308, 309, 310, 311, 312, 313, 314, 315, 316, 317, 318, 319, 320, 321, 322, 323, 324, 325, 326, 327, 328, 329, 330, 331, 332, 333, 334, 335, 336, 337, 338, 339, 340, 341, 342, 343, 344, 345, 346, 347, 348, 349, 350, 351, 352, 353, 354, 355, 356, 357, 358, 359, 360, 361, 362, 363, 364, 365, 366, 367, 368, 369, 370, 371, 372, 373, 374, 375, 376, 377, 378, 379, 380, 381, 382, 383, 384, 385, 386, 387, 388, 389, 390, 391, 392],
