{
  "AcquisitionMatrixPE": 88,
  "AcquisitionNumber": 1,
  "AcquisitionTime": "11:41:27.855000",
  "BandwidthPerPixelPhaseEncode": 19.592,
  "BaseResolution": 88,
  "BodyPartExamined": "BRAIN",
  "ConsistencyInfo": "N4_VE11C_LATEST_20160120",
  "ConversionSoftware": "dcm2niix",
  "ConversionSoftwareVersion": "v1.0.20190902",
  "DerivedVendorReportedEchoSpacing": 0.000580014,
  "DeviceSerialNumber": "67050",
  "DwellTime": 2.6e-06,
  "EchoTime": 0.033,
  "EchoTrainLength": 88,
  "EffectiveEchoSpacing": 0.000580014,
  "FlipAngle": 62,
  "ImageOrientationPatientDICOM": [0.99137, -0.0233719, -0.128997, 0.0263063, 0.999431, 0.0210909],
  "ImageType": [
    "ORIGINAL",
    "PRIMARY",
    "M",
    "ND",
    "MOSAIC"
],
  "ImagingFrequency": 123.251,
  "InPlanePhaseEncodingDirectionDICOM": "COL",
  "InstitutionAddress": "Olive_Street_60_Providence_RI_US_02912",
  "InstitutionName": "BROWN_UNIVERSITY_MRF",
  "InstitutionalDepartmentName": "Department",
  "MRAcquisitionType": "2D",
  "MagneticFieldStrength": 3,
  "Manufacturer": "Siemens",
  "ManufacturersModelName": "Prisma_fit",
  "Modality": "MR",
  "MultibandAccelerationFactor": 4,
  "PartialFourier": 1,
  "PatientPosition": "HFS",
  "PercentPhaseFOV": 100,
  "PhaseEncodingDirection": "j-",
  "PhaseEncodingSteps": 88,
  "PhaseResolution": 1,
  "PixelBandwidth": 2185,
  "ProcedureStepDescription": "ASHENHAV_1222",
  "ProtocolName": "func-bold_task-RDMmotion_run-05",
  "PulseSequenceDetails": "%SiemensSeq%_ep2d_bold",
  "ReceiveCoilActiveElements": "HC1-7",
  "ReceiveCoilName": "HeadNeck_64",
  "ReconMatrixPE": 88,
  "RefLinesPE": 8,
  "RepetitionTime": 1.2,
  "SAR": 0.0544656,
  "ScanOptions": "FS",
  "ScanningSequence": "EP",
  "SequenceName": "_epfid2d1_88",
  "SequenceVariant": "SK",
  "SeriesDescription": "func-bold_task-RDMmotion_run-05",
  "SeriesNumber": 15,
  "ShimSetting": [1723, -9117, 4435, 490, 22, -188, -99, -23],
  "SliceThickness": 2.4,
  "SliceTiming": [0.55, 0, 0.63, 0.08, 0.7075, 0.1575, 0.7875, 0.2375, 0.865, 0.315, 0.945, 0.395, 1.0225, 0.4725, 1.1025, 0.55, 0, 0.63, 0.08, 0.7075, 0.1575, 0.7875, 0.2375, 0.865, 0.315, 0.945, 0.395, 1.0225, 0.4725, 1.1025, 0.55, 0, 0.63, 0.08, 0.7075, 0.1575, 0.7875, 0.2375, 0.865, 0.315, 0.945, 0.395, 1.0225, 0.4725, 1.1025, 0.55, 0, 0.63, 0.08, 0.7075, 0.1575, 0.7875, 0.2375, 0.865, 0.315, 0.945, 0.395, 1.0225, 0.4725, 1.1025],
  "SoftwareVersions": "syngo_MR_E11",
  "SpacingBetweenSlices": 2.4,
  "StationName": "AWP67050",
  "TaskName": "RDMmotion",
  "TotalReadoutTime": 0.0504612,
  "TxRefAmp": 215.627,
  "dcmmeta_affine": [
    [-2.3770337104797363, 0.06307527422904968, -0.30823373794555664, 104.931396484375],
    [0.056039370596408844, 2.3963639736175537, 0.058325450867414474, -107.56715393066406],
    [-0.30929961800575256, -0.05057014152407646, 2.3794095516204834, -30.331119537353516],
    [0.0, 0.0, 0.0, 1.0]
],
  "dcmmeta_reorient_transform": [
    [0.0, -1.0, 0.0, 87.0],
    [1.0, 0.0, 0.0, 0.0],
    [0.0, 0.0, 1.0, 0.0],
    [0.0, 0.0, 0.0, 1.0]
],
  "dcmmeta_shape": [88, 88, 60, 125],
  "dcmmeta_slice_dim": 2,
  "dcmmeta_version": 0.6,
  "global": {
    "const": {
      "AcquisitionMatrix": [88, 0, 0, 88],
      "AngioFlag": "N",
      "BitsAllocated": 16,
      "BitsStored": 12,
      "BodyPartExamined": "BRAIN",
      "Columns": 704,
      "DeidentificationMethodCodeSequence": [
        {
          "CodeMeaning": "XNAT DicomEdit 6 Script",
          "CodeValue": "3",
          "CodingSchemeDesignator": "XNAT",
          "CodingSchemeVersion": "1.0"}
],
      "EchoNumbers": 1,
      "EchoTime": 33.0,
      "EchoTrainLength": 88,
      "FlipAngle": 62.0,
      "HighBit": 11,
      "ImageOrientationPatient": [0.99136952244991, -0.0233718706033, -0.1289969984997, 0.02630627578245, 0.99943141598228, 0.02109086537136],
      "ImagePositionPatient": [-861.97251580996, -821.73647669354, 44.957956964073],
      "ImageType": [
        "ORIGINAL",
        "PRIMARY",
        "M",
        "ND",
        "MOSAIC"
],
      "ImagedNucleus": "1H",
      "ImagingFrequency": 123.25067,
      "InPlanePhaseEncodingDirection": "COL",
      "MRAcquisitionType": "2D",
      "MagneticFieldStrength": 3.0,
      "Manufacturer": "SIEMENS",
      "ManufacturerModelName": "Prisma_fit",
      "Modality": "MR",
      "NumberOfAverages": 1.0,
      "NumberOfPhaseEncodingSteps": 88,
      "PercentPhaseFieldOfView": 100.0,
      "PercentSampling": 100.0,
      "PerformedProcedureStepStartTime": "104127.933000",
      "PhotometricInterpretation": "MONOCHROME2",
      "PixelBandwidth": 2185.0,
      "PixelRepresentation": 0,
      "PixelSpacing": [2.3977272510529, 2.3977272510529],
      "ProtocolName": "func-bold_task-RDMmotion_run-05",
      "RepetitionTime": 1200.0,
      "Rows": 704,
      "SAR": 0.05446560077108,
      "SamplesPerPixel": 1,
      "ScanOptions": "FS",
      "ScanningSequence": "EP",
      "SequenceName": "*epfid2d1_88",
      "SequenceVariant": "SK",
      "SeriesDescription": "func-bold_task-RDMmotion_run-05",
      "SeriesNumber": 15,
      "SeriesTime": "114151.917000",
      "SliceLocation": -46.161439644074,
      "SliceThickness": 2.4000000953674,
      "SmallestImagePixelValue": 0,
      "SoftwareVersions": "syngo MR E11",
      "SpacingBetweenSlices": 2.3999999826302,
      "SpecificCharacterSet": "ISO_IR 100",
      "StudyID": "1",
      "StudyTime": "104127.873000",
      "TransmitCoilName": "Body",
      "VariableFlipAngleFlag": "N",
      "WindowCenterWidthExplanation": "Algo1",
      "dBdt": 0.0},
    "slices": {}
  },
  "time": {
    "samples": {
      "AcquisitionNumber": [1, 2, 3, 4, 5, 6, 7, 8, 9, 10, 11, 12, 13, 14, 15, 16, 17, 18, 19, 20, 21, 22, 23, 24, 25, 26, 27, 28, 29, 30, 31, 32, 33, 34, 35, 36, 37, 38, 39, 40, 41, 42, 43, 44, 45, 46, 47, 48, 49, 50, 51, 52, 53, 54, 55, 56, 57, 58, 59, 60, 61, 62, 63, 64, 65, 66, 67, 68, 69, 70, 71, 72, 73, 74, 75, 76, 77, 78, 79, 80, 81, 82, 83, 84, 85, 86, 87, 88, 89, 90, 91, 92, 93, 94, 95, 96, 97, 98, 99, 100, 101, 102, 103, 104, 105, 106, 107, 108, 109, 110, 111, 112, 113, 114, 115, 116, 117, 118, 119, 120, 121, 122, 123, 124, 125],
      "AcquisitionTime": ["114127.855000", "114129.055000", "114130.255000", "114131.455000", "114132.655000", "114133.855000", "114135.055000", "114136.255000", "114137.455000", "114138.655000", "114139.855000", "114141.055000", "114142.255000", "114143.455000", "114144.655000", "114145.855000", "114147.055000", "114148.255000", "114149.455000", "114150.655000", "114151.855000", "114153.055000", "114154.255000", "114155.455000", "114156.655000", "114157.855000", "114159.055000", "114200.255000", "114201.455000", "114202.655000", "114203.855000", "114205.055000", "114206.255000", "114207.455000", "114208.655000", "114209.855000", "114211.055000", "114212.255000", "114213.455000", "114214.655000", "114215.855000", "114217.055000", "114218.255000", "114219.455000", "114220.655000", "114221.855000", "114223.055000", "114224.255000", "114225.455000", "114226.655000", "114227.855000", "114229.055000", "114230.255000", "114231.455000", "114232.655000", "114233.855000", "114235.055000", "114236.255000", "114237.455000", "114238.655000", "114239.855000", "114241.055000", "114242.255000", "114243.455000", "114244.655000", "114245.855000", "114247.055000", "114248.255000", "114249.455000", "114250.655000", "114251.855000", "114253.055000", "114254.255000", "114255.455000", "114256.655000", "114257.855000", "114259.055000", "114300.255000", "114301.455000", "114302.655000", "114303.855000", "114305.055000", "114306.255000", "114307.455000", "114308.655000", "114309.855000", "114311.055000", "114312.255000", "114313.455000", "114314.655000", "114315.855000", "114317.055000", "114318.255000", "114319.455000", "114320.655000", "114321.855000", "114323.055000", "114324.255000", "114325.455000", "114326.655000", "114327.855000", "114329.055000", "114330.255000", "114331.455000", "114332.655000", "114333.855000", "114335.055000", "114336.255000", "114337.455000", "114338.655000", "114339.855000", "114341.055000", "114342.255000", "114343.455000", "114344.655000", "114345.855000", "114347.055000", "114348.255000", "114349.455000", "114350.655000", "114351.855000", "114353.055000", "114354.255000", "114355.455000", "114356.655000"],
      "ContentTime": ["114151.920000", "114151.924000", "114151.926000", "114151.929000", "114151.931000", "114151.934000", "114151.936000", "114151.946000", "114151.949000", "114151.952000", "114151.959000", "114151.968000", "114151.970000", "114151.973000", "114151.976000", "114151.978000", "114151.981000", "114151.983000", "114151.986000", "114151.988000", "114231.914000", "114231.917000", "114231.920000", "114231.922000", "114231.925000", "114231.928000", "114231.930000", "114231.933000", "114231.935000", "114231.938000", "114231.941000", "114231.943000", "114231.946000", "114231.948000", "114231.951000", "114231.953000", "114231.956000", "114231.958000", "114231.961000", "114231.964000", "114231.966000", "114231.969000", "114231.972000", "114231.974000", "114231.977000", "114231.980000", "114231.982000", "114231.985000", "114231.987000", "114231.990000", "114231.993000", "114231.995000", "114232.013000", "114311.914000", "114311.917000", "114311.920000", "114311.923000", "114311.925000", "114311.928000", "114311.930000", "114311.933000", "114311.935000", "114311.938000", "114311.941000", "114311.943000", "114311.946000", "114311.948000", "114311.951000", "114311.954000", "114311.956000", "114311.959000", "114311.961000", "114311.964000", "114311.967000", "114311.969000", "114311.972000", "114311.974000", "114311.977000", "114311.980000", "114311.982000", "114311.985000", "114311.987000", "114311.990000", "114311.993000", "114311.995000", "114311.998000", "114351.915000", "114351.918000", "114351.921000", "114351.923000", "114351.926000", "114351.929000", "114351.932000", "114351.934000", "114351.937000", "114351.940000", "114351.942000", "114351.945000", "114351.947000", "114351.950000", "114351.953000", "114351.955000", "114351.958000", "114351.960000", "114351.966000", "114351.969000", "114351.972000", "114351.974000", "114351.977000", "114351.979000", "114351.982000", "114351.984000", "114351.987000", "114351.990000", "114351.993000", "114351.995000", "114351.998000", "114352.001000", "114352.004000", "114352.007000", "114357.716000", "114357.719000", "114357.722000", "114357.725000", "114357.728000"],
      "InstanceCreationTime": ["114151.920000", "114151.924000", "114151.926000", "114151.929000", "114151.931000", "114151.934000", "114151.936000", "114151.946000", "114151.949000", "114151.952000", "114151.959000", "114151.968000", "114151.970000", "114151.973000", "114151.976000", "114151.978000", "114151.981000", "114151.983000", "114151.986000", "114151.988000", "114231.914000", "114231.917000", "114231.920000", "114231.922000", "114231.925000", "114231.928000", "114231.930000", "114231.933000", "114231.935000", "114231.938000", "114231.941000", "114231.943000", "114231.946000", "114231.948000", "114231.951000", "114231.953000", "114231.956000", "114231.958000", "114231.961000", "114231.964000", "114231.966000", "114231.969000", "114231.972000", "114231.974000", "114231.977000", "114231.980000", "114231.982000", "114231.985000", "114231.987000", "114231.990000", "114231.993000", "114231.995000", "114232.013000", "114311.914000", "114311.917000", "114311.920000", "114311.923000", "114311.925000", "114311.928000", "114311.930000", "114311.933000", "114311.935000", "114311.938000", "114311.941000", "114311.943000", "114311.946000", "114311.948000", "114311.951000", "114311.954000", "114311.956000", "114311.959000", "114311.961000", "114311.964000", "114311.967000", "114311.969000", "114311.972000", "114311.974000", "114311.977000", "114311.980000", "114311.982000", "114311.985000", "114311.987000", "114311.990000", "114311.993000", "114311.995000", "114311.998000", "114351.915000", "114351.918000", "114351.921000", "114351.923000", "114351.926000", "114351.929000", "114351.932000", "114351.934000", "114351.937000", "114351.940000", "114351.942000", "114351.945000", "114351.947000", "114351.950000", "114351.953000", "114351.955000", "114351.958000", "114351.960000", "114351.966000", "114351.969000", "114351.972000", "114351.974000", "114351.977000", "114351.979000", "114351.982000", "114351.984000", "114351.987000", "114351.990000", "114351.993000", "114351.995000", "114351.998000", "114352.001000", "114352.004000", "114352.007000", "114357.716000", "114357.719000", "114357.722000", "114357.725000", "114357.728000"],
      "InstanceNumber": [1, 2, 3, 4, 5, 6, 7, 8, 9, 10, 11, 12, 13, 14, 15, 16, 17, 18, 19, 20, 21, 22, 23, 24, 25, 26, 27, 28, 29, 30, 31, 32, 33, 34, 35, 36, 37, 38, 39, 40, 41, 42, 43, 44, 45, 46, 47, 48, 49, 50, 51, 52, 53, 54, 55, 56, 57, 58, 59, 60, 61, 62, 63, 64, 65, 66, 67, 68, 69, 70, 71, 72, 73, 74, 75, 76, 77, 78, 79, 80, 81, 82, 83, 84, 85, 86, 87, 88, 89, 90, 91, 92, 93, 94, 95, 96, 97, 98, 99, 100, 101, 102, 103, 104, 105, 106, 107, 108, 109, 110, 111, 112, 113, 114, 115, 116, 117, 118, 119, 120, 121, 122, 123, 124, 125],
      "LargestImagePixelValue": [2539, 2474, 2449, 2409, 2402, 2391, 2392, 2395, 2375, 2384, 2367, 2356, 2360, 2358, 2375, 2386, 2370, 2378, 2369, 2360, 2369, 2359, 2358, 2363, 2374, 2375, 2371, 2376, 2374, 2393, 2385, 2389, 2369, 2373, 2372, 2379, 2373, 2364, 2369, 2380, 2392, 2373, 2367, 2389, 2378, 2372, 2370, 2387, 2372, 2372, 2381, 2374, 2396, 2390, 2377, 2387, 2388, 2397, 2403, 2389, 2381, 2374, 2385, 2394, 2379, 2401, 2393, 2391, 2385, 2389, 2388, 2384, 2396, 2382, 2393, 2380, 2375, 2376, 2380, 2392, 2387, 2395, 2380, 2403, 2388, 2395, 2391, 2395, 2394, 2392, 2390, 2411, 2389, 2404, 2395, 2387, 2385, 2394, 2400, 2392, 2397, 2401, 2398, 2399, 2386, 2398, 2402, 2400, 2398, 2399, 2401, 2398, 2405, 2392, 2343, 2322, 2303, 2319, 2344, 2342, 2356, 2350, 2341, 2327, 2331],
      "WindowCenter": [600.0, 597.0, 596.0, 596.0, 595.0, 595.0, 596.0, 595.0, 594.0, 594.0, 593.0, 593.0, 593.0, 593.0, 594.0, 594.0, 593.0, 592.0, 592.0, 591.0, 593.0, 593.0, 594.0, 593.0, 594.0, 593.0, 593.0, 593.0, 594.0, 595.0, 595.0, 595.0, 596.0, 596.0, 597.0, 596.0, 596.0, 595.0, 595.0, 595.0, 595.0, 595.0, 595.0, 595.0, 595.0, 594.0, 595.0, 595.0, 595.0, 595.0, 595.0, 595.0, 595.0, 595.0, 594.0, 594.0, 595.0, 595.0, 595.0, 594.0, 594.0, 594.0, 593.0, 593.0, 592.0, 593.0, 594.0, 594.0, 594.0, 594.0, 593.0, 593.0, 593.0, 593.0, 594.0, 594.0, 595.0, 595.0, 595.0, 594.0, 594.0, 594.0, 594.0, 594.0, 594.0, 595.0, 595.0, 595.0, 596.0, 596.0, 595.0, 596.0, 596.0, 596.0, 595.0, 595.0, 595.0, 594.0, 594.0, 594.0, 594.0, 595.0, 595.0, 595.0, 594.0, 594.0, 594.0, 595.0, 594.0, 594.0, 594.0, 594.0, 594.0, 593.0, 593.0, 593.0, 592.0, 593.0, 594.0, 593.0, 594.0, 594.0, 594.0, 594.0, 594.0],
      "WindowWidth": [1286.0, 1279.0, 1276.0, 1275.0, 1274.0, 1274.0, 1275.0, 1274.0, 1272.0, 1271.0, 1270.0, 1269.0, 1269.0, 1269.0, 1270.0, 1270.0, 1268.0, 1267.0, 1265.0, 1265.0, 1267.0, 1268.0, 1270.0, 1269.0, 1270.0, 1269.0, 1269.0, 1269.0, 1270.0, 1272.0, 1273.0, 1274.0, 1275.0, 1276.0, 1278.0, 1277.0, 1276.0, 1274.0, 1273.0, 1272.0, 1273.0, 1273.0, 1273.0, 1274.0, 1272.0, 1271.0, 1272.0, 1273.0, 1273.0, 1274.0, 1274.0, 1274.0, 1274.0, 1274.0, 1272.0, 1273.0, 1274.0, 1274.0, 1273.0, 1271.0, 1270.0, 1270.0, 1269.0, 1269.0, 1267.0, 1268.0, 1270.0, 1271.0, 1271.0, 1270.0, 1270.0, 1268.0, 1269.0, 1269.0, 1271.0, 1271.0, 1273.0, 1272.0, 1272.0, 1272.0, 1271.0, 1272.0, 1271.0, 1271.0, 1272.0, 1272.0, 1274.0, 1274.0, 1275.0, 1275.0, 1274.0, 1275.0, 1275.0, 1275.0, 1274.0, 1273.0, 1272.0, 1271.0, 1271.0, 1271.0, 1272.0, 1274.0, 1273.0, 1273.0, 1272.0, 1272.0, 1272.0, 1272.0, 1272.0, 1271.0, 1271.0, 1271.0, 1270.0, 1269.0, 1269.0, 1268.0, 1268.0, 1269.0, 1271.0, 1269.0, 1270.0, 1271.0, 1271.0, 1271.0, 1270.0]
    },
    "slices": {}
  }
}