{
  "AcquisitionMatrixPE": 88,
  "AcquisitionNumber": 1,
  "AcquisitionTime": "11:56:46.377500",
  "BandwidthPerPixelPhaseEncode": 19.592,
  "BaseResolution": 88,
  "BodyPartExamined": "BRAIN",
  "ConsistencyInfo": "N4_VE11C_LATEST_20160120",
  "ConversionSoftware": "dcm2niix",
  "ConversionSoftwareVersion": "v1.0.20190902",
  "DerivedVendorReportedEchoSpacing": 0.000580014,
  "DeviceSerialNumber": "67050",
  "DwellTime": 2.6e-06,
  "EchoTime": 0.033,
  "EchoTrainLength": 88,
  "EffectiveEchoSpacing": 0.000580014,
  "FlipAngle": 62,
  "ImageOrientationPatientDICOM": [0.99137, -0.0233719, -0.128997, 0.0263063, 0.999431, 0.0210909],
  "ImageType": [
    "ORIGINAL",
    "PRIMARY",
    "M",
    "ND",
    "MOSAIC"
],
  "ImagingFrequency": 123.251,
  "InPlanePhaseEncodingDirectionDICOM": "COL",
  "InstitutionAddress": "Olive_Street_60_Providence_RI_US_02912",
  "InstitutionName": "BROWN_UNIVERSITY_MRF",
  "InstitutionalDepartmentName": "Department",
  "MRAcquisitionType": "2D",
  "MagneticFieldStrength": 3,
  "Manufacturer": "Siemens",
  "ManufacturersModelName": "Prisma_fit",
  "Modality": "MR",
  "MultibandAccelerationFactor": 4,
  "PartialFourier": 1,
  "PatientPosition": "HFS",
  "PercentPhaseFOV": 100,
  "PhaseEncodingDirection": "j-",
  "PhaseEncodingSteps": 88,
  "PhaseResolution": 1,
  "PixelBandwidth": 2185,
  "ProcedureStepDescription": "ASHENHAV_1222",
  "ProtocolName": "func-bold_task-RDMcolor_run-06",
  "PulseSequenceDetails": "%SiemensSeq%_ep2d_bold",
  "ReceiveCoilActiveElements": "HC1-7",
  "ReceiveCoilName": "HeadNeck_64",
  "ReconMatrixPE": 88,
  "RefLinesPE": 8,
  "RepetitionTime": 1.2,
  "SAR": 0.0550241,
  "ScanOptions": "FS",
  "ScanningSequence": "EP",
  "SequenceName": "_epfid2d1_88",
  "SequenceVariant": "SK",
  "SeriesDescription": "func-bold_task-RDMcolor_run-06",
  "SeriesNumber": 18,
  "ShimSetting": [1723, -9117, 4435, 490, 22, -188, -99, -23],
  "SliceThickness": 2.4,
  "SliceTiming": [0.55, 0, 0.63, 0.08, 0.7075, 0.1575, 0.7875, 0.235, 0.865, 0.315, 0.945, 0.3925, 1.0225, 0.4725, 1.1025, 0.55, 0, 0.63, 0.08, 0.7075, 0.1575, 0.7875, 0.235, 0.865, 0.315, 0.945, 0.3925, 1.0225, 0.4725, 1.1025, 0.55, 0, 0.63, 0.08, 0.7075, 0.1575, 0.7875, 0.235, 0.865, 0.315, 0.945, 0.3925, 1.0225, 0.4725, 1.1025, 0.55, 0, 0.63, 0.08, 0.7075, 0.1575, 0.7875, 0.235, 0.865, 0.315, 0.945, 0.3925, 1.0225, 0.4725, 1.1025],
  "SoftwareVersions": "syngo_MR_E11",
  "SpacingBetweenSlices": 2.4,
  "StationName": "AWP67050",
  "TaskName": "RDMcolor",
  "TotalReadoutTime": 0.0504612,
  "TxRefAmp": 215.627,
  "dcmmeta_affine": [
    [-2.3770337104797363, 0.06307527422904968, -0.30823373794555664, 104.931396484375],
    [0.056039370596408844, 2.3963639736175537, 0.058325450867414474, -107.56715393066406],
    [-0.30929961800575256, -0.05057014152407646, 2.3794095516204834, -30.331119537353516],
    [0.0, 0.0, 0.0, 1.0]
],
  "dcmmeta_reorient_transform": [
    [0.0, -1.0, 0.0, 87.0],
    [1.0, 0.0, 0.0, 0.0],
    [0.0, 0.0, 1.0, 0.0],
    [0.0, 0.0, 0.0, 1.0]
],
  "dcmmeta_shape": [88, 88, 60, 392],
  "dcmmeta_slice_dim": 2,
  "dcmmeta_version": 0.6,
  "global": {
    "const": {
      "AcquisitionMatrix": [88, 0, 0, 88],
      "AngioFlag": "N",
      "BitsAllocated": 16,
      "BitsStored": 12,
      "BodyPartExamined": "BRAIN",
      "Columns": 704,
      "DeidentificationMethodCodeSequence": [
        {
          "CodeMeaning": "XNAT DicomEdit 6 Script",
          "CodeValue": "3",
          "CodingSchemeDesignator": "XNAT",
          "CodingSchemeVersion": "1.0"}
],
      "EchoNumbers": 1,
      "EchoTime": 33.0,
      "EchoTrainLength": 88,
      "FlipAngle": 62.0,
      "HighBit": 11,
      "ImageOrientationPatient": [0.99136952244991, -0.0233718706033, -0.1289969984997, 0.02630627578245, 0.99943141598228, 0.02109086537136],
      "ImagePositionPatient": [-861.97251580996, -821.73647669354, 44.957956964073],
      "ImageType": [
        "ORIGINAL",
        "PRIMARY",
        "M",
        "ND",
        "MOSAIC"
],
      "ImagedNucleus": "1H",
      "ImagingFrequency": 123.25067,
      "InPlanePhaseEncodingDirection": "COL",
      "MRAcquisitionType": "2D",
      "MagneticFieldStrength": 3.0,
      "Manufacturer": "SIEMENS",
      "ManufacturerModelName": "Prisma_fit",
      "Modality": "MR",
      "NumberOfAverages": 1.0,
      "NumberOfPhaseEncodingSteps": 88,
      "PercentPhaseFieldOfView": 100.0,
      "PercentSampling": 100.0,
      "PerformedProcedureStepStartTime": "104127.933000",
      "PhotometricInterpretation": "MONOCHROME2",
      "PixelBandwidth": 2185.0,
      "PixelRepresentation": 0,
      "PixelSpacing": [2.3977272510529, 2.3977272510529],
      "ProtocolName": "func-bold_task-RDMcolor_run-06",
      "RepetitionTime": 1200.0,
      "Rows": 704,
      "SAR": 0.05502411895771,
      "SamplesPerPixel": 1,
      "ScanOptions": "FS",
      "ScanningSequence": "EP",
      "SequenceName": "*epfid2d1_88",
      "SequenceVariant": "SK",
      "SeriesDescription": "func-bold_task-RDMcolor_run-06",
      "SeriesNumber": 18,
      "SeriesTime": "115711.915000",
      "SliceLocation": -46.161439644074,
      "SliceThickness": 2.4000000953674,
      "SmallestImagePixelValue": 0,
      "SoftwareVersions": "syngo MR E11",
      "SpacingBetweenSlices": 2.3999999826302,
      "SpecificCharacterSet": "ISO_IR 100",
      "StudyID": "1",
      "StudyTime": "104127.873000",
      "TransmitCoilName": "Body",
      "VariableFlipAngleFlag": "N",
      "WindowCenterWidthExplanation": "Algo1",
      "dBdt": 0.0},
    "slices": {}
  },
  "time": {
    "samples": {
      "AcquisitionNumber": [1, 2, 3, 4, 5, 6, 7, 8, 9, 10, 11, 12, 13, 14, 15, 16, 17, 18, 19, 20, 21, 22, 23, 24, 25, 26, 27, 28, 29, 30, 31, 32, 33, 34, 35, 36, 37, 38, 39, 40, 41, 42, 43, 44, 45, 46, 47, 48, 49, 50, 51, 52, 53, 54, 55, 56, 57, 58, 59, 60, 61, 62, 63, 64, 65, 66, 67, 68, 69, 70, 71, 72, 73, 74, 75, 76, 77, 78, 79, 80, 81, 82, 83, 84, 85, 86, 87, 88, 89, 90, 91, 92, 93, 94, 95, 96, 97, 98, 99, 100, 101, 102, 103, 104, 105, 106, 107, 108, 109, 110, 111, 112, 113, 114, 115, 116, 117, 118, 119, 120, 121, 122, 123, 124, 125, 126, 127, 128, 129, 130, 131, 132, 133, 134, 135, 136, 137, 138, 139, 140, 141, 142, 143, 144, 145, 146, 147, 148, 149, 150, 151, 152, 153, 154, 155, 156, 157, 158, 159, 160, 161, 162, 163, 164, 165, 166, 167, 168, 169, 170, 171, 172, 173, 174, 175, 176, 177, 178, 179, 180, 181, 182, 183, 184, 185, 186, 187, 188, 189, 190, 191, 192, 193, 194, 195, 196, 197, 198, 199, 200, 201, 202, 203, 204, 205, 206, 207, 208, 209, 210, 211, 212, 213, 214, 215, 216, 217, 218, 219, 220, 221, 222, 223, 224, 225, 226, 227, 228, 229, 230, 231, 232, 233, 234, 235, 236, 237, 238, 239, 240, 241, 242, 243, 244, 245, 246, 247, 248, 249, 250, 251, 252, 253, 254, 255, 256, 257, 258, 259, 260, 261, 262, 263, 264, 265, 266, 267, 268, 269, 270, 271, 272, 273, 274, 275, 276, 277, 278, 279, 280, 281, 282, 283, 284, 285, 286, 287, 288, 289, 290, 291, 292, 293, 294, 295, 296, 297, 298, 299, 300, 301, 302, 303, 304, 305, 306, 307, 308, 309, 310, 311, 312, 313, 314, 315, 316, 317, 318, 319, 320, 321, 322, 323, 324, 325, 326, 327, 328, 329, 330, 331, 332, 333, 334, 335, 336, 337, 338, 339, 340, 341, 342, 343, 344, 345, 346, 347, 348, 349, 350, 351, 352, 353, 354, 355, 356, 357, 358, 359, 360, 361, 362, 363, 364, 365, 366, 367, 368, 369, 370, 371, 372, 373, 374, 375, 376, 377, 378, 379, 380, 381, 382, 383, 384, 385, 386, 387, 388, 389, 390, 391, 392],
      "AcquisitionTime": ["115646.377500", "115647.577500", "115648.777500", "115649.977500", "115651.177500", "115652.377500", "115653.577500", "115654.777500", "115655.977500", "115657.177500", "115658.377500", "115659.577500", "115700.777500", "115701.977500", "115703.177500", "115704.377500", "115705.577500", "115706.777500", "115707.977500", "115709.177500", "115710.377500", "115711.577500", "115712.777500", "115713.977500", "115715.177500", "115716.377500", "115717.577500", "115718.777500", "115719.977500", "115721.177500", "115722.377500", "115723.577500", "115724.777500", "115725.977500", "115727.177500", "115728.377500", "115729.577500", "115730.777500", "115731.977500", "115733.177500", "115734.377500", "115735.577500", "115736.777500", "115737.977500", "115739.177500", "115740.377500", "115741.577500", "115742.777500", "115743.977500", "115745.177500", "115746.377500", "115747.577500", "115748.777500", "115749.977500", "115751.177500", "115752.377500", "115753.577500", "115754.777500", "115755.977500", "115757.177500", "115758.377500", "115759.577500", "115800.777500", "115801.977500", "115803.177500", "115804.377500", "115805.577500", "115806.777500", "115807.977500", "115809.177500", "115810.377500", "115811.577500", "115812.777500", "115813.977500", "115815.177500", "115816.377500", "115817.577500", "115818.777500", "115819.977500", "115821.177500", "115822.377500", "115823.577500", "115824.777500", "115825.977500", "115827.177500", "115828.377500", "115829.577500", "115830.777500", "115831.977500", "115833.177500", "115834.377500", "115835.577500", "115836.777500", "115837.977500", "115839.177500", "115840.377500", "115841.577500", "115842.777500", "115843.977500", "115845.177500", "115846.377500", "115847.577500", "115848.777500", "115849.977500", "115851.177500", "115852.377500", "115853.577500", "115854.777500", "115855.977500", "115857.177500", "115858.377500", "115859.577500", "115900.777500", "115901.977500", "115903.177500", "115904.377500", "115905.577500", "115906.777500", "115907.977500", "115909.177500", "115910.377500", "115911.577500", "115912.777500", "115913.977500", "115915.177500", "115916.377500", "115917.577500", "115918.777500", "115919.977500", "115921.177500", "115922.377500", "115923.577500", "115924.777500", "115925.977500", "115927.177500", "115928.377500", "115929.577500", "115930.777500", "115931.977500", "115933.177500", "115934.377500", "115935.577500", "115936.777500", "115937.977500", "115939.177500", "115940.377500", "115941.577500", "115942.777500", "115943.977500", "115945.177500", "115946.377500", "115947.577500", "115948.777500", "115949.977500", "115951.177500", "115952.377500", "115953.577500", "115954.777500", "115955.977500", "115957.177500", "115958.377500", "115959.577500", "120000.777500", "120001.977500", "120003.177500", "120004.377500", "120005.577500", "120006.777500", "120007.977500", "120009.177500", "120010.377500", "120011.577500", "120012.777500", "120013.977500", "120015.177500", "120016.377500", "120017.577500", "120018.777500", "120019.977500", "120021.177500", "120022.377500", "120023.577500", "120024.777500", "120025.977500", "120027.177500", "120028.377500", "120029.577500", "120030.777500", "120031.977500", "120033.177500", "120034.377500", "120035.577500", "120036.777500", "120037.977500", "120039.177500", "120040.377500", "120041.577500", "120042.777500", "120043.977500", "120045.177500", "120046.377500", "120047.577500", "120048.777500", "120049.977500", "120051.177500", "120052.377500", "120053.577500", "120054.777500", "120055.977500", "120057.177500", "120058.377500", "120059.577500", "120100.777500", "120101.977500", "120103.177500", "120104.377500", "120105.577500", "120106.777500", "120107.977500", "120109.177500", "120110.377500", "120111.577500", "120112.777500", "120113.977500", "120115.177500", "120116.377500", "120117.577500", "120118.777500", "120119.977500", "120121.177500", "120122.377500", "120123.577500", "120124.777500", "120125.977500", "120127.177500", "120128.377500", "120129.577500", "120130.777500", "120131.977500", "120133.177500", "120134.377500", "120135.577500", "120136.777500", "120137.977500", "120139.177500", "120140.377500", "120141.577500", "120142.777500", "120143.977500", "120145.177500", "120146.377500", "120147.577500", "120148.777500", "120149.977500", "120151.177500", "120152.377500", "120153.577500", "120154.777500", "120155.977500", "120157.177500", "120158.377500", "120159.577500", "120200.777500", "120201.977500", "120203.177500", "120204.377500", "120205.577500", "120206.777500", "120207.977500", "120209.177500", "120210.377500", "120211.577500", "120212.777500", "120213.977500", "120215.177500", "120216.377500", "120217.577500", "120218.777500", "120219.977500", "120221.177500", "120222.377500", "120223.577500", "120224.777500", "120225.977500", "120227.177500", "120228.377500", "120229.577500", "120230.777500", "120231.977500", "120233.177500", "120234.377500", "120235.577500", "120236.777500", "120237.977500", "120239.177500", "120240.377500", "120241.577500", "120242.777500", "120243.977500", "120245.177500", "120246.377500", "120247.577500", "120248.777500", "120249.977500", "120251.177500", "120252.377500", "120253.577500", "120254.777500", "120255.977500", "120257.177500", "120258.377500", "120259.577500", "120300.777500", "120301.977500", "120303.177500", "120304.377500", "120305.577500", "120306.777500", "120307.977500", "120309.177500", "120310.377500", "120311.577500", "120312.777500", "120313.977500", "120315.177500", "120316.377500", "120317.577500", "120318.777500", "120319.977500", "120321.177500", "120322.377500", "120323.577500", "120324.777500", "120325.977500", "120327.177500", "120328.377500", "120329.577500", "120330.777500", "120331.977500", "120333.177500", "120334.377500", "120335.577500", "120336.777500", "120337.977500", "120339.177500", "120340.377500", "120341.577500", "120342.777500", "120343.977500", "120345.177500", "120346.377500", "120347.577500", "120348.777500", "120349.977500", "120351.177500", "120352.377500", "120353.577500", "120354.777500", "120355.977500", "120357.177500", "120358.377500", "120359.577500", "120400.777500", "120401.977500", "120403.177500", "120404.377500", "120405.577500", "120406.777500", "120407.977500", "120409.177500", "120410.377500", "120411.577500", "120412.777500", "120413.977500", "120415.177500", "120416.377500", "120417.577500", "120418.777500", "120419.977500", "120421.177500", "120422.377500", "120423.577500", "120424.777500", "120425.977500", "120427.177500", "120428.377500", "120429.577500", "120430.777500", "120431.977500", "120433.177500", "120434.377500", "120435.577500"],
      "ContentTime": ["115711.919000", "115711.922000", "115711.924000", "115711.927000", "115711.930000", "115711.932000", "115711.935000", "115711.937000", "115711.940000", "115711.943000", "115711.945000", "115711.948000", "115711.951000", "115711.953000", "115711.956000", "115711.963000", "115711.966000", "115711.969000", "115711.972000", "115711.978000", "115731.915000", "115731.919000", "115731.927000", "115731.930000", "115731.932000", "115731.935000", "115731.937000", "115731.940000", "115731.942000", "115731.945000", "115731.948000", "115731.950000", "115731.953000", "115731.955000", "115731.958000", "115731.960000", "115731.963000", "115811.915000", "115811.918000", "115811.921000", "115811.923000", "115811.926000", "115811.929000", "115811.931000", "115811.934000", "115811.937000", "115811.939000", "115811.949000", "115811.952000", "115811.955000", "115811.957000", "115811.960000", "115811.963000", "115811.966000", "115811.968000", "115811.971000", "115811.974000", "115811.977000", "115811.979000", "115811.982000", "115811.985000", "115811.987000", "115811.990000", "115811.993000", "115811.995000", "115811.998000", "115812.008000", "115812.011000", "115812.013000", "115812.016000", "115851.914000", "115851.917000", "115851.920000", "115851.922000", "115851.925000", "115851.928000", "115851.930000", "115851.933000", "115851.935000", "115851.938000", "115851.941000", "115851.943000", "115851.946000", "115851.960000", "115851.963000", "115851.965000", "115851.968000", "115851.971000", "115851.973000", "115851.976000", "115851.978000", "115851.981000", "115851.983000", "115851.986000", "115851.989000", "115851.991000", "115851.994000", "115851.997000", "115852.001000", "115852.003000", "115852.006000", "115852.008000", "115852.011000", "115852.013000", "115931.914000", "115931.917000", "115931.920000", "115931.922000", "115931.925000", "115931.928000", "115931.930000", "115931.933000", "115931.935000", "115931.938000", "115931.941000", "115931.943000", "115931.946000", "115931.949000", "115931.951000", "115931.954000", "115931.957000", "115931.959000", "115931.962000", "115931.964000", "115931.967000", "115931.970000", "115931.972000", "115931.975000", "115931.977000", "115931.980000", "115931.983000", "115931.985000", "115931.988000", "115931.990000", "115931.993000", "115931.996000", "115931.998000", "120011.916000", "120011.918000", "120011.921000", "120011.923000", "120011.926000", "120011.929000", "120011.931000", "120011.954000", "120011.965000", "120011.967000", "120011.970000", "120011.972000", "120011.975000", "120011.978000", "120011.980000", "120011.983000", "120011.985000", "120011.988000", "120011.991000", "120011.993000", "120011.996000", "120011.998000", "120012.002000", "120012.005000", "120012.007000", "120012.010000", "120012.013000", "120012.015000", "120012.018000", "120012.020000", "120012.023000", "120012.026000", "120012.028000", "120051.915000", "120051.918000", "120051.920000", "120051.923000", "120051.926000", "120051.928000", "120051.931000", "120051.933000", "120051.936000", "120051.939000", "120051.941000", "120051.944000", "120051.947000", "120051.949000", "120051.952000", "120051.955000", "120051.957000", "120051.960000", "120051.962000", "120051.965000", "120051.968000", "120051.970000", "120051.973000", "120051.975000", "120051.978000", "120051.981000", "120051.983000", "120051.986000", "120051.988000", "120051.991000", "120051.994000", "120051.996000", "120052.000000", "120052.002000", "120131.914000", "120131.917000", "120131.920000", "120131.922000", "120131.925000", "120131.928000", "120131.930000", "120131.933000", "120131.936000", "120131.938000", "120131.941000", "120131.944000", "120131.946000", "120131.949000", "120131.951000", "120131.954000", "120131.957000", "120131.959000", "120131.962000", "120131.964000", "120131.967000", "120131.970000", "120131.972000", "120131.975000", "120131.978000", "120131.980000", "120131.983000", "120131.985000", "120131.988000", "120131.991000", "120131.993000", "120131.996000", "120131.998000", "120211.915000", "120211.919000", "120211.921000", "120211.924000", "120211.926000", "120211.929000", "120211.932000", "120211.935000", "120211.937000", "120211.940000", "120211.942000", "120211.945000", "120211.947000", "120211.950000", "120211.953000", "120211.956000", "120211.959000", "120211.962000", "120211.965000", "120211.968000", "120211.971000", "120211.973000", "120211.976000", "120211.979000", "120211.981000", "120211.984000", "120211.987000", "120211.989000", "120211.992000", "120211.994000", "120211.997000", "120212.001000", "120212.003000", "120251.916000", "120251.918000", "120251.921000", "120251.924000", "120251.927000", "120251.929000", "120251.932000", "120251.935000", "120251.937000", "120251.940000", "120251.943000", "120251.945000", "120251.948000", "120251.950000", "120251.953000", "120251.956000", "120251.958000", "120251.961000", "120251.964000", "120251.966000", "120251.969000", "120251.971000", "120251.974000", "120251.976000", "120251.979000", "120251.982000", "120251.984000", "120251.987000", "120251.989000", "120251.992000", "120251.995000", "120251.998000", "120252.001000", "120252.004000", "120331.915000", "120331.917000", "120331.920000", "120331.923000", "120331.925000", "120331.928000", "120331.931000", "120331.933000", "120331.936000", "120331.938000", "120331.941000", "120331.944000", "120331.946000", "120331.949000", "120331.951000", "120331.955000", "120331.958000", "120331.960000", "120331.963000", "120331.965000", "120331.968000", "120331.971000", "120331.973000", "120331.976000", "120331.978000", "120331.981000", "120331.984000", "120331.986000", "120331.989000", "120331.991000", "120331.994000", "120331.997000", "120332.000000", "120411.915000", "120411.918000", "120411.920000", "120411.940000", "120411.943000", "120411.947000", "120411.949000", "120411.952000", "120411.955000", "120411.958000", "120411.960000", "120411.963000", "120411.965000", "120411.968000", "120411.971000", "120411.973000", "120411.976000", "120411.979000", "120411.981000", "120411.984000", "120411.986000", "120411.989000", "120411.992000", "120411.994000", "120411.997000", "120412.000000", "120412.003000", "120412.006000", "120412.008000", "120412.011000", "120412.013000", "120412.016000", "120412.019000", "120437.212000", "120437.215000", "120437.218000", "120437.221000", "120437.232000", "120437.234000", "120437.237000", "120437.239000", "120437.242000", "120437.245000", "120437.248000", "120437.250000", "120437.253000", "120437.255000", "120437.258000", "120437.261000", "120437.264000", "120437.266000", "120437.269000", "120437.271000", "120437.274000", "120437.277000"],
      "InstanceCreationTime": ["115711.919000", "115711.922000", "115711.924000", "115711.927000", "115711.930000", "115711.932000", "115711.935000", "115711.937000", "115711.940000", "115711.943000", "115711.945000", "115711.948000", "115711.951000", "115711.953000", "115711.956000", "115711.963000", "115711.966000", "115711.969000", "115711.972000", "115711.978000", "115731.915000", "115731.919000", "115731.927000", "115731.930000", "115731.932000", "115731.935000", "115731.937000", "115731.940000", "115731.942000", "115731.945000", "115731.948000", "115731.950000", "115731.953000", "115731.955000", "115731.958000", "115731.960000", "115731.963000", "115811.915000", "115811.918000", "115811.921000", "115811.923000", "115811.926000", "115811.929000", "115811.931000", "115811.934000", "115811.937000", "115811.939000", "115811.949000", "115811.952000", "115811.955000", "115811.957000", "115811.960000", "115811.963000", "115811.966000", "115811.968000", "115811.971000", "115811.974000", "115811.977000", "115811.979000", "115811.982000", "115811.985000", "115811.987000", "115811.990000", "115811.993000", "115811.995000", "115811.998000", "115812.008000", "115812.011000", "115812.013000", "115812.016000", "115851.914000", "115851.917000", "115851.920000", "115851.922000", "115851.925000", "115851.928000", "115851.930000", "115851.933000", "115851.935000", "115851.938000", "115851.941000", "115851.943000", "115851.946000", "115851.960000", "115851.963000", "115851.965000", "115851.968000", "115851.971000", "115851.973000", "115851.976000", "115851.978000", "115851.981000", "115851.983000", "115851.986000", "115851.989000", "115851.991000", "115851.994000", "115851.997000", "115852.001000", "115852.003000", "115852.006000", "115852.008000", "115852.011000", "115852.013000", "115931.914000", "115931.917000", "115931.920000", "115931.922000", "115931.925000", "115931.928000", "115931.930000", "115931.933000", "115931.935000", "115931.938000", "115931.941000", "115931.943000", "115931.946000", "115931.949000", "115931.951000", "115931.954000", "115931.957000", "115931.959000", "115931.962000", "115931.964000", "115931.967000", "115931.970000", "115931.972000", "115931.975000", "115931.977000", "115931.980000", "115931.983000", "115931.985000", "115931.988000", "115931.990000", "115931.993000", "115931.996000", "115931.998000", "120011.916000", "120011.918000", "120011.921000", "120011.923000", "120011.926000", "120011.929000", "120011.931000", "120011.954000", "120011.965000", "120011.967000", "120011.970000", "120011.972000", "120011.975000", "120011.978000", "120011.980000", "120011.983000", "120011.985000", "120011.988000", "120011.991000", "120011.993000", "120011.996000", "120011.998000", "120012.002000", "120012.005000", "120012.007000", "120012.010000", "120012.013000", "120012.015000", "120012.018000", "120012.020000", "120012.023000", "120012.026000", "120012.028000", "120051.915000", "120051.918000", "120051.920000", "120051.923000", "120051.926000", "120051.928000", "120051.931000", "120051.933000", "120051.936000", "120051.939000", "120051.941000", "120051.944000", "120051.947000", "120051.949000", "120051.952000", "120051.955000", "120051.957000", "120051.960000", "120051.962000", "120051.965000", "120051.968000", "120051.970000", "120051.973000", "120051.975000", "120051.978000", "120051.981000", "120051.983000", "120051.986000", "120051.988000", "120051.991000", "120051.994000", "120051.996000", "120052.000000", "120052.002000", "120131.914000", "120131.917000", "120131.920000", "120131.922000", "120131.925000", "120131.928000", "120131.930000", "120131.933000", "120131.936000", "120131.938000", "120131.941000", "120131.944000", "120131.946000", "120131.949000", "120131.951000", "120131.954000", "120131.957000", "120131.959000", "120131.962000", "120131.964000", "120131.967000", "120131.970000", "120131.972000", "120131.975000", "120131.978000", "120131.980000", "120131.983000", "120131.985000", "120131.988000", "120131.991000", "120131.993000", "120131.996000", "120131.998000", "120211.915000", "120211.919000", "120211.921000", "120211.924000", "120211.926000", "120211.929000", "120211.932000", "120211.935000", "120211.937000", "120211.940000", "120211.942000", "120211.945000", "120211.947000", "120211.950000", "120211.953000", "120211.956000", "120211.959000", "120211.962000", "120211.965000", "120211.968000", "120211.971000", "120211.973000", "120211.976000", "120211.979000", "120211.981000", "120211.984000", "120211.987000", "120211.989000", "120211.992000", "120211.994000", "120211.997000", "120212.001000", "120212.003000", "120251.916000", "120251.918000", "120251.921000", "120251.924000", "120251.927000", "120251.929000", "120251.932000", "120251.935000", "120251.937000", "120251.940000", "120251.943000", "120251.945000", "120251.948000", "120251.950000", "120251.953000", "120251.956000", "120251.958000", "120251.961000", "120251.964000", "120251.966000", "120251.969000", "120251.971000", "120251.974000", "120251.976000", "120251.979000", "120251.982000", "120251.984000", "120251.987000", "120251.989000", "120251.992000", "120251.995000", "120251.998000", "120252.001000", "120252.004000", "120331.915000", "120331.917000", "120331.920000", "120331.923000", "120331.925000", "120331.928000", "120331.931000", "120331.933000", "120331.936000", "120331.938000", "120331.941000", "120331.944000", "120331.946000", "120331.949000", "120331.951000", "120331.955000", "120331.958000", "120331.960000", "120331.963000", "120331.965000", "120331.968000", "120331.971000", "120331.973000", "120331.976000", "120331.978000", "120331.981000", "120331.984000", "120331.986000", "120331.989000", "120331.991000", "120331.994000", "120331.997000", "120332.000000", "120411.915000", "120411.918000", "120411.920000", "120411.940000", "120411.943000", "120411.947000", "120411.949000", "120411.952000", "120411.955000", "120411.958000", "120411.960000", "120411.963000", "120411.965000", "120411.968000", "120411.971000", "120411.973000", "120411.976000", "120411.979000", "120411.981000", "120411.984000", "120411.986000", "120411.989000", "120411.992000", "120411.994000", "120411.997000", "120412.000000", "120412.003000", "120412.006000", "120412.008000", "120412.011000", "120412.013000", "120412.016000", "120412.019000", "120437.212000", "120437.215000", "120437.218000", "120437.221000", "120437.232000", "120437.234000", "120437.237000", "120437.239000", "120437.242000", "120437.245000", "120437.248000", "120437.250000", "120437.253000", "120437.255000", "120437.258000", "120437.261000", "120437.264000", "120437.266000", "120437.269000", "120437.271000", "120437.274000", "120437.277000"],
      "InstanceNumber": [1, 2, 3, 4, 5, 6, 7, 8, 9, 10, 11, 12, 13, 14, 15, 16, 17, 18, 19, 20, 21, 22, 23, 24, 25, 26, 27, 28, 29, 30, 31, 32, 33, 34, 35, 36, 37, 38, 39, 40, 41, 42, 43, 44, 45, 46, 47, 48, 49, 50, 51, 52, 53, 54, 55, 56, 57, 58, 59, 60, 61, 62, 63, 64, 65, 66, 67, 68, 69, 70, 71, 72, 73, 74, 75, 76, 77, 78, 79, 80, 81, 82, 83, 84, 85, 86, 87, 88, 89, 90, 91, 92, 93, 94, 95, 96, 97, 98, 99, 100, 101, 102, 103, 104, 105, 106, 107, 108, 109, 110, 111, 112, 113, 114, 115, 116, 117, 118, 119, 120, 121, 122, 123, 124, 125, 126, 127, 128, 129, 130, 131, 132, 133, 134, 135, 136, 137, 138, 139, 140, 141, 142, 143, 144, 145, 146, 147, 148, 149, 150, 151, 152, 153, 154, 155, 156, 157, 158, 159, 160, 161, 162, 163, 164, 165, 166, 167, 168, 169, 170, 171, 172, 173, 174, 175, 176, 177, 178, 179, 180, 181, 182, 183, 184, 185, 186, 187, 188, 189, 190, 191, 192, 193, 194, 195, 196, 197, 198, 199, 200, 201, 202, 203, 204, 205, 206, 207, 208, 209, 210, 211, 212, 213, 214, 215, 216, 217, 218, 219, 220, 221, 222, 223, 224, 225, 226, 227, 228, 229, 230, 231, 232, 233, 234, 235, 236, 237, 238, 239, 240, 241, 242, 243, 244, 245, 246, 247, 248, 249, 250, 251, 252, 253, 254, 255, 256, 257, 258, 259, 260, 261, 262, 263, 264, 265, 266, 267, 268, 269, 270, 271, 272, 273, 274, 275, 276, 277, 278, 279, 280, 281, 282, 283, 284, 285, 286, 287, 288, 289, 290, 291, 292, 293, 294, 295, 296, 297, 298, 299, 300, 301, 302, 303, 304, 305, 306, 307, 308, 309, 310, 311, 312, 313, 314, 315, 316, 317, 318, 319, 320, 321, 322, 323, 324, 325, 326, 327, 328, 329, 330, 331, 332, 333, 334, 335, 336, 337, 338, 339, 340, 341, 342, 343, 344, 345, 346, 347, 348, 349, 350, 351, 352, 353, 354, 355, 356, 357, 358, 359, 360, 361, 362, 363, 364, 365, 366, 367, 368, 369, 370, 371, 372, 373, 374, 375, 376, 377, 378, 379, 380, 381, 382, 383, 384, 385, 386, 387, 388, 389, 390, 391, 392],
