{
  "AcquisitionMatrixPE": 88,
  "AcquisitionNumber": 1,
  "AcquisitionTime": "11:20:57.977500",
  "BandwidthPerPixelPhaseEncode": 19.592,
  "BaseResolution": 88,
  "BodyPartExamined": "BRAIN",
  "ConsistencyInfo": "N4_VE11C_LATEST_20160120",
  "ConversionSoftware": "dcm2niix",
  "ConversionSoftwareVersion": "v1.0.20190902",
  "DerivedVendorReportedEchoSpacing": 0.000580014,
  "DeviceSerialNumber": "67050",
  "DwellTime": 2.6e-06,
  "EchoTime": 0.033,
  "EchoTrainLength": 88,
  "EffectiveEchoSpacing": 0.000580014,
  "FlipAngle": 62,
  "ImageOrientationPatientDICOM": [0.99137, -0.0233719, -0.128997, 0.0263063, 0.999431, 0.0210909],
  "ImageType": [
    "ORIGINAL",
    "PRIMARY",
    "M",
    "ND",
    "MOSAIC"
],
  "ImagingFrequency": 123.251,
  "InPlanePhaseEncodingDirectionDICOM": "COL",
  "InstitutionAddress": "Olive_Street_60_Providence_RI_US_02912",
  "InstitutionName": "BROWN_UNIVERSITY_MRF",
  "InstitutionalDepartmentName": "Department",
  "MRAcquisitionType": "2D",
  "MagneticFieldStrength": 3,
  "Manufacturer": "Siemens",
  "ManufacturersModelName": "Prisma_fit",
  "Modality": "MR",
  "MultibandAccelerationFactor": 4,
  "PartialFourier": 1,
  "PatientPosition": "HFS",
  "PercentPhaseFOV": 100,
  "PhaseEncodingDirection": "j-",
  "PhaseEncodingSteps": 88,
  "PhaseResolution": 1,
  "PixelBandwidth": 2185,
  "ProcedureStepDescription": "ASHENHAV_1222",
  "ProtocolName": "func-bold_task-RDMcolor_run-03",
  "PulseSequenceDetails": "%SiemensSeq%_ep2d_bold",
  "ReceiveCoilActiveElements": "HC1-7",
  "ReceiveCoilName": "HeadNeck_64",
  "ReconMatrixPE": 88,
  "RefLinesPE": 8,
  "RepetitionTime": 1.2,
  "SAR": 0.0550241,
  "ScanOptions": "FS",
  "ScanningSequence": "EP",
  "SequenceName": "_epfid2d1_88",
  "SequenceVariant": "SK",
  "SeriesDescription": "func-bold_task-RDMcolor_run-03",
  "SeriesNumber": 12,
  "ShimSetting": [1723, -9117, 4435, 490, 22, -188, -99, -23],
  "SliceThickness": 2.4,
  "SliceTiming": [0.55, 0, 0.63, 0.08, 0.7075, 0.1575, 0.7875, 0.2375, 0.865, 0.315, 0.945, 0.395, 1.0225, 0.4725, 1.1025, 0.55, 0, 0.63, 0.08, 0.7075, 0.1575, 0.7875, 0.2375, 0.865, 0.315, 0.945, 0.395, 1.0225, 0.4725, 1.1025, 0.55, 0, 0.63, 0.08, 0.7075, 0.1575, 0.7875, 0.2375, 0.865, 0.315, 0.945, 0.395, 1.0225, 0.4725, 1.1025, 0.55, 0, 0.63, 0.08, 0.7075, 0.1575, 0.7875, 0.2375, 0.865, 0.315, 0.945, 0.395, 1.0225, 0.4725, 1.1025],
  "SoftwareVersions": "syngo_MR_E11",
  "SpacingBetweenSlices": 2.4,
  "StationName": "AWP67050",
  "TaskName": "RDMcolor",
  "TotalReadoutTime": 0.0504612,
  "TxRefAmp": 215.627,
  "dcmmeta_affine": [
    [-2.3770337104797363, 0.06307527422904968, -0.30823373794555664, 104.931396484375],
    [0.056039370596408844, 2.3963639736175537, 0.058325450867414474, -107.56715393066406],
    [-0.30929961800575256, -0.05057014152407646, 2.3794095516204834, -30.331119537353516],
    [0.0, 0.0, 0.0, 1.0]
],
  "dcmmeta_reorient_transform": [
    [0.0, -1.0, 0.0, 87.0],
    [1.0, 0.0, 0.0, 0.0],
    [0.0, 0.0, 1.0, 0.0],
    [0.0, 0.0, 0.0, 1.0]
],
  "dcmmeta_shape": [88, 88, 60, 392],
  "dcmmeta_slice_dim": 2,
  "dcmmeta_version": 0.6,
  "global": {
    "const": {
      "AcquisitionMatrix": [88, 0, 0, 88],
      "AngioFlag": "N",
      "BitsAllocated": 16,
      "BitsStored": 12,
      "BodyPartExamined": "BRAIN",
      "Columns": 704,
      "DeidentificationMethodCodeSequence": [
        {
          "CodeMeaning": "XNAT DicomEdit 6 Script",
          "CodeValue": "3",
          "CodingSchemeDesignator": "XNAT",
          "CodingSchemeVersion": "1.0"}
],
      "EchoNumbers": 1,
      "EchoTime": 33.0,
      "EchoTrainLength": 88,
      "FlipAngle": 62.0,
      "HighBit": 11,
      "ImageOrientationPatient": [0.99136952244991, -0.0233718706033, -0.1289969984997, 0.02630627578245, 0.99943141598228, 0.02109086537136],
      "ImagePositionPatient": [-861.97251580996, -821.73647669354, 44.957956964073],
      "ImageType": [
        "ORIGINAL",
        "PRIMARY",
        "M",
        "ND",
        "MOSAIC"
],
      "ImagedNucleus": "1H",
      "ImagingFrequency": 123.250666,
      "InPlanePhaseEncodingDirection": "COL",
      "MRAcquisitionType": "2D",
      "MagneticFieldStrength": 3.0,
      "Manufacturer": "SIEMENS",
      "ManufacturerModelName": "Prisma_fit",
      "Modality": "MR",
      "NumberOfAverages": 1.0,
      "NumberOfPhaseEncodingSteps": 88,
      "PercentPhaseFieldOfView": 100.0,
      "PercentSampling": 100.0,
      "PerformedProcedureStepStartTime": "104127.933000",
      "PhotometricInterpretation": "MONOCHROME2",
      "PixelBandwidth": 2185.0,
      "PixelRepresentation": 0,
      "PixelSpacing": [2.3977272510529, 2.3977272510529],
      "ProtocolName": "func-bold_task-RDMcolor_run-03",
      "RepetitionTime": 1200.0,
      "Rows": 704,
      "SAR": 0.05502411895771,
      "SamplesPerPixel": 1,
      "ScanOptions": "FS",
      "ScanningSequence": "EP",
      "SequenceName": "*epfid2d1_88",
      "SequenceVariant": "SK",
      "SeriesDescription": "func-bold_task-RDMcolor_run-03",
      "SeriesNumber": 12,
      "SeriesTime": "112131.915000",
      "SliceLocation": -46.161439644074,
      "SliceThickness": 2.4000000953674,
      "SmallestImagePixelValue": 0,
      "SoftwareVersions": "syngo MR E11",
      "SpacingBetweenSlices": 2.3999999826302,
      "SpecificCharacterSet": "ISO_IR 100",
      "StudyID": "1",
      "StudyTime": "104127.873000",
      "TransmitCoilName": "Body",
      "VariableFlipAngleFlag": "N",
      "WindowCenterWidthExplanation": "Algo1",
      "dBdt": 0.0},
    "slices": {}
  },
  "time": {
    "samples": {
      "AcquisitionNumber": [1, 2, 3, 4, 5, 6, 7, 8, 9, 10, 11, 12, 13, 14, 15, 16, 17, 18, 19, 20, 21, 22, 23, 24, 25, 26, 27, 28, 29, 30, 31, 32, 33, 34, 35, 36, 37, 38, 39, 40, 41, 42, 43, 44, 45, 46, 47, 48, 49, 50, 51, 52, 53, 54, 55, 56, 57, 58, 59, 60, 61, 62, 63, 64, 65, 66, 67, 68, 69, 70, 71, 72, 73, 74, 75, 76, 77, 78, 79, 80, 81, 82, 83, 84, 85, 86, 87, 88, 89, 90, 91, 92, 93, 94, 95, 96, 97, 98, 99, 100, 101, 102, 103, 104, 105, 106, 107, 108, 109, 110, 111, 112, 113, 114, 115, 116, 117, 118, 119, 120, 121, 122, 123, 124, 125, 126, 127, 128, 129, 130, 131, 132, 133, 134, 135, 136, 137, 138, 139, 140, 141, 142, 143, 144, 145, 146, 147, 148, 149, 150, 151, 152, 153, 154, 155, 156, 157, 158, 159, 160, 161, 162, 163, 164, 165, 166, 167, 168, 169, 170, 171, 172, 173, 174, 175, 176, 177, 178, 179, 180, 181, 182, 183, 184, 185, 186, 187, 188, 189, 190, 191, 192, 193, 194, 195, 196, 197, 198, 199, 200, 201, 202, 203, 204, 205, 206, 207, 208, 209, 210, 211, 212, 213, 214, 215, 216, 217, 218, 219, 220, 221, 222, 223, 224, 225, 226, 227, 228, 229, 230, 231, 232, 233, 234, 235, 236, 237, 238, 239, 240, 241, 242, 243, 244, 245, 246, 247, 248, 249, 250, 251, 252, 253, 254, 255, 256, 257, 258, 259, 260, 261, 262, 263, 264, 265, 266, 267, 268, 269, 270, 271, 272, 273, 274, 275, 276, 277, 278, 279, 280, 281, 282, 283, 284, 285, 286, 287, 288, 289, 290, 291, 292, 293, 294, 295, 296, 297, 298, 299, 300, 301, 302, 303, 304, 305, 306, 307, 308, 309, 310, 311, 312, 313, 314, 315, 316, 317, 318, 319, 320, 321, 322, 323, 324, 325, 326, 327, 328, 329, 330, 331, 332, 333, 334, 335, 336, 337, 338, 339, 340, 341, 342, 343, 344, 345, 346, 347, 348, 349, 350, 351, 352, 353, 354, 355, 356, 357, 358, 359, 360, 361, 362, 363, 364, 365, 366, 367, 368, 369, 370, 371, 372, 373, 374, 375, 376, 377, 378, 379, 380, 381, 382, 383, 384, 385, 386, 387, 388, 389, 390, 391, 392],
      "AcquisitionTime": ["112057.977500", "112059.177500", "112100.377500", "112101.577500", "112102.777500", "112103.977500", "112105.177500", "112106.377500", "112107.577500", "112108.777500", "112109.977500", "112111.177500", "112112.377500", "112113.577500", "112114.777500", "112115.977500", "112117.177500", "112118.377500", "112119.577500", "112120.777500", "112121.977500", "112123.177500", "112124.377500", "112125.577500", "112126.777500", "112127.977500", "112129.177500", "112130.377500", "112131.577500", "112132.777500", "112133.977500", "112135.177500", "112136.377500", "112137.577500", "112138.777500", "112139.977500", "112141.177500", "112142.377500", "112143.577500", "112144.777500", "112145.977500", "112147.177500", "112148.377500", "112149.577500", "112150.777500", "112151.977500", "112153.177500", "112154.377500", "112155.577500", "112156.777500", "112157.977500", "112159.177500", "112200.377500", "112201.577500", "112202.777500", "112203.977500", "112205.177500", "112206.377500", "112207.577500", "112208.777500", "112209.977500", "112211.177500", "112212.377500", "112213.577500", "112214.777500", "112215.977500", "112217.177500", "112218.377500", "112219.577500", "112220.777500", "112221.977500", "112223.177500", "112224.377500", "112225.577500", "112226.777500", "112227.977500", "112229.177500", "112230.377500", "112231.577500", "112232.777500", "112233.977500", "112235.177500", "112236.377500", "112237.577500", "112238.777500", "112239.977500", "112241.177500", "112242.377500", "112243.577500", "112244.777500", "112245.977500", "112247.177500", "112248.377500", "112249.577500", "112250.777500", "112251.977500", "112253.177500", "112254.377500", "112255.577500", "112256.777500", "112257.977500", "112259.177500", "112300.377500", "112301.577500", "112302.777500", "112303.977500", "112305.177500", "112306.377500", "112307.577500", "112308.777500", "112309.977500", "112311.177500", "112312.377500", "112313.577500", "112314.777500", "112315.977500", "112317.177500", "112318.377500", "112319.577500", "112320.777500", "112321.977500", "112323.177500", "112324.377500", "112325.577500", "112326.777500", "112327.977500", "112329.177500", "112330.377500", "112331.577500", "112332.777500", "112333.977500", "112335.177500", "112336.377500", "112337.577500", "112338.777500", "112339.977500", "112341.177500", "112342.377500", "112343.577500", "112344.777500", "112345.977500", "112347.177500", "112348.377500", "112349.577500", "112350.777500", "112351.977500", "112353.177500", "112354.377500", "112355.577500", "112356.777500", "112357.977500", "112359.177500", "112400.377500", "112401.577500", "112402.777500", "112403.977500", "112405.177500", "112406.377500", "112407.577500", "112408.777500", "112409.977500", "112411.177500", "112412.377500", "112413.577500", "112414.777500", "112415.977500", "112417.177500", "112418.377500", "112419.577500", "112420.777500", "112421.977500", "112423.177500", "112424.377500", "112425.577500", "112426.777500", "112427.977500", "112429.177500", "112430.377500", "112431.577500", "112432.777500", "112433.977500", "112435.177500", "112436.377500", "112437.577500", "112438.777500", "112439.977500", "112441.177500", "112442.377500", "112443.577500", "112444.777500", "112445.977500", "112447.177500", "112448.377500", "112449.577500", "112450.777500", "112451.977500", "112453.177500", "112454.377500", "112455.577500", "112456.777500", "112457.977500", "112459.177500", "112500.377500", "112501.577500", "112502.777500", "112503.977500", "112505.177500", "112506.377500", "112507.577500", "112508.777500", "112509.977500", "112511.177500", "112512.377500", "112513.577500", "112514.777500", "112515.977500", "112517.177500", "112518.377500", "112519.577500", "112520.777500", "112521.977500", "112523.177500", "112524.377500", "112525.577500", "112526.777500", "112527.977500", "112529.177500", "112530.377500", "112531.577500", "112532.777500", "112533.977500", "112535.177500", "112536.377500", "112537.577500", "112538.777500", "112539.977500", "112541.177500", "112542.377500", "112543.577500", "112544.777500", "112545.977500", "112547.177500", "112548.377500", "112549.577500", "112550.777500", "112551.977500", "112553.177500", "112554.377500", "112555.577500", "112556.777500", "112557.977500", "112559.177500", "112600.377500", "112601.577500", "112602.777500", "112603.977500", "112605.177500", "112606.377500", "112607.577500", "112608.777500", "112609.977500", "112611.177500", "112612.377500", "112613.577500", "112614.777500", "112615.977500", "112617.177500", "112618.377500", "112619.577500", "112620.777500", "112621.977500", "112623.177500", "112624.377500", "112625.577500", "112626.777500", "112627.977500", "112629.177500", "112630.377500", "112631.577500", "112632.777500", "112633.977500", "112635.177500", "112636.377500", "112637.577500", "112638.777500", "112639.977500", "112641.177500", "112642.377500", "112643.577500", "112644.777500", "112645.977500", "112647.177500", "112648.377500", "112649.577500", "112650.777500", "112651.977500", "112653.177500", "112654.377500", "112655.577500", "112656.777500", "112657.977500", "112659.177500", "112700.377500", "112701.577500", "112702.777500", "112703.977500", "112705.177500", "112706.377500", "112707.577500", "112708.777500", "112709.977500", "112711.177500", "112712.377500", "112713.577500", "112714.777500", "112715.977500", "112717.177500", "112718.377500", "112719.577500", "112720.777500", "112721.977500", "112723.177500", "112724.377500", "112725.577500", "112726.777500", "112727.977500", "112729.177500", "112730.377500", "112731.577500", "112732.777500", "112733.977500", "112735.177500", "112736.377500", "112737.577500", "112738.777500", "112739.977500", "112741.177500", "112742.377500", "112743.577500", "112744.777500", "112745.977500", "112747.177500", "112748.377500", "112749.577500", "112750.777500", "112751.977500", "112753.177500", "112754.377500", "112755.577500", "112756.777500", "112757.977500", "112759.177500", "112800.377500", "112801.577500", "112802.777500", "112803.977500", "112805.177500", "112806.377500", "112807.577500", "112808.777500", "112809.977500", "112811.177500", "112812.377500", "112813.577500", "112814.777500", "112815.977500", "112817.177500", "112818.377500", "112819.577500", "112820.777500", "112821.977500", "112823.177500", "112824.377500", "112825.577500", "112826.777500", "112827.977500", "112829.177500", "112830.377500", "112831.577500", "112832.777500", "112833.977500", "112835.177500", "112836.377500", "112837.577500", "112838.777500", "112839.977500", "112841.177500", "112842.377500", "112843.577500", "112844.777500", "112845.977500", "112847.177500"],
      "ContentTime": ["112131.919000", "112131.922000", "112131.925000", "112131.927000", "112131.930000", "112131.933000", "112131.945000", "112131.947000", "112131.954000", "112131.956000", "112131.959000", "112131.962000", "112131.964000", "112131.967000", "112131.969000", "112131.972000", "112131.974000", "112131.977000", "112131.980000", "112131.982000", "112131.985000", "112131.987000", "112131.990000", "112131.992000", "112131.995000", "112131.998000", "112132.015000", "112211.914000", "112211.917000", "112211.920000", "112211.923000", "112211.925000", "112211.928000", "112211.931000", "112211.933000", "112211.936000", "112211.938000", "112211.941000", "112211.944000", "112211.946000", "112211.949000", "112211.955000", "112211.957000", "112211.960000", "112211.962000", "112211.965000", "112211.967000", "112211.970000", "112211.972000", "112211.975000", "112211.978000", "112211.980000", "112211.983000", "112211.986000", "112211.988000", "112211.991000", "112211.993000", "112211.996000", "112212.000000", "112212.002000", "112212.005000", "112251.916000", "112251.918000", "112251.921000", "112251.924000", "112251.927000", "112251.929000", "112251.932000", "112251.934000", "112251.937000", "112251.940000", "112251.942000", "112251.945000", "112251.947000", "112251.950000", "112251.953000", "112251.956000", "112251.958000", "112251.961000", "112251.963000", "112251.966000", "112251.969000", "112251.971000", "112251.974000", "112251.976000", "112251.979000", "112251.981000", "112251.984000", "112251.987000", "112251.989000", "112251.992000", "112251.994000", "112251.997000", "112252.001000", "112331.916000", "112331.918000", "112331.921000", "112331.924000", "112331.926000", "112331.929000", "112331.931000", "112331.934000", "112331.937000", "112331.939000", "112331.942000", "112331.944000", "112331.947000", "112331.950000", "112331.953000", "112331.955000", "112331.958000", "112331.961000", "112331.963000", "112331.966000", "112331.968000", "112331.971000", "112331.973000", "112331.976000", "112331.979000", "112331.981000", "112331.984000", "112331.986000", "112331.989000", "112331.991000", "112331.994000", "112331.997000", "112332.000000", "112411.914000", "112411.917000", "112411.930000", "112411.932000", "112411.935000", "112411.937000", "112411.940000", "112411.943000", "112411.945000", "112411.948000", "112411.950000", "112411.953000", "112411.956000", "112411.958000", "112411.961000", "112411.963000", "112411.966000", "112411.969000", "112411.971000", "112411.974000", "112411.976000", "112411.979000", "112411.982000", "112411.984000", "112411.987000", "112411.989000", "112411.992000", "112411.994000", "112411.997000", "112412.001000", "112412.003000", "112412.006000", "112412.008000", "112412.011000", "112451.914000", "112451.917000", "112451.920000", "112451.923000", "112451.925000", "112451.928000", "112451.930000", "112451.933000", "112451.936000", "112451.938000", "112451.941000", "112451.943000", "112451.946000", "112451.949000", "112451.951000", "112451.954000", "112451.956000", "112451.959000", "112451.962000", "112451.964000", "112451.973000", "112451.976000", "112451.979000", "112451.981000", "112451.984000", "112451.986000", "112451.989000", "112451.992000", "112451.994000", "112451.997000", "112452.000000", "112452.003000", "112452.005000", "112531.916000", "112531.918000", "112531.921000", "112531.924000", "112531.926000", "112531.929000", "112531.931000", "112531.934000", "112531.936000", "112531.939000", "112531.942000", "112531.944000", "112531.947000", "112531.949000", "112531.952000", "112531.955000", "112531.957000", "112531.960000", "112531.963000", "112531.965000", "112531.973000", "112531.976000", "112531.978000", "112531.981000", "112531.983000", "112531.986000", "112531.989000", "112531.991000", "112531.994000", "112531.996000", "112532.000000", "112532.003000", "112532.005000", "112611.914000", "112611.917000", "112611.920000", "112611.929000", "112611.932000", "112611.934000", "112611.937000", "112611.940000", "112611.956000", "112611.965000", "112611.968000", "112611.971000", "112611.973000", "112611.976000", "112611.978000", "112611.981000", "112611.984000", "112611.986000", "112611.989000", "112611.992000", "112611.994000", "112611.997000", "112612.000000", "112612.003000", "112612.005000", "112612.008000", "112612.011000", "112612.013000", "112612.016000", "112612.018000", "112612.021000", "112612.024000", "112612.026000", "112612.029000", "112651.915000", "112651.918000", "112651.920000", "112651.923000", "112651.925000", "112651.928000", "112651.931000", "112651.933000", "112651.936000", "112651.938000", "112651.941000", "112651.944000", "112651.946000", "112651.949000", "112651.951000", "112651.954000", "112651.957000", "112651.959000", "112651.962000", "112651.964000", "112651.967000", "112651.969000", "112651.972000", "112651.975000", "112651.977000", "112651.980000", "112651.982000", "112651.985000", "112651.988000", "112651.990000", "112651.993000", "112651.995000", "112651.998000", "112731.916000", "112731.919000", "112731.921000", "112731.924000", "112731.926000", "112731.929000", "112731.931000", "112731.934000", "112731.937000", "112731.939000", "112731.942000", "112731.944000", "112731.947000", "112731.950000", "112731.952000", "112731.955000", "112731.958000", "112731.960000", "112731.963000", "112731.965000", "112731.968000", "112731.971000", "112731.973000", "112731.976000", "112731.979000", "112731.981000", "112731.984000", "112731.986000", "112731.989000", "112731.992000", "112731.994000", "112731.997000", "112732.000000", "112811.916000", "112811.918000", "112811.921000", "112811.923000", "112811.938000", "112811.941000", "112811.943000", "112811.946000", "112811.949000", "112811.951000", "112811.954000", "112811.956000", "112811.959000", "112811.962000", "112811.964000", "112811.967000", "112811.969000", "112811.972000", "112811.975000", "112811.977000", "112811.980000", "112811.982000", "112811.985000", "112811.988000", "112811.990000", "112811.993000", "112811.995000", "112811.998000", "112812.002000", "112812.004000", "112812.007000", "112812.009000", "112812.012000", "112812.014000", "112849.115000", "112849.118000", "112849.121000", "112849.123000", "112849.126000", "112849.129000", "112849.131000", "112849.134000", "112849.137000", "112849.139000", "112849.142000", "112849.144000", "112849.147000", "112849.150000", "112849.152000", "112849.155000", "112849.158000", "112849.160000", "112849.163000", "112849.166000", "112849.168000", "112849.171000", "112849.173000", "112849.176000", "112849.179000", "112849.181000", "112849.184000", "112849.187000", "112849.189000", "112849.195000", "112849.199000"],
      "InstanceCreationTime": ["112131.919000", "112131.922000", "112131.925000", "112131.927000", "112131.930000", "112131.933000", "112131.945000", "112131.947000", "112131.954000", "112131.956000", "112131.959000", "112131.962000", "112131.964000", "112131.967000", "112131.969000", "112131.972000", "112131.974000", "112131.977000", "112131.980000", "112131.982000", "112131.985000", "112131.987000", "112131.990000", "112131.992000", "112131.995000", "112131.998000", "112132.015000", "112211.914000", "112211.917000", "112211.920000", "112211.923000", "112211.925000", "112211.928000", "112211.931000", "112211.933000", "112211.936000", "112211.938000", "112211.941000", "112211.944000", "112211.946000", "112211.949000", "112211.955000", "112211.957000", "112211.960000", "112211.962000", "112211.965000", "112211.967000", "112211.970000", "112211.972000", "112211.975000", "112211.978000", "112211.980000", "112211.983000", "112211.986000", "112211.988000", "112211.991000", "112211.993000", "112211.996000", "112212.000000", "112212.002000", "112212.005000", "112251.916000", "112251.918000", "112251.921000", "112251.924000", "112251.927000", "112251.929000", "112251.932000", "112251.934000", "112251.937000", "112251.940000", "112251.942000", "112251.945000", "112251.947000", "112251.950000", "112251.953000", "112251.956000", "112251.958000", "112251.961000", "112251.963000", "112251.966000", "112251.969000", "112251.971000", "112251.974000", "112251.976000", "112251.979000", "112251.981000", "112251.984000", "112251.987000", "112251.989000", "112251.992000", "112251.994000", "112251.997000", "112252.001000", "112331.916000", "112331.918000", "112331.921000", "112331.924000", "112331.926000", "112331.929000", "112331.931000", "112331.934000", "112331.937000", "112331.939000", "112331.942000", "112331.944000", "112331.947000", "112331.950000", "112331.953000", "112331.955000", "112331.958000", "112331.961000", "112331.963000", "112331.966000", "112331.968000", "112331.971000", "112331.973000", "112331.976000", "112331.979000", "112331.981000", "112331.984000", "112331.986000", "112331.989000", "112331.991000", "112331.994000", "112331.997000", "112332.000000", "112411.914000", "112411.917000", "112411.930000", "112411.932000", "112411.935000", "112411.937000", "112411.940000", "112411.943000", "112411.945000", "112411.948000", "112411.950000", "112411.953000", "112411.956000", "112411.958000", "112411.961000", "112411.963000", "112411.966000", "112411.969000", "112411.971000", "112411.974000", "112411.976000", "112411.979000", "112411.982000", "112411.984000", "112411.987000", "112411.989000", "112411.992000", "112411.994000", "112411.997000", "112412.001000", "112412.003000", "112412.006000", "112412.008000", "112412.011000", "112451.914000", "112451.917000", "112451.920000", "112451.923000", "112451.925000", "112451.928000", "112451.930000", "112451.933000", "112451.936000", "112451.938000", "112451.941000", "112451.943000", "112451.946000", "112451.949000", "112451.951000", "112451.954000", "112451.956000", "112451.959000", "112451.962000", "112451.964000", "112451.973000", "112451.976000", "112451.979000", "112451.981000", "112451.984000", "112451.986000", "112451.989000", "112451.992000", "112451.994000", "112451.997000", "112452.000000", "112452.003000", "112452.005000", "112531.916000", "112531.918000", "112531.921000", "112531.924000", "112531.926000", "112531.929000", "112531.931000", "112531.934000", "112531.936000", "112531.939000", "112531.942000", "112531.944000", "112531.947000", "112531.949000", "112531.952000", "112531.955000", "112531.957000", "112531.960000", "112531.963000", "112531.965000", "112531.973000", "112531.976000", "112531.978000", "112531.981000", "112531.983000", "112531.986000", "112531.989000", "112531.991000", "112531.994000", "112531.996000", "112532.000000", "112532.003000", "112532.005000", "112611.914000", "112611.917000", "112611.920000", "112611.929000", "112611.932000", "112611.934000", "112611.937000", "112611.940000", "112611.956000", "112611.965000", "112611.968000", "112611.971000", "112611.973000", "112611.976000", "112611.978000", "112611.981000", "112611.984000", "112611.986000", "112611.989000", "112611.992000", "112611.994000", "112611.997000", "112612.000000", "112612.003000", "112612.005000", "112612.008000", "112612.011000", "112612.013000", "112612.016000", "112612.018000", "112612.021000", "112612.024000", "112612.026000", "112612.029000", "112651.915000", "112651.918000", "112651.920000", "112651.923000", "112651.925000", "112651.928000", "112651.931000", "112651.933000", "112651.936000", "112651.938000", "112651.941000", "112651.944000", "112651.946000", "112651.949000", "112651.951000", "112651.954000", "112651.957000", "112651.959000", "112651.962000", "112651.964000", "112651.967000", "112651.969000", "112651.972000", "112651.975000", "112651.977000", "112651.980000", "112651.982000", "112651.985000", "112651.988000", "112651.990000", "112651.993000", "112651.995000", "112651.998000", "112731.916000", "112731.919000", "112731.921000", "112731.924000", "112731.926000", "112731.929000", "112731.931000", "112731.934000", "112731.937000", "112731.939000", "112731.942000", "112731.944000", "112731.947000", "112731.950000", "112731.952000", "112731.955000", "112731.958000", "112731.960000", "112731.963000", "112731.965000", "112731.968000", "112731.971000", "112731.973000", "112731.976000", "112731.979000", "112731.981000", "112731.984000", "112731.986000", "112731.989000", "112731.992000", "112731.994000", "112731.997000", "112732.000000", "112811.916000", "112811.918000", "112811.921000", "112811.923000", "112811.938000", "112811.941000", "112811.943000", "112811.946000", "112811.949000", "112811.951000", "112811.954000", "112811.956000", "112811.959000", "112811.962000", "112811.964000", "112811.967000", "112811.969000", "112811.972000", "112811.975000", "112811.977000", "112811.980000", "112811.982000", "112811.985000", "112811.988000", "112811.990000", "112811.993000", "112811.995000", "112811.998000", "112812.002000", "112812.004000", "112812.007000", "112812.009000", "112812.012000", "112812.014000", "112849.115000", "112849.118000", "112849.121000", "112849.123000", "112849.126000", "112849.129000", "112849.131000", "112849.134000", "112849.137000", "112849.139000", "112849.142000", "112849.144000", "112849.147000", "112849.150000", "112849.152000", "112849.155000", "112849.158000", "112849.160000", "112849.163000", "112849.166000", "112849.168000", "112849.171000", "112849.173000", "112849.176000", "112849.179000", "112849.181000", "112849.184000", "112849.187000", "112849.189000", "112849.195000", "112849.199000"],
      "InstanceNumber": [1, 2, 3, 4, 5, 6, 7, 8, 9, 10, 11, 12, 13, 14, 15, 16, 17, 18, 19, 20, 21, 22, 23, 24, 25, 26, 27, 28, 29, 30, 31, 32, 33, 34, 35, 36, 37, 38, 39, 40, 41, 42, 43, 44, 45, 46, 47, 48, 49, 50, 51, 52, 53, 54, 55, 56, 57, 58, 59, 60, 61, 62, 63, 64, 65, 66, 67, 68, 69, 70, 71, 72, 73, 74, 75, 76, 77, 78, 79, 80, 81, 82, 83, 84, 85, 86, 87, 88, 89, 90, 91, 92, 93, 94, 95, 96, 97, 98, 99, 100, 101, 102, 103, 104, 105, 106, 107, 108, 109, 110, 111, 112, 113, 114, 115, 116, 117, 118, 119, 120, 121, 122, 123, 124, 125, 126, 127, 128, 129, 130, 131, 132, 133, 134, 135, 136, 137, 138, 139, 140, 141, 142, 143, 144, 145, 146, 147, 148, 149, 150, 151, 152, 153, 154, 155, 156, 157, 158, 159, 160, 161, 162, 163, 164, 165, 166, 167, 168, 169, 170, 171, 172, 173, 174, 175, 176, 177, 178, 179, 180, 181, 182, 183, 184, 185, 186, 187, 188, 189, 190, 191, 192, 193, 194, 195, 196, 197, 198, 199, 200, 201, 202, 203, 204, 205, 206, 207, 208, 209, 210, 211, 212, 213, 214, 215, 216, 217, 218, 219, 220, 221, 222, 223, 224, 225, 226, 227, 228, 229, 230, 231, 232, 233, 234, 235, 236, 237, 238, 239, 240, 241, 242, 243, 244, 245, 246, 247, 248, 249, 250, 251, 252, 253, 254, 255, 256, 257, 258, 259, 260, 261, 262, 263, 264, 265, 266, 267, 268, 269, 270, 271, 272, 273, 274, 275, 276, 277, 278, 279, 280, 281, 282, 283, 284, 285, 286, 287, 288, 289, 290, 291, 292, 293, 294, 295, 296, 297, 298, 299, 300, 301, 302, 303, 304, 305, 306, 307, 308, 309, 310, 311, 312, 313, 314, 315, 316, 317, 318, 319, 320, 321, 322, 323, 324, 325, 326, 327, 328, 329, 330, 331, 332, 333, 334, 335, 336, 337, 338, 339, 340, 341, 342, 343, 344, 345, 346, 347, 348, 349, 350, 351, 352, 353, 354, 355, 356, 357, 358, 359, 360, 361, 362, 363, 364, 365, 366, 367, 368, 369, 370, 371, 372, 373, 374, 375, 376, 377, 378, 379, 380, 381, 382, 383, 384, 385, 386, 387, 388, 389, 390, 391, 392],
