{
  "AcquisitionMatrixPE": 88,
  "AcquisitionNumber": 1,
  "AcquisitionTime": "11:32:51.070000",
  "BandwidthPerPixelPhaseEncode": 19.592,
  "BaseResolution": 88,
  "BodyPartExamined": "BRAIN",
  "ConsistencyInfo": "N4_VE11C_LATEST_20160120",
  "ConversionSoftware": "dcm2niix",
  "ConversionSoftwareVersion": "v1.0.20190902",
  "DerivedVendorReportedEchoSpacing": 0.000580014,
  "DeviceSerialNumber": "67050",
  "DwellTime": 2.6e-06,
  "EchoTime": 0.033,
  "EchoTrainLength": 88,
  "EffectiveEchoSpacing": 0.000580014,
  "FlipAngle": 62,
  "ImageOrientationPatientDICOM": [0.99137, -0.0233719, -0.128997, 0.0263063, 0.999431, 0.0210909],
  "ImageType": [
    "ORIGINAL",
    "PRIMARY",
    "M",
    "ND",
    "MOSAIC"
],
  "ImagingFrequency": 123.251,
  "InPlanePhaseEncodingDirectionDICOM": "COL",
  "InstitutionAddress": "Olive_Street_60_Providence_RI_US_02912",
  "InstitutionName": "BROWN_UNIVERSITY_MRF",
  "InstitutionalDepartmentName": "Department",
  "MRAcquisitionType": "2D",
  "MagneticFieldStrength": 3,
  "Manufacturer": "Siemens",
  "ManufacturersModelName": "Prisma_fit",
  "Modality": "MR",
  "MultibandAccelerationFactor": 4,
  "PartialFourier": 1,
  "PatientPosition": "HFS",
  "PercentPhaseFOV": 100,
  "PhaseEncodingDirection": "j-",
  "PhaseEncodingSteps": 88,
  "PhaseResolution": 1,
  "PixelBandwidth": 2185,
  "ProcedureStepDescription": "ASHENHAV_1222",
  "ProtocolName": "func-bold_task-RDMcolor_run-04",
  "PulseSequenceDetails": "%SiemensSeq%_ep2d_bold",
  "ReceiveCoilActiveElements": "HC1-7",
  "ReceiveCoilName": "HeadNeck_64",
  "ReconMatrixPE": 88,
  "RefLinesPE": 8,
  "RepetitionTime": 1.2,
  "SAR": 0.0550241,
  "ScanOptions": "FS",
  "ScanningSequence": "EP",
  "SequenceName": "_epfid2d1_88",
  "SequenceVariant": "SK",
  "SeriesDescription": "func-bold_task-RDMcolor_run-04",
  "SeriesNumber": 14,
  "ShimSetting": [1723, -9117, 4435, 490, 22, -188, -99, -23],
  "SliceThickness": 2.4,
  "SliceTiming": [0.55, 0, 0.63, 0.08, 0.7075, 0.1575, 0.7875, 0.235, 0.865, 0.315, 0.945, 0.3925, 1.0225, 0.4725, 1.1025, 0.55, 0, 0.63, 0.08, 0.7075, 0.1575, 0.7875, 0.235, 0.865, 0.315, 0.945, 0.3925, 1.0225, 0.4725, 1.1025, 0.55, 0, 0.63, 0.08, 0.7075, 0.1575, 0.7875, 0.235, 0.865, 0.315, 0.945, 0.3925, 1.0225, 0.4725, 1.1025, 0.55, 0, 0.63, 0.08, 0.7075, 0.1575, 0.7875, 0.235, 0.865, 0.315, 0.945, 0.3925, 1.0225, 0.4725, 1.1025],
  "SoftwareVersions": "syngo_MR_E11",
  "SpacingBetweenSlices": 2.4,
  "StationName": "AWP67050",
  "TaskName": "RDMcolor",
  "TotalReadoutTime": 0.0504612,
  "TxRefAmp": 215.627,
  "dcmmeta_affine": [
    [-2.3770337104797363, 0.06307527422904968, -0.30823373794555664, 104.931396484375],
    [0.056039370596408844, 2.3963639736175537, 0.058325450867414474, -107.56715393066406],
    [-0.30929961800575256, -0.05057014152407646, 2.3794095516204834, -30.331119537353516],
    [0.0, 0.0, 0.0, 1.0]
],
  "dcmmeta_reorient_transform": [
    [0.0, -1.0, 0.0, 87.0],
    [1.0, 0.0, 0.0, 0.0],
    [0.0, 0.0, 1.0, 0.0],
    [0.0, 0.0, 0.0, 1.0]
],
  "dcmmeta_shape": [88, 88, 60, 392],
  "dcmmeta_slice_dim": 2,
  "dcmmeta_version": 0.6,
  "global": {
    "const": {
      "AcquisitionMatrix": [88, 0, 0, 88],
      "AngioFlag": "N",
      "BitsAllocated": 16,
      "BitsStored": 12,
      "BodyPartExamined": "BRAIN",
      "Columns": 704,
      "DeidentificationMethodCodeSequence": [
        {
          "CodeMeaning": "XNAT DicomEdit 6 Script",
          "CodeValue": "3",
          "CodingSchemeDesignator": "XNAT",
          "CodingSchemeVersion": "1.0"}
],
      "EchoNumbers": 1,
      "EchoTime": 33.0,
      "EchoTrainLength": 88,
      "FlipAngle": 62.0,
      "HighBit": 11,
      "ImageOrientationPatient": [0.99136952244991, -0.0233718706033, -0.1289969984997, 0.02630627578245, 0.99943141598228, 0.02109086537136],
      "ImagePositionPatient": [-861.97251580996, -821.73647669354, 44.957956964073],
      "ImageType": [
        "ORIGINAL",
        "PRIMARY",
        "M",
        "ND",
        "MOSAIC"
],
      "ImagedNucleus": "1H",
      "ImagingFrequency": 123.250666,
      "InPlanePhaseEncodingDirection": "COL",
      "MRAcquisitionType": "2D",
      "MagneticFieldStrength": 3.0,
      "Manufacturer": "SIEMENS",
      "ManufacturerModelName": "Prisma_fit",
      "Modality": "MR",
      "NumberOfAverages": 1.0,
      "NumberOfPhaseEncodingSteps": 88,
      "PercentPhaseFieldOfView": 100.0,
      "PercentSampling": 100.0,
      "PerformedProcedureStepStartTime": "104127.933000",
      "PhotometricInterpretation": "MONOCHROME2",
      "PixelBandwidth": 2185.0,
      "PixelRepresentation": 0,
      "PixelSpacing": [2.3977272510529, 2.3977272510529],
      "ProtocolName": "func-bold_task-RDMcolor_run-04",
      "RepetitionTime": 1200.0,
      "Rows": 704,
      "SAR": 0.05502411895771,
      "SamplesPerPixel": 1,
      "ScanOptions": "FS",
      "ScanningSequence": "EP",
      "SequenceName": "*epfid2d1_88",
      "SequenceVariant": "SK",
      "SeriesDescription": "func-bold_task-RDMcolor_run-04",
      "SeriesNumber": 14,
      "SeriesTime": "113317.765000",
      "SliceLocation": -46.161439644074,
      "SliceThickness": 2.4000000953674,
      "SmallestImagePixelValue": 0,
      "SoftwareVersions": "syngo MR E11",
      "SpacingBetweenSlices": 2.3999999826302,
      "SpecificCharacterSet": "ISO_IR 100",
      "StudyID": "1",
      "StudyTime": "104127.873000",
      "TransmitCoilName": "Body",
      "VariableFlipAngleFlag": "N",
      "WindowCenterWidthExplanation": "Algo1",
      "dBdt": 0.0},
    "slices": {}
  },
  "time": {
    "samples": {
      "AcquisitionNumber": [1, 2, 3, 4, 5, 6, 7, 8, 9, 10, 11, 12, 13, 14, 15, 16, 17, 18, 19, 20, 21, 22, 23, 24, 25, 26, 27, 28, 29, 30, 31, 32, 33, 34, 35, 36, 37, 38, 39, 40, 41, 42, 43, 44, 45, 46, 47, 48, 49, 50, 51, 52, 53, 54, 55, 56, 57, 58, 59, 60, 61, 62, 63, 64, 65, 66, 67, 68, 69, 70, 71, 72, 73, 74, 75, 76, 77, 78, 79, 80, 81, 82, 83, 84, 85, 86, 87, 88, 89, 90, 91, 92, 93, 94, 95, 96, 97, 98, 99, 100, 101, 102, 103, 104, 105, 106, 107, 108, 109, 110, 111, 112, 113, 114, 115, 116, 117, 118, 119, 120, 121, 122, 123, 124, 125, 126, 127, 128, 129, 130, 131, 132, 133, 134, 135, 136, 137, 138, 139, 140, 141, 142, 143, 144, 145, 146, 147, 148, 149, 150, 151, 152, 153, 154, 155, 156, 157, 158, 159, 160, 161, 162, 163, 164, 165, 166, 167, 168, 169, 170, 171, 172, 173, 174, 175, 176, 177, 178, 179, 180, 181, 182, 183, 184, 185, 186, 187, 188, 189, 190, 191, 192, 193, 194, 195, 196, 197, 198, 199, 200, 201, 202, 203, 204, 205, 206, 207, 208, 209, 210, 211, 212, 213, 214, 215, 216, 217, 218, 219, 220, 221, 222, 223, 224, 225, 226, 227, 228, 229, 230, 231, 232, 233, 234, 235, 236, 237, 238, 239, 240, 241, 242, 243, 244, 245, 246, 247, 248, 249, 250, 251, 252, 253, 254, 255, 256, 257, 258, 259, 260, 261, 262, 263, 264, 265, 266, 267, 268, 269, 270, 271, 272, 273, 274, 275, 276, 277, 278, 279, 280, 281, 282, 283, 284, 285, 286, 287, 288, 289, 290, 291, 292, 293, 294, 295, 296, 297, 298, 299, 300, 301, 302, 303, 304, 305, 306, 307, 308, 309, 310, 311, 312, 313, 314, 315, 316, 317, 318, 319, 320, 321, 322, 323, 324, 325, 326, 327, 328, 329, 330, 331, 332, 333, 334, 335, 336, 337, 338, 339, 340, 341, 342, 343, 344, 345, 346, 347, 348, 349, 350, 351, 352, 353, 354, 355, 356, 357, 358, 359, 360, 361, 362, 363, 364, 365, 366, 367, 368, 369, 370, 371, 372, 373, 374, 375, 376, 377, 378, 379, 380, 381, 382, 383, 384, 385, 386, 387, 388, 389, 390, 391, 392],
      "AcquisitionTime": ["113251.070000", "113252.270000", "113253.470000", "113254.670000", "113255.870000", "113257.070000", "113258.270000", "113259.470000", "113300.670000", "113301.870000", "113303.070000", "113304.270000", "113305.470000", "113306.670000", "113307.870000", "113309.070000", "113310.270000", "113311.470000", "113312.670000", "113313.870000", "113315.070000", "113316.270000", "113317.470000", "113318.670000", "113319.870000", "113321.070000", "113322.270000", "113323.470000", "113324.670000", "113325.870000", "113327.070000", "113328.270000", "113329.470000", "113330.670000", "113331.870000", "113333.070000", "113334.270000", "113335.470000", "113336.670000", "113337.870000", "113339.070000", "113340.270000", "113341.470000", "113342.670000", "113343.870000", "113345.070000", "113346.270000", "113347.470000", "113348.670000", "113349.870000", "113351.070000", "113352.270000", "113353.470000", "113354.670000", "113355.870000", "113357.070000", "113358.270000", "113359.470000", "113400.670000", "113401.870000", "113403.070000", "113404.270000", "113405.470000", "113406.670000", "113407.870000", "113409.070000", "113410.270000", "113411.470000", "113412.670000", "113413.870000", "113415.070000", "113416.270000", "113417.470000", "113418.670000", "113419.870000", "113421.070000", "113422.270000", "113423.470000", "113424.670000", "113425.870000", "113427.070000", "113428.270000", "113429.470000", "113430.670000", "113431.870000", "113433.070000", "113434.270000", "113435.470000", "113436.670000", "113437.870000", "113439.070000", "113440.270000", "113441.470000", "113442.670000", "113443.870000", "113445.070000", "113446.270000", "113447.470000", "113448.670000", "113449.870000", "113451.070000", "113452.270000", "113453.470000", "113454.670000", "113455.870000", "113457.070000", "113458.270000", "113459.470000", "113500.670000", "113501.870000", "113503.070000", "113504.270000", "113505.470000", "113506.670000", "113507.870000", "113509.070000", "113510.270000", "113511.470000", "113512.670000", "113513.870000", "113515.070000", "113516.270000", "113517.470000", "113518.670000", "113519.870000", "113521.070000", "113522.270000", "113523.470000", "113524.670000", "113525.870000", "113527.070000", "113528.270000", "113529.470000", "113530.670000", "113531.870000", "113533.070000", "113534.270000", "113535.470000", "113536.670000", "113537.870000", "113539.070000", "113540.270000", "113541.470000", "113542.670000", "113543.870000", "113545.070000", "113546.270000", "113547.470000", "113548.670000", "113549.870000", "113551.070000", "113552.270000", "113553.470000", "113554.670000", "113555.870000", "113557.070000", "113558.270000", "113559.470000", "113600.670000", "113601.870000", "113603.070000", "113604.270000", "113605.470000", "113606.670000", "113607.870000", "113609.070000", "113610.270000", "113611.470000", "113612.670000", "113613.870000", "113615.070000", "113616.270000", "113617.470000", "113618.670000", "113619.870000", "113621.070000", "113622.270000", "113623.470000", "113624.670000", "113625.870000", "113627.070000", "113628.270000", "113629.470000", "113630.670000", "113631.870000", "113633.070000", "113634.270000", "113635.470000", "113636.670000", "113637.870000", "113639.070000", "113640.270000", "113641.470000", "113642.670000", "113643.870000", "113645.070000", "113646.270000", "113647.470000", "113648.670000", "113649.870000", "113651.070000", "113652.270000", "113653.470000", "113654.670000", "113655.870000", "113657.070000", "113658.270000", "113659.470000", "113700.670000", "113701.870000", "113703.070000", "113704.270000", "113705.470000", "113706.670000", "113707.870000", "113709.070000", "113710.270000", "113711.470000", "113712.670000", "113713.870000", "113715.070000", "113716.270000", "113717.470000", "113718.670000", "113719.870000", "113721.070000", "113722.270000", "113723.470000", "113724.670000", "113725.870000", "113727.070000", "113728.270000", "113729.470000", "113730.670000", "113731.870000", "113733.070000", "113734.270000", "113735.470000", "113736.670000", "113737.870000", "113739.070000", "113740.270000", "113741.470000", "113742.670000", "113743.870000", "113745.070000", "113746.270000", "113747.470000", "113748.670000", "113749.870000", "113751.070000", "113752.270000", "113753.470000", "113754.670000", "113755.870000", "113757.070000", "113758.270000", "113759.470000", "113800.670000", "113801.870000", "113803.070000", "113804.270000", "113805.470000", "113806.670000", "113807.870000", "113809.070000", "113810.270000", "113811.470000", "113812.670000", "113813.870000", "113815.070000", "113816.270000", "113817.470000", "113818.670000", "113819.870000", "113821.070000", "113822.270000", "113823.470000", "113824.670000", "113825.870000", "113827.070000", "113828.270000", "113829.470000", "113830.670000", "113831.870000", "113833.070000", "113834.270000", "113835.470000", "113836.670000", "113837.870000", "113839.070000", "113840.270000", "113841.470000", "113842.670000", "113843.870000", "113845.070000", "113846.270000", "113847.470000", "113848.670000", "113849.870000", "113851.070000", "113852.270000", "113853.470000", "113854.670000", "113855.870000", "113857.070000", "113858.270000", "113859.470000", "113900.670000", "113901.870000", "113903.070000", "113904.270000", "113905.470000", "113906.670000", "113907.870000", "113909.070000", "113910.270000", "113911.470000", "113912.670000", "113913.870000", "113915.070000", "113916.270000", "113917.470000", "113918.670000", "113919.870000", "113921.070000", "113922.270000", "113923.470000", "113924.670000", "113925.870000", "113927.070000", "113928.270000", "113929.470000", "113930.670000", "113931.870000", "113933.070000", "113934.270000", "113935.470000", "113936.670000", "113937.870000", "113939.070000", "113940.270000", "113941.470000", "113942.670000", "113943.870000", "113945.070000", "113946.270000", "113947.470000", "113948.670000", "113949.870000", "113951.070000", "113952.270000", "113953.470000", "113954.670000", "113955.870000", "113957.070000", "113958.270000", "113959.470000", "114000.670000", "114001.870000", "114003.070000", "114004.270000", "114005.470000", "114006.670000", "114007.870000", "114009.070000", "114010.270000", "114011.470000", "114012.670000", "114013.870000", "114015.070000", "114016.270000", "114017.470000", "114018.670000", "114019.870000", "114021.070000", "114022.270000", "114023.470000", "114024.670000", "114025.870000", "114027.070000", "114028.270000", "114029.470000", "114030.670000", "114031.870000", "114033.070000", "114034.270000", "114035.470000", "114036.670000", "114037.870000", "114039.070000", "114040.270000"],
      "ContentTime": ["113317.769000", "113317.772000", "113317.775000", "113317.777000", "113317.780000", "113317.782000", "113317.785000", "113317.788000", "113317.790000", "113317.793000", "113317.795000", "113317.807000", "113317.810000", "113317.813000", "113317.816000", "113317.818000", "113317.821000", "113317.823000", "113317.826000", "113317.828000", "113317.831000", "113317.834000", "113357.764000", "113357.767000", "113357.770000", "113357.772000", "113357.775000", "113357.778000", "113357.780000", "113357.783000", "113357.786000", "113357.788000", "113357.791000", "113357.793000", "113357.796000", "113357.799000", "113357.801000", "113357.804000", "113357.806000", "113357.809000", "113357.817000", "113357.820000", "113357.822000", "113357.825000", "113357.827000", "113357.830000", "113357.833000", "113357.835000", "113357.838000", "113357.840000", "113357.843000", "113357.846000", "113357.848000", "113357.851000", "113357.858000", "113437.764000", "113437.767000", "113437.770000", "113437.772000", "113437.775000", "113437.777000", "113437.780000", "113437.782000", "113437.785000", "113437.788000", "113437.790000", "113437.793000", "113437.795000", "113437.798000", "113437.800000", "113437.803000", "113437.806000", "113437.808000", "113437.811000", "113437.813000", "113437.816000", "113437.819000", "113437.821000", "113437.841000", "113437.844000", "113437.847000", "113437.849000", "113437.852000", "113437.855000", "113437.864000", "113437.867000", "113437.870000", "113437.872000", "113517.764000", "113517.767000", "113517.770000", "113517.773000", "113517.775000", "113517.778000", "113517.781000", "113517.783000", "113517.786000", "113517.789000", "113517.791000", "113517.794000", "113517.797000", "113517.799000", "113517.802000", "113517.804000", "113517.810000", "113517.812000", "113517.815000", "113517.817000", "113517.820000", "113517.823000", "113517.825000", "113517.828000", "113517.830000", "113517.833000", "113517.836000", "113517.839000", "113517.841000", "113517.844000", "113517.847000", "113517.849000", "113517.852000", "113517.854000", "113557.765000", "113557.768000", "113557.771000", "113557.773000", "113557.776000", "113557.779000", "113557.781000", "113557.784000", "113557.787000", "113557.789000", "113557.792000", "113557.795000", "113557.797000", "113557.800000", "113557.803000", "113557.805000", "113557.808000", "113557.810000", "113557.813000", "113557.816000", "113557.818000", "113557.821000", "113557.824000", "113557.826000", "113557.829000", "113557.831000", "113557.834000", "113557.836000", "113557.839000", "113557.842000", "113557.844000", "113557.847000", "113557.849000", "113637.764000", "113637.767000", "113637.770000", "113637.773000", "113637.775000", "113637.778000", "113637.780000", "113637.783000", "113637.786000", "113637.788000", "113637.791000", "113637.794000", "113637.796000", "113637.799000", "113637.802000", "113637.804000", "113637.807000", "113637.809000", "113637.812000", "113637.815000", "113637.817000", "113637.820000", "113637.822000", "113637.825000", "113637.827000", "113637.830000", "113637.833000", "113637.835000", "113637.838000", "113637.841000", "113637.843000", "113637.846000", "113637.848000", "113717.765000", "113717.767000", "113717.770000", "113717.773000", "113717.775000", "113717.778000", "113717.781000", "113717.783000", "113717.786000", "113717.788000", "113717.791000", "113717.794000", "113717.796000", "113717.799000", "113717.802000", "113717.804000", "113717.807000", "113717.809000", "113717.812000", "113717.815000", "113717.817000", "113717.820000", "113717.823000", "113717.825000", "113717.828000", "113717.830000", "113717.833000", "113717.836000", "113717.838000", "113717.841000", "113717.843000", "113717.846000", "113717.849000", "113717.851000", "113757.765000", "113757.768000", "113757.770000", "113757.773000", "113757.775000", "113757.778000", "113757.781000", "113757.783000", "113757.786000", "113757.789000", "113757.791000", "113757.794000", "113757.797000", "113757.799000", "113757.802000", "113757.805000", "113757.807000", "113757.810000", "113757.812000", "113757.815000", "113757.818000", "113757.820000", "113757.823000", "113757.825000", "113757.828000", "113757.830000", "113757.833000", "113757.836000", "113757.838000", "113757.841000", "113757.844000", "113757.846000", "113757.849000", "113837.765000", "113837.768000", "113837.770000", "113837.773000", "113837.775000", "113837.778000", "113837.781000", "113837.783000", "113837.786000", "113837.789000", "113837.791000", "113837.794000", "113837.796000", "113837.799000", "113837.802000", "113837.804000", "113837.807000", "113837.810000", "113837.812000", "113837.815000", "113837.836000", "113837.839000", "113837.841000", "113837.844000", "113837.847000", "113837.849000", "113837.852000", "113837.854000", "113837.857000", "113837.859000", "113837.862000", "113837.865000", "113837.867000", "113917.764000", "113917.767000", "113917.770000", "113917.773000", "113917.775000", "113917.778000", "113917.780000", "113917.783000", "113917.786000", "113917.788000", "113917.791000", "113917.793000", "113917.796000", "113917.799000", "113917.801000", "113917.804000", "113917.807000", "113917.809000", "113917.812000", "113917.814000", "113917.817000", "113917.820000", "113917.822000", "113917.825000", "113917.827000", "113917.830000", "113917.833000", "113917.835000", "113917.838000", "113917.840000", "113917.843000", "113917.846000", "113917.848000", "113917.851000", "113957.765000", "113957.767000", "113957.770000", "113957.773000", "113957.775000", "113957.778000", "113957.781000", "113957.783000", "113957.786000", "113957.788000", "113957.791000", "113957.794000", "113957.797000", "113957.799000", "113957.802000", "113957.804000", "113957.807000", "113957.810000", "113957.812000", "113957.815000", "113957.817000", "113957.820000", "113957.823000", "113957.825000", "113957.828000", "113957.830000", "113957.833000", "113957.836000", "113957.838000", "113957.841000", "113957.843000", "113957.846000", "113957.849000", "114037.766000", "114037.768000", "114037.771000", "114037.774000", "114037.777000", "114037.779000", "114037.782000", "114037.784000", "114037.787000", "114037.790000", "114037.792000", "114037.795000", "114037.798000", "114037.800000", "114037.803000", "114037.805000", "114037.808000", "114037.811000", "114037.813000", "114037.816000", "114037.819000", "114037.821000", "114037.824000", "114037.826000", "114037.829000", "114037.832000", "114037.834000", "114037.837000", "114037.840000", "114037.842000", "114037.845000", "114037.847000", "114037.850000", "114041.634000", "114041.637000", "114041.639000", "114041.642000"],
      "InstanceCreationTime": ["113317.769000", "113317.772000", "113317.775000", "113317.777000", "113317.780000", "113317.782000", "113317.785000", "113317.788000", "113317.790000", "113317.793000", "113317.795000", "113317.807000", "113317.810000", "113317.813000", "113317.816000", "113317.818000", "113317.821000", "113317.823000", "113317.826000", "113317.828000", "113317.831000", "113317.834000", "113357.764000", "113357.767000", "113357.770000", "113357.772000", "113357.775000", "113357.778000", "113357.780000", "113357.783000", "113357.786000", "113357.788000", "113357.791000", "113357.793000", "113357.796000", "113357.799000", "113357.801000", "113357.804000", "113357.806000", "113357.809000", "113357.817000", "113357.820000", "113357.822000", "113357.825000", "113357.827000", "113357.830000", "113357.833000", "113357.835000", "113357.838000", "113357.840000", "113357.843000", "113357.846000", "113357.848000", "113357.851000", "113357.858000", "113437.764000", "113437.767000", "113437.770000", "113437.772000", "113437.775000", "113437.777000", "113437.780000", "113437.782000", "113437.785000", "113437.788000", "113437.790000", "113437.793000", "113437.795000", "113437.798000", "113437.800000", "113437.803000", "113437.806000", "113437.808000", "113437.811000", "113437.813000", "113437.816000", "113437.819000", "113437.821000", "113437.841000", "113437.844000", "113437.847000", "113437.849000", "113437.852000", "113437.855000", "113437.864000", "113437.867000", "113437.870000", "113437.872000", "113517.764000", "113517.767000", "113517.770000", "113517.773000", "113517.775000", "113517.778000", "113517.781000", "113517.783000", "113517.786000", "113517.789000", "113517.791000", "113517.794000", "113517.797000", "113517.799000", "113517.802000", "113517.804000", "113517.810000", "113517.812000", "113517.815000", "113517.817000", "113517.820000", "113517.823000", "113517.825000", "113517.828000", "113517.830000", "113517.833000", "113517.836000", "113517.839000", "113517.841000", "113517.844000", "113517.847000", "113517.849000", "113517.852000", "113517.854000", "113557.765000", "113557.768000", "113557.771000", "113557.773000", "113557.776000", "113557.779000", "113557.781000", "113557.784000", "113557.787000", "113557.789000", "113557.792000", "113557.795000", "113557.797000", "113557.800000", "113557.803000", "113557.805000", "113557.808000", "113557.810000", "113557.813000", "113557.816000", "113557.818000", "113557.821000", "113557.824000", "113557.826000", "113557.829000", "113557.831000", "113557.834000", "113557.836000", "113557.839000", "113557.842000", "113557.844000", "113557.847000", "113557.849000", "113637.764000", "113637.767000", "113637.770000", "113637.773000", "113637.775000", "113637.778000", "113637.780000", "113637.783000", "113637.786000", "113637.788000", "113637.791000", "113637.794000", "113637.796000", "113637.799000", "113637.802000", "113637.804000", "113637.807000", "113637.809000", "113637.812000", "113637.815000", "113637.817000", "113637.820000", "113637.822000", "113637.825000", "113637.827000", "113637.830000", "113637.833000", "113637.835000", "113637.838000", "113637.841000", "113637.843000", "113637.846000", "113637.848000", "113717.765000", "113717.767000", "113717.770000", "113717.773000", "113717.775000", "113717.778000", "113717.781000", "113717.783000", "113717.786000", "113717.788000", "113717.791000", "113717.794000", "113717.796000", "113717.799000", "113717.802000", "113717.804000", "113717.807000", "113717.809000", "113717.812000", "113717.815000", "113717.817000", "113717.820000", "113717.823000", "113717.825000", "113717.828000", "113717.830000", "113717.833000", "113717.836000", "113717.838000", "113717.841000", "113717.843000", "113717.846000", "113717.849000", "113717.851000", "113757.765000", "113757.768000", "113757.770000", "113757.773000", "113757.775000", "113757.778000", "113757.781000", "113757.783000", "113757.786000", "113757.789000", "113757.791000", "113757.794000", "113757.797000", "113757.799000", "113757.802000", "113757.805000", "113757.807000", "113757.810000", "113757.812000", "113757.815000", "113757.818000", "113757.820000", "113757.823000", "113757.825000", "113757.828000", "113757.830000", "113757.833000", "113757.836000", "113757.838000", "113757.841000", "113757.844000", "113757.846000", "113757.849000", "113837.765000", "113837.768000", "113837.770000", "113837.773000", "113837.775000", "113837.778000", "113837.781000", "113837.783000", "113837.786000", "113837.789000", "113837.791000", "113837.794000", "113837.796000", "113837.799000", "113837.802000", "113837.804000", "113837.807000", "113837.810000", "113837.812000", "113837.815000", "113837.836000", "113837.839000", "113837.841000", "113837.844000", "113837.847000", "113837.849000", "113837.852000", "113837.854000", "113837.857000", "113837.859000", "113837.862000", "113837.865000", "113837.867000", "113917.764000", "113917.767000", "113917.770000", "113917.773000", "113917.775000", "113917.778000", "113917.780000", "113917.783000", "113917.786000", "113917.788000", "113917.791000", "113917.793000", "113917.796000", "113917.799000", "113917.801000", "113917.804000", "113917.807000", "113917.809000", "113917.812000", "113917.814000", "113917.817000", "113917.820000", "113917.822000", "113917.825000", "113917.827000", "113917.830000", "113917.833000", "113917.835000", "113917.838000", "113917.840000", "113917.843000", "113917.846000", "113917.848000", "113917.851000", "113957.765000", "113957.767000", "113957.770000", "113957.773000", "113957.775000", "113957.778000", "113957.781000", "113957.783000", "113957.786000", "113957.788000", "113957.791000", "113957.794000", "113957.797000", "113957.799000", "113957.802000", "113957.804000", "113957.807000", "113957.810000", "113957.812000", "113957.815000", "113957.817000", "113957.820000", "113957.823000", "113957.825000", "113957.828000", "113957.830000", "113957.833000", "113957.836000", "113957.838000", "113957.841000", "113957.843000", "113957.846000", "113957.849000", "114037.766000", "114037.768000", "114037.771000", "114037.774000", "114037.777000", "114037.779000", "114037.782000", "114037.784000", "114037.787000", "114037.790000", "114037.792000", "114037.795000", "114037.798000", "114037.800000", "114037.803000", "114037.805000", "114037.808000", "114037.811000", "114037.813000", "114037.816000", "114037.819000", "114037.821000", "114037.824000", "114037.826000", "114037.829000", "114037.832000", "114037.834000", "114037.837000", "114037.840000", "114037.842000", "114037.845000", "114037.847000", "114037.850000", "114041.634000", "114041.637000", "114041.639000", "114041.642000"],
      "InstanceNumber": [1, 2, 3, 4, 5, 6, 7, 8, 9, 10, 11, 12, 13, 14, 15, 16, 17, 18, 19, 20, 21, 22, 23, 24, 25, 26, 27, 28, 29, 30, 31, 32, 33, 34, 35, 36, 37, 38, 39, 40, 41, 42, 43, 44, 45, 46, 47, 48, 49, 50, 51, 52, 53, 54, 55, 56, 57, 58, 59, 60, 61, 62, 63, 64, 65, 66, 67, 68, 69, 70, 71, 72, 73, 74, 75, 76, 77, 78, 79, 80, 81, 82, 83, 84, 85, 86, 87, 88, 89, 90, 91, 92, 93, 94, 95, 96, 97, 98, 99, 100, 101, 102, 103, 104, 105, 106, 107, 108, 109, 110, 111, 112, 113, 114, 115, 116, 117, 118, 119, 120, 121, 122, 123, 124, 125, 126, 127, 128, 129, 130, 131, 132, 133, 134, 135, 136, 137, 138, 139, 140, 141, 142, 143, 144, 145, 146, 147, 148, 149, 150, 151, 152, 153, 154, 155, 156, 157, 158, 159, 160, 161, 162, 163, 164, 165, 166, 167, 168, 169, 170, 171, 172, 173, 174, 175, 176, 177, 178, 179, 180, 181, 182, 183, 184, 185, 186, 187, 188, 189, 190, 191, 192, 193, 194, 195, 196, 197, 198, 199, 200, 201, 202, 203, 204, 205, 206, 207, 208, 209, 210, 211, 212, 213, 214, 215, 216, 217, 218, 219, 220, 221, 222, 223, 224, 225, 226, 227, 228, 229, 230, 231, 232, 233, 234, 235, 236, 237, 238, 239, 240, 241, 242, 243, 244, 245, 246, 247, 248, 249, 250, 251, 252, 253, 254, 255, 256, 257, 258, 259, 260, 261, 262, 263, 264, 265, 266, 267, 268, 269, 270, 271, 272, 273, 274, 275, 276, 277, 278, 279, 280, 281, 282, 283, 284, 285, 286, 287, 288, 289, 290, 291, 292, 293, 294, 295, 296, 297, 298, 299, 300, 301, 302, 303, 304, 305, 306, 307, 308, 309, 310, 311, 312, 313, 314, 315, 316, 317, 318, 319, 320, 321, 322, 323, 324, 325, 326, 327, 328, 329, 330, 331, 332, 333, 334, 335, 336, 337, 338, 339, 340, 341, 342, 343, 344, 345, 346, 347, 348, 349, 350, 351, 352, 353, 354, 355, 356, 357, 358, 359, 360, 361, 362, 363, 364, 365, 366, 367, 368, 369, 370, 371, 372, 373, 374, 375, 376, 377, 378, 379, 380, 381, 382, 383, 384, 385, 386, 387, 388, 389, 390, 391, 392],
