{
  "AcquisitionMatrixPE": 88,
  "AcquisitionNumber": 1,
  "AcquisitionTime": "10:54:37.952500",
  "BandwidthPerPixelPhaseEncode": 19.592,
  "BaseResolution": 88,
  "BodyPartExamined": "BRAIN",
  "ConsistencyInfo": "N4_VE11C_LATEST_20160120",
  "ConversionSoftware": "dcm2niix",
  "ConversionSoftwareVersion": "v1.0.20190902",
  "DerivedVendorReportedEchoSpacing": 0.000580014,
  "DeviceSerialNumber": "67050",
  "DwellTime": 2.6e-06,
  "EchoTime": 0.033,
  "EchoTrainLength": 88,
  "EffectiveEchoSpacing": 0.000580014,
  "FlipAngle": 62,
  "ImageOrientationPatientDICOM": [0.99137, -0.0233719, -0.128997, 0.0263063, 0.999431, 0.0210909],
  "ImageType": [
    "ORIGINAL",
    "PRIMARY",
    "M",
    "ND",
    "MOSAIC"
],
  "ImagingFrequency": 123.251,
  "InPlanePhaseEncodingDirectionDICOM": "COL",
  "InstitutionAddress": "Olive_Street_60_Providence_RI_US_02912",
  "InstitutionName": "BROWN_UNIVERSITY_MRF",
  "InstitutionalDepartmentName": "Department",
  "MRAcquisitionType": "2D",
  "MagneticFieldStrength": 3,
  "Manufacturer": "Siemens",
  "ManufacturersModelName": "Prisma_fit",
  "Modality": "MR",
  "MultibandAccelerationFactor": 4,
  "PartialFourier": 1,
  "PatientPosition": "HFS",
  "PercentPhaseFOV": 100,
  "PhaseEncodingDirection": "j-",
  "PhaseEncodingSteps": 88,
  "PhaseResolution": 1,
  "PixelBandwidth": 2185,
  "ProcedureStepDescription": "ASHENHAV_1222",
  "ProtocolName": "func-bold_task-RDMmotion_run-01",
  "PulseSequenceDetails": "%SiemensSeq%_ep2d_bold",
  "ReceiveCoilActiveElements": "HC1-7",
  "ReceiveCoilName": "HeadNeck_64",
  "ReconMatrixPE": 88,
  "RefLinesPE": 8,
  "RepetitionTime": 1.2,
  "SAR": 0.0544656,
  "ScanOptions": "FS",
  "ScanningSequence": "EP",
  "SequenceName": "_epfid2d1_88",
  "SequenceVariant": "SK",
  "SeriesDescription": "func-bold_task-RDMmotion_run-01",
  "SeriesNumber": 7,
  "ShimSetting": [1723, -9117, 4435, 490, 22, -188, -99, -23],
  "SliceThickness": 2.4,
  "SliceTiming": [0.55, 0, 0.6275, 0.0775, 0.7075, 0.1575, 0.785, 0.235, 0.865, 0.3125, 0.9425, 0.3925, 1.0225, 0.47, 1.1, 0.55, 0, 0.6275, 0.0775, 0.7075, 0.1575, 0.785, 0.235, 0.865, 0.3125, 0.9425, 0.3925, 1.0225, 0.47, 1.1, 0.55, 0, 0.6275, 0.0775, 0.7075, 0.1575, 0.785, 0.235, 0.865, 0.3125, 0.9425, 0.3925, 1.0225, 0.47, 1.1, 0.55, 0, 0.6275, 0.0775, 0.7075, 0.1575, 0.785, 0.235, 0.865, 0.3125, 0.9425, 0.3925, 1.0225, 0.47, 1.1],
  "SoftwareVersions": "syngo_MR_E11",
  "SpacingBetweenSlices": 2.4,
  "StationName": "AWP67050",
  "TaskName": "RDMmotion",
  "TotalReadoutTime": 0.0504612,
  "TxRefAmp": 215.627,
  "dcmmeta_affine": [
    [-2.3770337104797363, 0.06307527422904968, -0.30823373794555664, 104.931396484375],
    [0.056039370596408844, 2.3963639736175537, 0.058325450867414474, -107.56715393066406],
    [-0.30929961800575256, -0.05057014152407646, 2.3794095516204834, -30.331119537353516],
    [0.0, 0.0, 0.0, 1.0]
],
  "dcmmeta_reorient_transform": [
    [0.0, -1.0, 0.0, 87.0],
    [1.0, 0.0, 0.0, 0.0],
    [0.0, 0.0, 1.0, 0.0],
    [0.0, 0.0, 0.0, 1.0]
],
  "dcmmeta_shape": [88, 88, 60, 125],
  "dcmmeta_slice_dim": 2,
  "dcmmeta_version": 0.6,
  "global": {
    "const": {
      "AcquisitionMatrix": [88, 0, 0, 88],
      "AngioFlag": "N",
      "BitsAllocated": 16,
      "BitsStored": 12,
      "BodyPartExamined": "BRAIN",
      "Columns": 704,
      "DeidentificationMethodCodeSequence": [
        {
          "CodeMeaning": "XNAT DicomEdit 6 Script",
          "CodeValue": "3",
          "CodingSchemeDesignator": "XNAT",
          "CodingSchemeVersion": "1.0"}
],
      "EchoNumbers": 1,
      "EchoTime": 33.0,
      "EchoTrainLength": 88,
      "FlipAngle": 62.0,
      "HighBit": 11,
      "ImageOrientationPatient": [0.99136952244991, -0.0233718706033, -0.1289969984997, 0.02630627578245, 0.99943141598228, 0.02109086537136],
      "ImagePositionPatient": [-861.97251580996, -821.73647669354, 44.957956964073],
      "ImageType": [
        "ORIGINAL",
        "PRIMARY",
        "M",
        "ND",
        "MOSAIC"
],
      "ImagedNucleus": "1H",
      "ImagingFrequency": 123.250659,
      "InPlanePhaseEncodingDirection": "COL",
      "MRAcquisitionType": "2D",
      "MagneticFieldStrength": 3.0,
      "Manufacturer": "SIEMENS",
      "ManufacturerModelName": "Prisma_fit",
      "Modality": "MR",
      "NumberOfAverages": 1.0,
      "NumberOfPhaseEncodingSteps": 88,
      "PercentPhaseFieldOfView": 100.0,
      "PercentSampling": 100.0,
      "PerformedProcedureStepStartTime": "104127.933000",
      "PhotometricInterpretation": "MONOCHROME2",
      "PixelBandwidth": 2185.0,
      "PixelRepresentation": 0,
      "PixelSpacing": [2.3977272510529, 2.3977272510529],
      "ProtocolName": "func-bold_task-RDMmotion_run-01",
      "RepetitionTime": 1200.0,
      "Rows": 704,
      "SAR": 0.05446560077108,
      "SamplesPerPixel": 1,
      "ScanOptions": "FS",
      "ScanningSequence": "EP",
      "SequenceName": "*epfid2d1_88",
      "SequenceVariant": "SK",
      "SeriesDescription": "func-bold_task-RDMmotion_run-01",
      "SeriesNumber": 7,
      "SeriesTime": "105502.995000",
      "SliceLocation": -46.161439644074,
      "SliceThickness": 2.4000000953674,
      "SmallestImagePixelValue": 0,
      "SoftwareVersions": "syngo MR E11",
      "SpacingBetweenSlices": 2.3999999826302,
      "SpecificCharacterSet": "ISO_IR 100",
      "StudyID": "1",
      "StudyTime": "104127.873000",
      "TransmitCoilName": "Body",
      "VariableFlipAngleFlag": "N",
      "WindowCenterWidthExplanation": "Algo1",
      "dBdt": 0.0},
    "slices": {}
  },
  "time": {
    "samples": {
      "AcquisitionNumber": [1, 2, 3, 4, 5, 6, 7, 8, 9, 10, 11, 12, 13, 14, 15, 16, 17, 18, 19, 20, 21, 22, 23, 24, 25, 26, 27, 28, 29, 30, 31, 32, 33, 34, 35, 36, 37, 38, 39, 40, 41, 42, 43, 44, 45, 46, 47, 48, 49, 50, 51, 52, 53, 54, 55, 56, 57, 58, 59, 60, 61, 62, 63, 64, 65, 66, 67, 68, 69, 70, 71, 72, 73, 74, 75, 76, 77, 78, 79, 80, 81, 82, 83, 84, 85, 86, 87, 88, 89, 90, 91, 92, 93, 94, 95, 96, 97, 98, 99, 100, 101, 102, 103, 104, 105, 106, 107, 108, 109, 110, 111, 112, 113, 114, 115, 116, 117, 118, 119, 120, 121, 122, 123, 124, 125],
      "AcquisitionTime": ["105437.952500", "105439.152500", "105440.352500", "105441.552500", "105442.752500", "105443.952500", "105445.152500", "105446.352500", "105447.552500", "105448.752500", "105449.952500", "105451.152500", "105452.352500", "105453.552500", "105454.752500", "105455.952500", "105457.152500", "105458.352500", "105459.552500", "105500.752500", "105501.952500", "105503.152500", "105504.352500", "105505.552500", "105506.752500", "105507.952500", "105509.152500", "105510.352500", "105511.552500", "105512.752500", "105513.952500", "105515.152500", "105516.352500", "105517.552500", "105518.752500", "105519.952500", "105521.152500", "105522.352500", "105523.552500", "105524.752500", "105525.952500", "105527.152500", "105528.352500", "105529.552500", "105530.752500", "105531.952500", "105533.152500", "105534.352500", "105535.552500", "105536.752500", "105537.952500", "105539.152500", "105540.352500", "105541.552500", "105542.752500", "105543.952500", "105545.152500", "105546.352500", "105547.552500", "105548.752500", "105549.952500", "105551.152500", "105552.352500", "105553.552500", "105554.752500", "105555.952500", "105557.152500", "105558.352500", "105559.552500", "105600.752500", "105601.952500", "105603.152500", "105604.352500", "105605.552500", "105606.752500", "105607.952500", "105609.152500", "105610.352500", "105611.552500", "105612.752500", "105613.952500", "105615.152500", "105616.352500", "105617.552500", "105618.752500", "105619.952500", "105621.152500", "105622.352500", "105623.552500", "105624.752500", "105625.952500", "105627.152500", "105628.352500", "105629.552500", "105630.752500", "105631.952500", "105633.152500", "105634.352500", "105635.552500", "105636.752500", "105637.952500", "105639.152500", "105640.352500", "105641.552500", "105642.752500", "105643.952500", "105645.152500", "105646.352500", "105647.552500", "105648.752500", "105649.952500", "105651.152500", "105652.352500", "105653.552500", "105654.752500", "105655.952500", "105657.152500", "105658.352500", "105659.552500", "105700.752500", "105701.952500", "105703.152500", "105704.352500", "105705.552500", "105706.752500"],
      "ContentTime": ["105503.000000", "105503.003000", "105503.006000", "105503.008000", "105503.011000", "105503.014000", "105503.016000", "105503.019000", "105503.021000", "105503.024000", "105503.026000", "105503.029000", "105503.032000", "105503.041000", "105503.044000", "105503.047000", "105503.049000", "105503.052000", "105503.054000", "105503.057000", "105542.993000", "105542.996000", "105543.000000", "105543.002000", "105543.005000", "105543.008000", "105543.010000", "105543.013000", "105543.015000", "105543.018000", "105543.021000", "105543.023000", "105543.026000", "105543.029000", "105543.031000", "105543.034000", "105543.036000", "105543.039000", "105543.041000", "105543.044000", "105543.047000", "105543.049000", "105543.052000", "105543.054000", "105543.057000", "105543.060000", "105543.062000", "105543.065000", "105543.067000", "105543.070000", "105543.073000", "105543.075000", "105543.078000", "105622.994000", "105622.997000", "105623.001000", "105623.004000", "105623.007000", "105623.009000", "105623.012000", "105623.015000", "105623.017000", "105623.020000", "105623.022000", "105623.025000", "105623.028000", "105623.030000", "105623.033000", "105623.035000", "105623.038000", "105623.041000", "105623.043000", "105623.046000", "105623.048000", "105623.051000", "105623.054000", "105623.056000", "105623.059000", "105623.062000", "105623.065000", "105623.067000", "105623.070000", "105623.080000", "105623.083000", "105623.086000", "105623.089000", "105623.091000", "105702.995000", "105702.998000", "105703.000000", "105703.003000", "105703.005000", "105703.008000", "105703.011000", "105703.013000", "105703.016000", "105703.018000", "105703.021000", "105703.023000", "105703.026000", "105703.029000", "105703.031000", "105703.034000", "105703.036000", "105703.039000", "105703.042000", "105703.044000", "105703.047000", "105703.049000", "105703.052000", "105703.055000", "105703.057000", "105703.060000", "105703.062000", "105703.065000", "105703.067000", "105703.070000", "105703.086000", "105703.088000", "105703.091000", "105708.519000", "105708.522000", "105708.525000", "105708.527000", "105708.530000"],
      "InstanceCreationTime": ["105503.000000", "105503.003000", "105503.006000", "105503.008000", "105503.011000", "105503.014000", "105503.016000", "105503.019000", "105503.021000", "105503.024000", "105503.026000", "105503.029000", "105503.032000", "105503.041000", "105503.044000", "105503.047000", "105503.049000", "105503.052000", "105503.054000", "105503.057000", "105542.993000", "105542.996000", "105543.000000", "105543.002000", "105543.005000", "105543.008000", "105543.010000", "105543.013000", "105543.015000", "105543.018000", "105543.021000", "105543.023000", "105543.026000", "105543.029000", "105543.031000", "105543.034000", "105543.036000", "105543.039000", "105543.041000", "105543.044000", "105543.047000", "105543.049000", "105543.052000", "105543.054000", "105543.057000", "105543.060000", "105543.062000", "105543.065000", "105543.067000", "105543.070000", "105543.073000", "105543.075000", "105543.078000", "105622.994000", "105622.997000", "105623.001000", "105623.004000", "105623.007000", "105623.009000", "105623.012000", "105623.015000", "105623.017000", "105623.020000", "105623.022000", "105623.025000", "105623.028000", "105623.030000", "105623.033000", "105623.035000", "105623.038000", "105623.041000", "105623.043000", "105623.046000", "105623.048000", "105623.051000", "105623.054000", "105623.056000", "105623.059000", "105623.062000", "105623.065000", "105623.067000", "105623.070000", "105623.080000", "105623.083000", "105623.086000", "105623.089000", "105623.091000", "105702.995000", "105702.998000", "105703.000000", "105703.003000", "105703.005000", "105703.008000", "105703.011000", "105703.013000", "105703.016000", "105703.018000", "105703.021000", "105703.023000", "105703.026000", "105703.029000", "105703.031000", "105703.034000", "105703.036000", "105703.039000", "105703.042000", "105703.044000", "105703.047000", "105703.049000", "105703.052000", "105703.055000", "105703.057000", "105703.060000", "105703.062000", "105703.065000", "105703.067000", "105703.070000", "105703.086000", "105703.088000", "105703.091000", "105708.519000", "105708.522000", "105708.525000", "105708.527000", "105708.530000"],
      "InstanceNumber": [1, 2, 3, 4, 5, 6, 7, 8, 9, 10, 11, 12, 13, 14, 15, 16, 17, 18, 19, 20, 21, 22, 23, 24, 25, 26, 27, 28, 29, 30, 31, 32, 33, 34, 35, 36, 37, 38, 39, 40, 41, 42, 43, 44, 45, 46, 47, 48, 49, 50, 51, 52, 53, 54, 55, 56, 57, 58, 59, 60, 61, 62, 63, 64, 65, 66, 67, 68, 69, 70, 71, 72, 73, 74, 75, 76, 77, 78, 79, 80, 81, 82, 83, 84, 85, 86, 87, 88, 89, 90, 91, 92, 93, 94, 95, 96, 97, 98, 99, 100, 101, 102, 103, 104, 105, 106, 107, 108, 109, 110, 111, 112, 113, 114, 115, 116, 117, 118, 119, 120, 121, 122, 123, 124, 125],
      "LargestImagePixelValue": [2743, 2644, 2587, 2551, 2533, 2529, 2535, 2532, 2525, 2525, 2531, 2534, 2520, 2536, 2519, 2525, 2527, 2514, 2540, 2511, 2513, 2518, 2527, 2527, 2521, 2532, 2531, 2538, 2527, 2524, 2522, 2521, 2535, 2518, 2523, 2529, 2537, 2534, 2530, 2541, 2528, 2522, 2509, 2507, 2506, 2510, 2512, 2508, 2518, 2509, 2518, 2509, 2505, 2514, 2503, 2508, 2506, 2507, 2508, 2496, 2495, 2495, 2486, 2492, 2501, 2508, 2514, 2498, 2506, 2512, 2522, 2514, 2503, 2512, 2513, 2488, 2496, 2483, 2501, 2488, 2501, 2499, 2481, 2487, 2499, 2489, 2478, 2473, 2478, 2483, 2483, 2493, 2500, 2490, 2491, 2489, 2501, 2479, 2494, 2490, 2480, 2480, 2479, 2475, 2490, 2490, 2477, 2483, 2487, 2467, 2458, 2461, 2450, 2442, 2460, 2461, 2450, 2455, 2457, 2469, 2463, 2453, 2459, 2450, 2449],
      "WindowCenter": [605.0, 603.0, 601.0, 600.0, 599.0, 599.0, 599.0, 599.0, 598.0, 598.0, 598.0, 598.0, 598.0, 600.0, 600.0, 600.0, 600.0, 599.0, 599.0, 598.0, 598.0, 598.0, 598.0, 598.0, 598.0, 599.0, 599.0, 598.0, 598.0, 598.0, 598.0, 598.0, 599.0, 599.0, 599.0, 599.0, 599.0, 599.0, 600.0, 599.0, 598.0, 598.0, 597.0, 597.0, 597.0, 598.0, 598.0, 598.0, 599.0, 598.0, 598.0, 597.0, 597.0, 597.0, 597.0, 598.0, 598.0, 598.0, 597.0, 596.0, 596.0, 596.0, 596.0, 597.0, 597.0, 598.0, 598.0, 598.0, 598.0, 598.0, 598.0, 598.0, 598.0, 598.0, 598.0, 597.0, 597.0, 596.0, 597.0, 597.0, 598.0, 598.0, 598.0, 598.0, 597.0, 597.0, 597.0, 596.0, 596.0, 597.0, 597.0, 598.0, 597.0, 598.0, 598.0, 598.0, 598.0, 598.0, 598.0, 597.0, 596.0, 596.0, 596.0, 597.0, 598.0, 598.0, 598.0, 597.0, 596.0, 595.0, 595.0, 595.0, 595.0, 595.0, 596.0, 596.0, 596.0, 596.0, 596.0, 596.0, 595.0, 596.0, 595.0, 595.0, 595.0],
      "WindowWidth": [1294.0, 1289.0, 1285.0, 1282.0, 1281.0, 1281.0, 1280.0, 1281.0, 1279.0, 1278.0, 1278.0, 1279.0, 1279.0, 1282.0, 1283.0, 1284.0, 1283.0, 1281.0, 1281.0, 1279.0, 1278.0, 1278.0, 1278.0, 1279.0, 1279.0, 1279.0, 1280.0, 1279.0, 1279.0, 1279.0, 1279.0, 1279.0, 1281.0, 1281.0, 1280.0, 1280.0, 1280.0, 1281.0, 1282.0, 1281.0, 1278.0, 1277.0, 1276.0, 1276.0, 1276.0, 1277.0, 1278.0, 1279.0, 1279.0, 1277.0, 1277.0, 1276.0, 1275.0, 1276.0, 1276.0, 1278.0, 1278.0, 1277.0, 1276.0, 1273.0, 1273.0, 1273.0, 1274.0, 1275.0, 1276.0, 1278.0, 1278.0, 1278.0, 1278.0, 1278.0, 1278.0, 1278.0, 1279.0, 1279.0, 1278.0, 1276.0, 1275.0, 1274.0, 1275.0, 1277.0, 1278.0, 1278.0, 1278.0, 1278.0, 1276.0, 1276.0, 1275.0, 1274.0, 1274.0, 1275.0, 1276.0, 1278.0, 1277.0, 1277.0, 1277.0, 1278.0, 1279.0, 1278.0, 1278.0, 1275.0, 1274.0, 1274.0, 1274.0, 1275.0, 1278.0, 1278.0, 1277.0, 1276.0, 1274.0, 1272.0, 1272.0, 1272.0, 1272.0, 1272.0, 1273.0, 1273.0, 1273.0, 1274.0, 1273.0, 1273.0, 1272.0, 1273.0, 1272.0, 1272.0, 1272.0]
    },
    "slices": {}
  }
}