{
  "AcquisitionMatrixPE": 88,
  "AcquisitionNumber": 1,
  "AcquisitionTime": "10:55:42.995000",
  "BandwidthPerPixelPhaseEncode": 19.592,
  "BaseResolution": 88,
  "BodyPartExamined": "BRAIN",
  "ConsistencyInfo": "N4_VE11C_LATEST_20160120",
  "ConversionSoftware": "dcm2niix",
  "ConversionSoftwareVersion": "v1.0.20190902",
  "DerivedVendorReportedEchoSpacing": 0.000580014,
  "DeviceSerialNumber": "67050",
  "DwellTime": 2.6e-06,
  "EchoTime": 0.033,
  "EchoTrainLength": 88,
  "EffectiveEchoSpacing": 0.000580014,
  "FlipAngle": 62,
  "ImageOrientationPatientDICOM": [0.991968, -0.040582, 0.119806, 0.046086, 0.997988, -0.0435323],
  "ImageType": [
    "ORIGINAL",
    "PRIMARY",
    "M",
    "ND",
    "MOSAIC"
],
  "ImagingFrequency": 123.25,
  "InPlanePhaseEncodingDirectionDICOM": "COL",
  "InstitutionAddress": "Olive_Street_60_Providence_RI_US_02912",
  "InstitutionName": "BROWN_UNIVERSITY_MRF",
  "InstitutionalDepartmentName": "Department",
  "MRAcquisitionType": "2D",
  "MagneticFieldStrength": 3,
  "Manufacturer": "Siemens",
  "ManufacturersModelName": "Prisma_fit",
  "Modality": "MR",
  "MultibandAccelerationFactor": 4,
  "PartialFourier": 1,
  "PatientPosition": "HFS",
  "PercentPhaseFOV": 100,
  "PhaseEncodingDirection": "j-",
  "PhaseEncodingSteps": 88,
  "PhaseResolution": 1,
  "PixelBandwidth": 2185,
  "ProcedureStepDescription": "ASHENHAV_1222",
  "ProtocolName": "func-bold_task-RDMmotion_run-06",
  "PulseSequenceDetails": "%SiemensSeq%_ep2d_bold",
  "ReceiveCoilActiveElements": "HC1-7;NC1",
  "ReceiveCoilName": "HeadNeck_64",
  "ReconMatrixPE": 88,
  "RefLinesPE": 8,
  "RepetitionTime": 1.2,
  "SAR": 0.044438,
  "ScanOptions": "FS",
  "ScanningSequence": "EP",
  "SequenceName": "_epfid2d1_88",
  "SequenceVariant": "SK",
  "SeriesDescription": "func-bold_task-RDMmotion_run-06",
  "SeriesNumber": 17,
  "ShimSetting": [1754, -9132, 4447, 592, -215, -218, -40, 12],
  "SliceThickness": 2.4,
  "SliceTiming": [0.55, 0, 0.6275, 0.0775, 0.7075, 0.1575, 0.785, 0.235, 0.865, 0.315, 0.9425, 0.3925, 1.0225, 0.4725, 1.1, 0.55, 0, 0.6275, 0.0775, 0.7075, 0.1575, 0.785, 0.235, 0.865, 0.315, 0.9425, 0.3925, 1.0225, 0.4725, 1.1, 0.55, 0, 0.6275, 0.0775, 0.7075, 0.1575, 0.785, 0.235, 0.865, 0.315, 0.9425, 0.3925, 1.0225, 0.4725, 1.1, 0.55, 0, 0.6275, 0.0775, 0.7075, 0.1575, 0.785, 0.235, 0.865, 0.315, 0.9425, 0.3925, 1.0225, 0.4725, 1.1],
  "SoftwareVersions": "syngo_MR_E11",
  "SpacingBetweenSlices": 2.4,
  "StationName": "AWP67050",
  "TaskName": "RDMmotion",
  "TotalReadoutTime": 0.0504612,
  "TxRefAmp": 217.084,
  "dcmmeta_affine": [
    [-2.3784677982330322, 0.11050157994031906, 0.2827153503894806, 95.86100769042969],
    [0.0973045825958252, 2.392904281616211, -0.11688947677612305, -93.6602783203125],
    [0.28726133704185486, 0.10437847673892975, 2.3804221153259277, -68.33333587646484],
    [0.0, 0.0, 0.0, 1.0]
],
  "dcmmeta_reorient_transform": [
    [0.0, -1.0, 0.0, 87.0],
    [1.0, 0.0, 0.0, 0.0],
    [0.0, 0.0, 1.0, 0.0],
    [0.0, 0.0, 0.0, 1.0]
],
  "dcmmeta_shape": [88, 88, 60, 125],
  "dcmmeta_slice_dim": 2,
  "dcmmeta_version": 0.6,
  "global": {
    "const": {
      "AcquisitionMatrix": [88, 0, 0, 88],
      "AngioFlag": "N",
      "BitsAllocated": 16,
      "BitsStored": 12,
      "BodyPartExamined": "BRAIN",
      "Columns": 704,
      "DeidentificationMethodCodeSequence": [
        {
          "CodeMeaning": "XNAT DicomEdit 6 Script",
          "CodeValue": "3",
          "CodingSchemeDesignator": "XNAT",
          "CodingSchemeVersion": "1.0"}
],
      "EchoNumbers": 1,
      "EchoTime": 33.0,
      "EchoTrainLength": 88,
      "FlipAngle": 62.0,
      "HighBit": 11,
      "ImageOrientationPatient": [0.99196759010785, -0.0405820056992, 0.11980568012013, 0.04608596755381, 0.99798849003879, -0.0435322563707],
      "ImagePositionPatient": [-872.07718810915, -821.56706908689, -115.58032783942],
      "ImageType": [
        "ORIGINAL",
        "PRIMARY",
        "M",
        "ND",
        "MOSAIC"
],
      "ImagedNucleus": "1H",
      "ImagingFrequency": 123.250499,
      "InPlanePhaseEncodingDirection": "COL",
      "MRAcquisitionType": "2D",
      "MagneticFieldStrength": 3.0,
      "Manufacturer": "SIEMENS",
      "ManufacturerModelName": "Prisma_fit",
      "Modality": "MR",
      "NumberOfAverages": 1.0,
      "NumberOfPhaseEncodingSteps": 88,
      "PercentPhaseFieldOfView": 100.0,
      "PercentSampling": 100.0,
      "PerformedProcedureStepStartTime": "094920.742000",
      "PhotometricInterpretation": "MONOCHROME2",
      "PixelBandwidth": 2185.0,
      "PixelRepresentation": 0,
      "PixelSpacing": [2.3977272510529, 2.3977272510529],
      "ProtocolName": "func-bold_task-RDMmotion_run-06",
      "RepetitionTime": 1200.0,
      "Rows": 704,
      "SAR": 0.04443803117119,
      "SamplesPerPixel": 1,
      "ScanOptions": "FS",
      "ScanningSequence": "EP",
      "SequenceName": "*epfid2d1_88",
      "SequenceVariant": "SK",
      "SeriesDescription": "func-bold_task-RDMmotion_run-06",
      "SeriesNumber": 17,
      "SeriesTime": "105619.011000",
      "SliceLocation": -51.922037047307,
      "SliceThickness": 2.4000000953674,
      "SmallestImagePixelValue": 0,
      "SoftwareVersions": "syngo MR E11",
      "SpacingBetweenSlices": 2.4000000470758,
      "SpecificCharacterSet": "ISO_IR 100",
      "StudyID": "1",
      "StudyTime": "094920.527000",
      "TransmitCoilName": "Body",
      "VariableFlipAngleFlag": "N",
      "WindowCenterWidthExplanation": "Algo1",
      "dBdt": 0.0},
    "slices": {}
  },
  "time": {
    "samples": {
      "AcquisitionNumber": [1, 2, 3, 4, 5, 6, 7, 8, 9, 10, 11, 12, 13, 14, 15, 16, 17, 18, 19, 20, 21, 22, 23, 24, 25, 26, 27, 28, 29, 30, 31, 32, 33, 34, 35, 36, 37, 38, 39, 40, 41, 42, 43, 44, 45, 46, 47, 48, 49, 50, 51, 52, 53, 54, 55, 56, 57, 58, 59, 60, 61, 62, 63, 64, 65, 66, 67, 68, 69, 70, 71, 72, 73, 74, 75, 76, 77, 78, 79, 80, 81, 82, 83, 84, 85, 86, 87, 88, 89, 90, 91, 92, 93, 94, 95, 96, 97, 98, 99, 100, 101, 102, 103, 104, 105, 106, 107, 108, 109, 110, 111, 112, 113, 114, 115, 116, 117, 118, 119, 120, 121, 122, 123, 124, 125],
      "AcquisitionTime": ["105542.995000", "105544.195000", "105545.395000", "105546.595000", "105547.795000", "105548.995000", "105550.195000", "105551.395000", "105552.595000", "105553.795000", "105554.995000", "105556.195000", "105557.395000", "105558.595000", "105559.795000", "105600.995000", "105602.195000", "105603.395000", "105604.595000", "105605.795000", "105606.995000", "105608.195000", "105609.395000", "105610.595000", "105611.795000", "105612.995000", "105614.195000", "105615.395000", "105616.595000", "105617.795000", "105618.995000", "105620.195000", "105621.395000", "105622.595000", "105623.795000", "105624.995000", "105626.195000", "105627.395000", "105628.595000", "105629.795000", "105630.995000", "105632.195000", "105633.395000", "105634.595000", "105635.795000", "105636.995000", "105638.195000", "105639.395000", "105640.595000", "105641.795000", "105642.995000", "105644.195000", "105645.395000", "105646.595000", "105647.795000", "105648.995000", "105650.195000", "105651.395000", "105652.595000", "105653.795000", "105654.995000", "105656.195000", "105657.395000", "105658.595000", "105659.795000", "105700.995000", "105702.195000", "105703.395000", "105704.595000", "105705.795000", "105706.995000", "105708.195000", "105709.395000", "105710.595000", "105711.795000", "105712.995000", "105714.195000", "105715.395000", "105716.595000", "105717.795000", "105718.995000", "105720.195000", "105721.395000", "105722.595000", "105723.795000", "105724.995000", "105726.195000", "105727.395000", "105728.595000", "105729.795000", "105730.995000", "105732.195000", "105733.395000", "105734.595000", "105735.795000", "105736.995000", "105738.195000", "105739.395000", "105740.595000", "105741.795000", "105742.995000", "105744.195000", "105745.395000", "105746.595000", "105747.795000", "105748.995000", "105750.195000", "105751.395000", "105752.595000", "105753.795000", "105754.995000", "105756.195000", "105757.395000", "105758.595000", "105759.795000", "105800.995000", "105802.195000", "105803.395000", "105804.595000", "105805.795000", "105806.995000", "105808.195000", "105809.395000", "105810.595000", "105811.795000"],
      "ContentTime": ["105619.015000", "105619.027000", "105619.030000", "105619.033000", "105619.035000", "105619.038000", "105619.040000", "105619.043000", "105619.046000", "105619.048000", "105619.051000", "105619.053000", "105619.056000", "105619.059000", "105619.061000", "105619.064000", "105619.066000", "105619.069000", "105619.071000", "105619.074000", "105619.077000", "105619.079000", "105619.082000", "105619.084000", "105619.087000", "105619.092000", "105619.095000", "105619.097000", "105619.100000", "105659.010000", "105659.012000", "105659.015000", "105659.018000", "105659.020000", "105659.023000", "105659.025000", "105659.028000", "105659.031000", "105659.033000", "105659.036000", "105659.041000", "105659.043000", "105659.046000", "105659.049000", "105659.051000", "105659.054000", "105659.056000", "105659.059000", "105659.061000", "105659.064000", "105659.067000", "105659.069000", "105659.072000", "105659.074000", "105659.077000", "105659.079000", "105659.082000", "105659.085000", "105659.087000", "105659.090000", "105659.092000", "105659.095000", "105659.098000", "105719.010000", "105719.012000", "105719.015000", "105719.018000", "105719.020000", "105719.023000", "105719.025000", "105719.028000", "105719.031000", "105719.033000", "105719.036000", "105719.038000", "105719.041000", "105719.043000", "105719.046000", "105719.049000", "105759.010000", "105759.012000", "105759.015000", "105759.018000", "105759.020000", "105759.023000", "105759.026000", "105759.028000", "105759.031000", "105759.033000", "105759.036000", "105759.038000", "105759.041000", "105759.044000", "105759.046000", "105759.049000", "105759.052000", "105759.054000", "105759.057000", "105759.059000", "105759.062000", "105759.064000", "105759.067000", "105759.070000", "105759.072000", "105759.083000", "105759.086000", "105759.088000", "105759.091000", "105759.093000", "105759.096000", "105759.099000", "105759.101000", "105759.104000", "105813.293000", "105813.296000", "105813.299000", "105813.301000", "105813.304000", "105813.307000", "105813.309000", "105813.312000", "105813.315000", "105813.317000", "105813.320000", "105813.322000"],
      "InstanceCreationTime": ["105619.015000", "105619.027000", "105619.030000", "105619.033000", "105619.035000", "105619.038000", "105619.040000", "105619.043000", "105619.046000", "105619.048000", "105619.051000", "105619.053000", "105619.056000", "105619.059000", "105619.061000", "105619.064000", "105619.066000", "105619.069000", "105619.071000", "105619.074000", "105619.077000", "105619.079000", "105619.082000", "105619.084000", "105619.087000", "105619.092000", "105619.095000", "105619.097000", "105619.100000", "105659.010000", "105659.012000", "105659.015000", "105659.018000", "105659.020000", "105659.023000", "105659.025000", "105659.028000", "105659.031000", "105659.033000", "105659.036000", "105659.041000", "105659.043000", "105659.046000", "105659.049000", "105659.051000", "105659.054000", "105659.056000", "105659.059000", "105659.061000", "105659.064000", "105659.067000", "105659.069000", "105659.072000", "105659.074000", "105659.077000", "105659.079000", "105659.082000", "105659.085000", "105659.087000", "105659.090000", "105659.092000", "105659.095000", "105659.098000", "105719.010000", "105719.012000", "105719.015000", "105719.018000", "105719.020000", "105719.023000", "105719.025000", "105719.028000", "105719.031000", "105719.033000", "105719.036000", "105719.038000", "105719.041000", "105719.043000", "105719.046000", "105719.049000", "105759.010000", "105759.012000", "105759.015000", "105759.018000", "105759.020000", "105759.023000", "105759.026000", "105759.028000", "105759.031000", "105759.033000", "105759.036000", "105759.038000", "105759.041000", "105759.044000", "105759.046000", "105759.049000", "105759.052000", "105759.054000", "105759.057000", "105759.059000", "105759.062000", "105759.064000", "105759.067000", "105759.070000", "105759.072000", "105759.083000", "105759.086000", "105759.088000", "105759.091000", "105759.093000", "105759.096000", "105759.099000", "105759.101000", "105759.104000", "105813.293000", "105813.296000", "105813.299000", "105813.301000", "105813.304000", "105813.307000", "105813.309000", "105813.312000", "105813.315000", "105813.317000", "105813.320000", "105813.322000"],
      "InstanceNumber": [1, 2, 3, 4, 5, 6, 7, 8, 9, 10, 11, 12, 13, 14, 15, 16, 17, 18, 19, 20, 21, 22, 23, 24, 25, 26, 27, 28, 29, 30, 31, 32, 33, 34, 35, 36, 37, 38, 39, 40, 41, 42, 43, 44, 45, 46, 47, 48, 49, 50, 51, 52, 53, 54, 55, 56, 57, 58, 59, 60, 61, 62, 63, 64, 65, 66, 67, 68, 69, 70, 71, 72, 73, 74, 75, 76, 77, 78, 79, 80, 81, 82, 83, 84, 85, 86, 87, 88, 89, 90, 91, 92, 93, 94, 95, 96, 97, 98, 99, 100, 101, 102, 103, 104, 105, 106, 107, 108, 109, 110, 111, 112, 113, 114, 115, 116, 117, 118, 119, 120, 121, 122, 123, 124, 125],
      "LargestImagePixelValue": [1922, 1837, 1816, 1804, 1783, 1788, 1792, 1777, 1796, 1782, 1791, 1787, 1792, 1781, 1787, 1794, 1796, 1785, 1788, 1789, 1783, 1790, 1790, 1788, 1820, 1794, 1774, 1790, 1782, 1765, 1781, 1789, 1772, 1783, 1772, 1779, 1792, 1781, 1779, 1805, 1806, 1792, 1785, 1782, 1788, 1797, 1804, 1787, 1784, 1796, 1782, 1779, 1782, 1778, 1780, 1784, 1786, 1770, 1789, 1778, 1783, 1783, 1781, 1788, 1795, 1795, 1790, 1794, 1796, 1776, 1785, 1804, 1796, 1779, 1786, 1788, 1798, 1805, 1791, 1791, 1803, 1818, 1799, 1789, 1808, 1797, 1792, 1790, 1805, 1798, 1796, 1801, 1787, 1781, 1807, 1793, 1792, 1797, 1781, 1772, 1794, 1785, 1782, 1792, 1789, 1774, 1778, 1811, 1793, 1789, 1806, 1795, 1778, 1793, 1783, 1792, 1823, 1808, 1813, 1838, 1817, 1803, 1810, 1802, 1822],
      "WindowCenter": [601.0, 597.0, 597.0, 597.0, 596.0, 597.0, 599.0, 600.0, 600.0, 599.0, 599.0, 598.0, 599.0, 599.0, 599.0, 600.0, 599.0, 598.0, 598.0, 598.0, 599.0, 599.0, 599.0, 599.0, 599.0, 599.0, 599.0, 599.0, 598.0, 598.0, 598.0, 597.0, 597.0, 598.0, 599.0, 598.0, 598.0, 598.0, 597.0, 598.0, 600.0, 600.0, 600.0, 601.0, 600.0, 600.0, 600.0, 601.0, 600.0, 600.0, 599.0, 599.0, 599.0, 598.0, 598.0, 598.0, 599.0, 599.0, 598.0, 598.0, 599.0, 599.0, 599.0, 600.0, 601.0, 600.0, 601.0, 601.0, 601.0, 601.0, 600.0, 599.0, 599.0, 599.0, 599.0, 599.0, 600.0, 599.0, 598.0, 598.0, 599.0, 600.0, 600.0, 598.0, 599.0, 600.0, 599.0, 599.0, 600.0, 599.0, 599.0, 599.0, 599.0, 599.0, 599.0, 599.0, 600.0, 600.0, 599.0, 599.0, 600.0, 600.0, 599.0, 600.0, 599.0, 598.0, 598.0, 600.0, 601.0, 600.0, 599.0, 599.0, 600.0, 599.0, 598.0, 599.0, 601.0, 602.0, 602.0, 601.0, 599.0, 600.0, 602.0, 600.0, 599.0],
      "WindowWidth": [1275.0, 1267.0, 1267.0, 1267.0, 1264.0, 1266.0, 1271.0, 1273.0, 1274.0, 1272.0, 1271.0, 1269.0, 1270.0, 1270.0, 1271.0, 1272.0, 1271.0, 1269.0, 1269.0, 1270.0, 1270.0, 1271.0, 1270.0, 1271.0, 1271.0, 1270.0, 1271.0, 1271.0, 1268.0, 1268.0, 1269.0, 1267.0, 1267.0, 1269.0, 1270.0, 1269.0, 1270.0, 1268.0, 1267.0, 1269.0, 1273.0, 1274.0, 1274.0, 1275.0, 1273.0, 1272.0, 1273.0, 1274.0, 1273.0, 1274.0, 1272.0, 1271.0, 1271.0, 1270.0, 1269.0, 1268.0, 1270.0, 1271.0, 1269.0, 1269.0, 1271.0, 1272.0, 1272.0, 1273.0, 1275.0, 1274.0, 1275.0, 1276.0, 1275.0, 1275.0, 1273.0, 1272.0, 1270.0, 1271.0, 1272.0, 1271.0, 1272.0, 1270.0, 1269.0, 1270.0, 1271.0, 1273.0, 1272.0, 1270.0, 1271.0, 1273.0, 1272.0, 1271.0, 1272.0, 1271.0, 1271.0, 1271.0, 1271.0, 1270.0, 1270.0, 1271.0, 1272.0, 1272.0, 1271.0, 1270.0, 1272.0, 1273.0, 1272.0, 1272.0, 1271.0, 1269.0, 1269.0, 1273.0, 1275.0, 1272.0, 1271.0, 1271.0, 1273.0, 1271.0, 1269.0, 1270.0, 1275.0, 1278.0, 1278.0, 1275.0, 1272.0, 1273.0, 1276.0, 1273.0, 1271.0]
    },
    "slices": {}
  }
}