{
  "AcquisitionMatrixPE": 88,
  "AcquisitionNumber": 1,
  "AcquisitionTime": "15:16:5.285000",
  "BandwidthPerPixelPhaseEncode": 19.592,
  "BaseResolution": 88,
  "BodyPartExamined": "BRAIN",
  "ConsistencyInfo": "N4_VE11C_LATEST_20160120",
  "ConversionSoftware": "dcm2niix",
  "ConversionSoftwareVersion": "v1.0.20190902",
  "DerivedVendorReportedEchoSpacing": 0.000580014,
  "DeviceSerialNumber": "67050",
  "DwellTime": 2.6e-06,
  "EchoTime": 0.033,
  "EchoTrainLength": 88,
  "EffectiveEchoSpacing": 0.000580014,
  "FlipAngle": 62,
  "ImageOrientationPatientDICOM": [0.99862, 0.00904778, 0.0517284, -0.0101093, 0.999743, 0.0202959],
  "ImageType": [
    "ORIGINAL",
    "PRIMARY",
    "M",
    "ND",
    "MOSAIC"
],
  "ImagingFrequency": 123.251,
  "InPlanePhaseEncodingDirectionDICOM": "COL",
  "InstitutionAddress": "Olive_Street_60_Providence_RI_US_02912",
  "InstitutionName": "BROWN_UNIVERSITY_MRF",
  "InstitutionalDepartmentName": "Department",
  "MRAcquisitionType": "2D",
  "MagneticFieldStrength": 3,
  "Manufacturer": "Siemens",
  "ManufacturersModelName": "Prisma_fit",
  "Modality": "MR",
  "MultibandAccelerationFactor": 4,
  "PartialFourier": 1,
  "PatientPosition": "HFS",
  "PercentPhaseFOV": 100,
  "PhaseEncodingDirection": "j-",
  "PhaseEncodingSteps": 88,
  "PhaseResolution": 1,
  "PixelBandwidth": 2185,
  "ProcedureStepDescription": "ASHENHAV_1222",
  "ProtocolName": "func-bold_task-RDMcolor_run-03",
  "PulseSequenceDetails": "%SiemensSeq%_ep2d_bold",
  "ReceiveCoilActiveElements": "HC1-7",
  "ReceiveCoilName": "HeadNeck_64",
  "ReconMatrixPE": 88,
  "RefLinesPE": 8,
  "RepetitionTime": 1.2,
  "SAR": 0.0609255,
  "ScanOptions": "FS",
  "ScanningSequence": "EP",
  "SequenceName": "_epfid2d1_88",
  "SequenceVariant": "SK",
  "SeriesDescription": "func-bold_task-RDMcolor_run-03",
  "SeriesNumber": 12,
  "ShimSetting": [1749, -9088, 4398, 530, -107, -81, 4, 1],
  "SliceThickness": 2.4,
  "SliceTiming": [0.5525, 0, 0.63, 0.08, 0.71, 0.1575, 0.7875, 0.2375, 0.865, 0.315, 0.945, 0.395, 1.0225, 0.4725, 1.1025, 0.5525, 0, 0.63, 0.08, 0.71, 0.1575, 0.7875, 0.2375, 0.865, 0.315, 0.945, 0.395, 1.0225, 0.4725, 1.1025, 0.5525, 0, 0.63, 0.08, 0.71, 0.1575, 0.7875, 0.2375, 0.865, 0.315, 0.945, 0.395, 1.0225, 0.4725, 1.1025, 0.5525, 0, 0.63, 0.08, 0.71, 0.1575, 0.7875, 0.2375, 0.865, 0.315, 0.945, 0.395, 1.0225, 0.4725, 1.1025],
  "SoftwareVersions": "syngo_MR_E11",
  "SpacingBetweenSlices": 2.4,
  "StationName": "AWP67050",
  "TaskName": "RDMcolor",
  "TotalReadoutTime": 0.0504612,
  "TxRefAmp": 219.808,
  "dcmmeta_affine": [
    [-2.394418954849243, -0.024239283055067062, 0.12367545068264008, 103.76765441894531],
    [-0.021694105118513107, 2.3971107006073, 0.04989797994494438, -98.03829193115234],
    [0.12403051555156708, -0.04866401478648186, 2.396291732788086, -71.09801483154297],
    [0.0, 0.0, 0.0, 1.0]
],
  "dcmmeta_reorient_transform": [
    [0.0, -1.0, 0.0, 87.0],
    [1.0, 0.0, 0.0, 0.0],
    [0.0, 0.0, 1.0, 0.0],
    [0.0, 0.0, 0.0, 1.0]
],
  "dcmmeta_shape": [88, 88, 60, 392],
  "dcmmeta_slice_dim": 2,
  "dcmmeta_version": 0.6,
  "global": {
    "const": {
      "AcquisitionMatrix": [88, 0, 0, 88],
      "AngioFlag": "N",
      "BitsAllocated": 16,
      "BitsStored": 12,
      "BodyPartExamined": "BRAIN",
      "Columns": 704,
      "DeidentificationMethodCodeSequence": [
        {
          "CodeMeaning": "XNAT DicomEdit 6 Script",
          "CodeValue": "3",
          "CodingSchemeDesignator": "XNAT",
          "CodingSchemeVersion": "1.0"}
],
      "EchoNumbers": 1,
      "EchoTime": 33.0,
      "EchoTrainLength": 88,
      "FlipAngle": 62.0,
      "HighBit": 11,
      "ImageOrientationPatient": [0.99862020487187, 0.00904777854967, 0.05172836866729, -0.0101092745987, 0.99974290659484, 0.02029589319042],
      "ImagePositionPatient": [-831.6741494726, -855.50226399141, -128.52169941983],
      "ImageType": [
        "ORIGINAL",
        "PRIMARY",
        "M",
        "ND",
        "MOSAIC"
],
      "ImagedNucleus": "1H",
      "ImagingFrequency": 123.250773,
      "InPlanePhaseEncodingDirection": "COL",
      "MRAcquisitionType": "2D",
      "MagneticFieldStrength": 3.0,
      "Manufacturer": "SIEMENS",
      "ManufacturerModelName": "Prisma_fit",
      "Modality": "MR",
      "NumberOfAverages": 1.0,
      "NumberOfPhaseEncodingSteps": 88,
      "PercentPhaseFieldOfView": 100.0,
      "PercentSampling": 100.0,
      "PerformedProcedureStepStartTime": "143433.499000",
      "PhotometricInterpretation": "MONOCHROME2",
      "PixelBandwidth": 2185.0,
      "PixelRepresentation": 0,
      "PixelSpacing": [2.3977272510529, 2.3977272510529],
      "ProtocolName": "func-bold_task-RDMcolor_run-03",
      "RepetitionTime": 1200.0,
      "Rows": 704,
      "SAR": 0.06092552331689,
      "SamplesPerPixel": 1,
      "ScanOptions": "FS",
      "ScanningSequence": "EP",
      "SequenceName": "*epfid2d1_88",
      "SequenceVariant": "SK",
      "SeriesDescription": "func-bold_task-RDMcolor_run-03",
      "SeriesNumber": 12,
      "SeriesTime": "151631.369000",
      "SliceLocation": -67.679162675399,
      "SliceThickness": 2.4000000953674,
      "SmallestImagePixelValue": 0,
      "SoftwareVersions": "syngo MR E11",
      "SpacingBetweenSlices": 2.3999999914005,
      "SpecificCharacterSet": "ISO_IR 100",
      "StudyID": "1",
      "StudyTime": "143433.413000",
      "TransmitCoilName": "Body",
      "VariableFlipAngleFlag": "N",
      "WindowCenterWidthExplanation": "Algo1",
      "dBdt": 0.0},
    "slices": {}
  },
  "time": {
    "samples": {
      "AcquisitionNumber": [1, 2, 3, 4, 5, 6, 7, 8, 9, 10, 11, 12, 13, 14, 15, 16, 17, 18, 19, 20, 21, 22, 23, 24, 25, 26, 27, 28, 29, 30, 31, 32, 33, 34, 35, 36, 37, 38, 39, 40, 41, 42, 43, 44, 45, 46, 47, 48, 49, 50, 51, 52, 53, 54, 55, 56, 57, 58, 59, 60, 61, 62, 63, 64, 65, 66, 67, 68, 69, 70, 71, 72, 73, 74, 75, 76, 77, 78, 79, 80, 81, 82, 83, 84, 85, 86, 87, 88, 89, 90, 91, 92, 93, 94, 95, 96, 97, 98, 99, 100, 101, 102, 103, 104, 105, 106, 107, 108, 109, 110, 111, 112, 113, 114, 115, 116, 117, 118, 119, 120, 121, 122, 123, 124, 125, 126, 127, 128, 129, 130, 131, 132, 133, 134, 135, 136, 137, 138, 139, 140, 141, 142, 143, 144, 145, 146, 147, 148, 149, 150, 151, 152, 153, 154, 155, 156, 157, 158, 159, 160, 161, 162, 163, 164, 165, 166, 167, 168, 169, 170, 171, 172, 173, 174, 175, 176, 177, 178, 179, 180, 181, 182, 183, 184, 185, 186, 187, 188, 189, 190, 191, 192, 193, 194, 195, 196, 197, 198, 199, 200, 201, 202, 203, 204, 205, 206, 207, 208, 209, 210, 211, 212, 213, 214, 215, 216, 217, 218, 219, 220, 221, 222, 223, 224, 225, 226, 227, 228, 229, 230, 231, 232, 233, 234, 235, 236, 237, 238, 239, 240, 241, 242, 243, 244, 245, 246, 247, 248, 249, 250, 251, 252, 253, 254, 255, 256, 257, 258, 259, 260, 261, 262, 263, 264, 265, 266, 267, 268, 269, 270, 271, 272, 273, 274, 275, 276, 277, 278, 279, 280, 281, 282, 283, 284, 285, 286, 287, 288, 289, 290, 291, 292, 293, 294, 295, 296, 297, 298, 299, 300, 301, 302, 303, 304, 305, 306, 307, 308, 309, 310, 311, 312, 313, 314, 315, 316, 317, 318, 319, 320, 321, 322, 323, 324, 325, 326, 327, 328, 329, 330, 331, 332, 333, 334, 335, 336, 337, 338, 339, 340, 341, 342, 343, 344, 345, 346, 347, 348, 349, 350, 351, 352, 353, 354, 355, 356, 357, 358, 359, 360, 361, 362, 363, 364, 365, 366, 367, 368, 369, 370, 371, 372, 373, 374, 375, 376, 377, 378, 379, 380, 381, 382, 383, 384, 385, 386, 387, 388, 389, 390, 391, 392],
      "AcquisitionTime": ["151605.285000", "151606.485000", "151607.685000", "151608.885000", "151610.085000", "151611.285000", "151612.485000", "151613.685000", "151614.885000", "151616.085000", "151617.285000", "151618.485000", "151619.685000", "151620.885000", "151622.085000", "151623.285000", "151624.485000", "151625.685000", "151626.885000", "151628.085000", "151629.285000", "151630.485000", "151631.685000", "151632.885000", "151634.085000", "151635.285000", "151636.485000", "151637.685000", "151638.885000", "151640.085000", "151641.285000", "151642.485000", "151643.685000", "151644.885000", "151646.085000", "151647.285000", "151648.485000", "151649.685000", "151650.885000", "151652.085000", "151653.285000", "151654.485000", "151655.685000", "151656.885000", "151658.085000", "151659.285000", "151700.485000", "151701.685000", "151702.885000", "151704.085000", "151705.285000", "151706.485000", "151707.685000", "151708.885000", "151710.085000", "151711.285000", "151712.485000", "151713.685000", "151714.885000", "151716.085000", "151717.285000", "151718.485000", "151719.685000", "151720.885000", "151722.085000", "151723.285000", "151724.485000", "151725.685000", "151726.885000", "151728.085000", "151729.285000", "151730.485000", "151731.685000", "151732.885000", "151734.085000", "151735.285000", "151736.485000", "151737.685000", "151738.885000", "151740.085000", "151741.285000", "151742.485000", "151743.685000", "151744.885000", "151746.085000", "151747.285000", "151748.485000", "151749.685000", "151750.885000", "151752.085000", "151753.285000", "151754.485000", "151755.685000", "151756.885000", "151758.085000", "151759.285000", "151800.485000", "151801.685000", "151802.885000", "151804.085000", "151805.285000", "151806.485000", "151807.685000", "151808.885000", "151810.085000", "151811.285000", "151812.485000", "151813.685000", "151814.885000", "151816.085000", "151817.285000", "151818.485000", "151819.685000", "151820.885000", "151822.085000", "151823.285000", "151824.485000", "151825.685000", "151826.885000", "151828.085000", "151829.285000", "151830.485000", "151831.685000", "151832.885000", "151834.085000", "151835.285000", "151836.485000", "151837.685000", "151838.885000", "151840.085000", "151841.285000", "151842.485000", "151843.685000", "151844.885000", "151846.085000", "151847.285000", "151848.485000", "151849.685000", "151850.885000", "151852.085000", "151853.285000", "151854.485000", "151855.685000", "151856.885000", "151858.085000", "151859.285000", "151900.485000", "151901.685000", "151902.885000", "151904.085000", "151905.285000", "151906.485000", "151907.685000", "151908.885000", "151910.085000", "151911.285000", "151912.485000", "151913.685000", "151914.885000", "151916.085000", "151917.285000", "151918.485000", "151919.685000", "151920.885000", "151922.085000", "151923.285000", "151924.485000", "151925.685000", "151926.885000", "151928.085000", "151929.285000", "151930.485000", "151931.685000", "151932.885000", "151934.085000", "151935.285000", "151936.485000", "151937.685000", "151938.885000", "151940.085000", "151941.285000", "151942.485000", "151943.685000", "151944.885000", "151946.085000", "151947.285000", "151948.485000", "151949.685000", "151950.885000", "151952.085000", "151953.285000", "151954.485000", "151955.685000", "151956.885000", "151958.085000", "151959.285000", "152000.485000", "152001.685000", "152002.885000", "152004.085000", "152005.285000", "152006.485000", "152007.685000", "152008.885000", "152010.085000", "152011.285000", "152012.485000", "152013.685000", "152014.885000", "152016.085000", "152017.285000", "152018.485000", "152019.685000", "152020.885000", "152022.085000", "152023.285000", "152024.485000", "152025.685000", "152026.885000", "152028.085000", "152029.285000", "152030.485000", "152031.685000", "152032.885000", "152034.085000", "152035.285000", "152036.485000", "152037.685000", "152038.885000", "152040.085000", "152041.285000", "152042.485000", "152043.685000", "152044.885000", "152046.085000", "152047.285000", "152048.485000", "152049.685000", "152050.885000", "152052.085000", "152053.285000", "152054.485000", "152055.685000", "152056.885000", "152058.085000", "152059.285000", "152100.485000", "152101.685000", "152102.885000", "152104.085000", "152105.285000", "152106.485000", "152107.685000", "152108.885000", "152110.085000", "152111.285000", "152112.485000", "152113.685000", "152114.885000", "152116.085000", "152117.285000", "152118.485000", "152119.685000", "152120.885000", "152122.085000", "152123.285000", "152124.485000", "152125.685000", "152126.885000", "152128.085000", "152129.285000", "152130.485000", "152131.685000", "152132.885000", "152134.085000", "152135.285000", "152136.485000", "152137.685000", "152138.885000", "152140.085000", "152141.285000", "152142.485000", "152143.685000", "152144.885000", "152146.085000", "152147.285000", "152148.485000", "152149.685000", "152150.885000", "152152.085000", "152153.285000", "152154.485000", "152155.685000", "152156.885000", "152158.085000", "152159.285000", "152200.485000", "152201.685000", "152202.885000", "152204.085000", "152205.285000", "152206.485000", "152207.685000", "152208.885000", "152210.085000", "152211.285000", "152212.485000", "152213.685000", "152214.885000", "152216.085000", "152217.285000", "152218.485000", "152219.685000", "152220.885000", "152222.085000", "152223.285000", "152224.485000", "152225.685000", "152226.885000", "152228.085000", "152229.285000", "152230.485000", "152231.685000", "152232.885000", "152234.085000", "152235.285000", "152236.485000", "152237.685000", "152238.885000", "152240.085000", "152241.285000", "152242.485000", "152243.685000", "152244.885000", "152246.085000", "152247.285000", "152248.485000", "152249.685000", "152250.885000", "152252.085000", "152253.285000", "152254.485000", "152255.685000", "152256.885000", "152258.085000", "152259.285000", "152300.485000", "152301.685000", "152302.885000", "152304.085000", "152305.285000", "152306.485000", "152307.685000", "152308.885000", "152310.085000", "152311.285000", "152312.485000", "152313.685000", "152314.885000", "152316.085000", "152317.285000", "152318.485000", "152319.685000", "152320.885000", "152322.085000", "152323.285000", "152324.485000", "152325.685000", "152326.885000", "152328.085000", "152329.285000", "152330.485000", "152331.685000", "152332.885000", "152334.085000", "152335.285000", "152336.485000", "152337.685000", "152338.885000", "152340.085000", "152341.285000", "152342.485000", "152343.685000", "152344.885000", "152346.085000", "152347.285000", "152348.485000", "152349.685000", "152350.885000", "152352.085000", "152353.285000", "152354.485000"],
      "ContentTime": ["151631.372000", "151631.375000", "151631.378000", "151631.380000", "151631.383000", "151631.385000", "151631.388000", "151631.391000", "151631.393000", "151631.396000", "151631.409000", "151631.418000", "151631.420000", "151631.423000", "151631.426000", "151631.429000", "151631.431000", "151631.434000", "151631.436000", "151631.439000", "151631.441000", "151711.368000", "151711.371000", "151711.374000", "151711.376000", "151711.379000", "151711.382000", "151711.384000", "151711.387000", "151711.389000", "151711.392000", "151711.394000", "151711.397000", "151711.400000", "151711.402000", "151711.405000", "151711.408000", "151711.410000", "151711.413000", "151711.415000", "151711.418000", "151711.420000", "151711.423000", "151711.425000", "151711.428000", "151711.431000", "151711.433000", "151711.436000", "151711.438000", "151711.441000", "151711.443000", "151711.450000", "151711.453000", "151711.456000", "151751.369000", "151751.371000", "151751.374000", "151751.377000", "151751.379000", "151751.382000", "151751.384000", "151751.387000", "151751.389000", "151751.392000", "151751.394000", "151751.397000", "151751.400000", "151751.402000", "151751.405000", "151751.407000", "151751.410000", "151751.412000", "151751.415000", "151751.417000", "151751.420000", "151751.422000", "151751.425000", "151751.427000", "151751.430000", "151751.433000", "151751.435000", "151751.438000", "151751.440000", "151751.443000", "151751.445000", "151751.448000", "151751.450000", "151831.369000", "151831.371000", "151831.374000", "151831.377000", "151831.379000", "151831.382000", "151831.384000", "151831.387000", "151831.390000", "151831.392000", "151831.395000", "151831.398000", "151831.405000", "151831.407000", "151831.410000", "151831.412000", "151831.415000", "151831.418000", "151831.420000", "151831.423000", "151831.425000", "151831.428000", "151831.430000", "151831.433000", "151831.435000", "151831.438000", "151831.440000", "151831.443000", "151831.446000", "151831.448000", "151831.451000", "151831.453000", "151831.456000", "151831.458000", "151911.368000", "151911.371000", "151911.374000", "151911.376000", "151911.379000", "151911.381000", "151911.384000", "151911.387000", "151911.389000", "151911.392000", "151911.394000", "151911.397000", "151911.399000", "151911.402000", "151911.404000", "151911.407000", "151911.409000", "151911.412000", "151911.415000", "151911.417000", "151911.420000", "151911.422000", "151911.425000", "151911.439000", "151911.442000", "151911.444000", "151911.447000", "151911.449000", "151911.452000", "151911.454000", "151911.457000", "151911.459000", "151911.462000", "151951.368000", "151951.371000", "151951.374000", "151951.376000", "151951.379000", "151951.382000", "151951.384000", "151951.387000", "151951.389000", "151951.392000", "151951.394000", "151951.397000", "151951.400000", "151951.402000", "151951.405000", "151951.407000", "151951.410000", "151951.412000", "151951.415000", "151951.418000", "151951.420000", "151951.423000", "151951.425000", "151951.428000", "151951.430000", "151951.433000", "151951.435000", "151951.438000", "151951.441000", "151951.443000", "151951.446000", "151951.448000", "151951.451000", "152031.368000", "152031.371000", "152031.374000", "152031.376000", "152031.379000", "152031.382000", "152031.384000", "152031.387000", "152031.389000", "152031.392000", "152031.395000", "152031.397000", "152031.400000", "152031.402000", "152031.405000", "152031.407000", "152031.410000", "152031.412000", "152031.415000", "152031.418000", "152031.420000", "152031.423000", "152031.425000", "152031.428000", "152031.430000", "152031.433000", "152031.436000", "152031.438000", "152031.441000", "152031.443000", "152031.446000", "152031.448000", "152031.451000", "152031.453000", "152111.367000", "152111.370000", "152111.373000", "152111.375000", "152111.378000", "152111.381000", "152111.383000", "152111.386000", "152111.388000", "152111.391000", "152111.393000", "152111.396000", "152111.399000", "152111.401000", "152111.404000", "152111.406000", "152111.409000", "152111.411000", "152111.414000", "152111.416000", "152111.419000", "152111.422000", "152111.424000", "152111.427000", "152111.429000", "152111.432000", "152111.434000", "152111.437000", "152111.439000", "152111.442000", "152111.445000", "152111.447000", "152111.450000", "152131.368000", "152131.371000", "152131.374000", "152131.377000", "152131.379000", "152131.382000", "152131.384000", "152131.387000", "152131.390000", "152131.392000", "152131.395000", "152131.397000", "152131.400000", "152131.402000", "152131.405000", "152131.408000", "152131.410000", "152211.368000", "152211.371000", "152211.374000", "152211.382000", "152211.385000", "152211.388000", "152211.390000", "152211.393000", "152211.395000", "152211.398000", "152211.400000", "152211.403000", "152211.406000", "152211.408000", "152211.411000", "152211.413000", "152211.416000", "152211.419000", "152211.421000", "152211.424000", "152211.426000", "152211.429000", "152211.431000", "152211.434000", "152211.437000", "152211.439000", "152211.442000", "152211.444000", "152211.447000", "152211.449000", "152211.452000", "152211.455000", "152211.457000", "152251.369000", "152251.371000", "152251.374000", "152251.377000", "152251.379000", "152251.382000", "152251.384000", "152251.387000", "152251.389000", "152251.392000", "152251.395000", "152251.397000", "152251.400000", "152251.402000", "152251.405000", "152251.407000", "152251.410000", "152251.413000", "152251.415000", "152251.418000", "152251.420000", "152251.423000", "152251.425000", "152251.428000", "152251.431000", "152251.434000", "152251.436000", "152251.439000", "152251.441000", "152251.444000", "152251.446000", "152251.449000", "152251.451000", "152331.368000", "152331.371000", "152331.374000", "152331.377000", "152331.379000", "152331.382000", "152331.384000", "152331.387000", "152331.390000", "152331.392000", "152331.395000", "152331.397000", "152331.400000", "152331.403000", "152331.405000", "152331.408000", "152331.410000", "152331.413000", "152331.416000", "152331.418000", "152331.421000", "152331.423000", "152331.426000", "152331.428000", "152331.431000", "152331.433000", "152331.436000", "152331.438000", "152331.441000", "152331.444000", "152331.447000", "152331.449000", "152331.452000", "152331.454000", "152356.510000", "152356.513000", "152356.515000", "152356.518000", "152356.528000", "152356.531000", "152356.533000", "152356.536000", "152356.538000", "152356.541000", "152356.544000", "152356.546000", "152356.549000", "152356.551000", "152356.554000", "152356.557000", "152356.559000", "152356.562000", "152356.564000", "152356.567000", "152356.570000"],
      "InstanceCreationTime": ["151631.372000", "151631.375000", "151631.378000", "151631.380000", "151631.383000", "151631.385000", "151631.388000", "151631.391000", "151631.393000", "151631.396000", "151631.409000", "151631.418000", "151631.420000", "151631.423000", "151631.426000", "151631.429000", "151631.431000", "151631.434000", "151631.436000", "151631.439000", "151631.441000", "151711.368000", "151711.371000", "151711.374000", "151711.376000", "151711.379000", "151711.382000", "151711.384000", "151711.387000", "151711.389000", "151711.392000", "151711.394000", "151711.397000", "151711.400000", "151711.402000", "151711.405000", "151711.408000", "151711.410000", "151711.413000", "151711.415000", "151711.418000", "151711.420000", "151711.423000", "151711.425000", "151711.428000", "151711.431000", "151711.433000", "151711.436000", "151711.438000", "151711.441000", "151711.443000", "151711.450000", "151711.453000", "151711.456000", "151751.369000", "151751.371000", "151751.374000", "151751.377000", "151751.379000", "151751.382000", "151751.384000", "151751.387000", "151751.389000", "151751.392000", "151751.394000", "151751.397000", "151751.400000", "151751.402000", "151751.405000", "151751.407000", "151751.410000", "151751.412000", "151751.415000", "151751.417000", "151751.420000", "151751.422000", "151751.425000", "151751.427000", "151751.430000", "151751.433000", "151751.435000", "151751.438000", "151751.440000", "151751.443000", "151751.445000", "151751.448000", "151751.450000", "151831.369000", "151831.371000", "151831.374000", "151831.377000", "151831.379000", "151831.382000", "151831.384000", "151831.387000", "151831.390000", "151831.392000", "151831.395000", "151831.398000", "151831.405000", "151831.407000", "151831.410000", "151831.412000", "151831.415000", "151831.418000", "151831.420000", "151831.423000", "151831.425000", "151831.428000", "151831.430000", "151831.433000", "151831.435000", "151831.438000", "151831.440000", "151831.443000", "151831.446000", "151831.448000", "151831.451000", "151831.453000", "151831.456000", "151831.458000", "151911.368000", "151911.371000", "151911.374000", "151911.376000", "151911.379000", "151911.381000", "151911.384000", "151911.387000", "151911.389000", "151911.392000", "151911.394000", "151911.397000", "151911.399000", "151911.402000", "151911.404000", "151911.407000", "151911.409000", "151911.412000", "151911.415000", "151911.417000", "151911.420000", "151911.422000", "151911.425000", "151911.439000", "151911.442000", "151911.444000", "151911.447000", "151911.449000", "151911.452000", "151911.454000", "151911.457000", "151911.459000", "151911.462000", "151951.368000", "151951.371000", "151951.374000", "151951.376000", "151951.379000", "151951.382000", "151951.384000", "151951.387000", "151951.389000", "151951.392000", "151951.394000", "151951.397000", "151951.400000", "151951.402000", "151951.405000", "151951.407000", "151951.410000", "151951.412000", "151951.415000", "151951.418000", "151951.420000", "151951.423000", "151951.425000", "151951.428000", "151951.430000", "151951.433000", "151951.435000", "151951.438000", "151951.441000", "151951.443000", "151951.446000", "151951.448000", "151951.451000", "152031.368000", "152031.371000", "152031.374000", "152031.376000", "152031.379000", "152031.382000", "152031.384000", "152031.387000", "152031.389000", "152031.392000", "152031.395000", "152031.397000", "152031.400000", "152031.402000", "152031.405000", "152031.407000", "152031.410000", "152031.412000", "152031.415000", "152031.418000", "152031.420000", "152031.423000", "152031.425000", "152031.428000", "152031.430000", "152031.433000", "152031.436000", "152031.438000", "152031.441000", "152031.443000", "152031.446000", "152031.448000", "152031.451000", "152031.453000", "152111.367000", "152111.370000", "152111.373000", "152111.375000", "152111.378000", "152111.381000", "152111.383000", "152111.386000", "152111.388000", "152111.391000", "152111.393000", "152111.396000", "152111.399000", "152111.401000", "152111.404000", "152111.406000", "152111.409000", "152111.411000", "152111.414000", "152111.416000", "152111.419000", "152111.422000", "152111.424000", "152111.427000", "152111.429000", "152111.432000", "152111.434000", "152111.437000", "152111.439000", "152111.442000", "152111.445000", "152111.447000", "152111.450000", "152131.368000", "152131.371000", "152131.374000", "152131.377000", "152131.379000", "152131.382000", "152131.384000", "152131.387000", "152131.390000", "152131.392000", "152131.395000", "152131.397000", "152131.400000", "152131.402000", "152131.405000", "152131.408000", "152131.410000", "152211.368000", "152211.371000", "152211.374000", "152211.382000", "152211.385000", "152211.388000", "152211.390000", "152211.393000", "152211.395000", "152211.398000", "152211.400000", "152211.403000", "152211.406000", "152211.408000", "152211.411000", "152211.413000", "152211.416000", "152211.419000", "152211.421000", "152211.424000", "152211.426000", "152211.429000", "152211.431000", "152211.434000", "152211.437000", "152211.439000", "152211.442000", "152211.444000", "152211.447000", "152211.449000", "152211.452000", "152211.455000", "152211.457000", "152251.369000", "152251.371000", "152251.374000", "152251.377000", "152251.379000", "152251.382000", "152251.384000", "152251.387000", "152251.389000", "152251.392000", "152251.395000", "152251.397000", "152251.400000", "152251.402000", "152251.405000", "152251.407000", "152251.410000", "152251.413000", "152251.415000", "152251.418000", "152251.420000", "152251.423000", "152251.425000", "152251.428000", "152251.431000", "152251.434000", "152251.436000", "152251.439000", "152251.441000", "152251.444000", "152251.446000", "152251.449000", "152251.451000", "152331.368000", "152331.371000", "152331.374000", "152331.377000", "152331.379000", "152331.382000", "152331.384000", "152331.387000", "152331.390000", "152331.392000", "152331.395000", "152331.397000", "152331.400000", "152331.403000", "152331.405000", "152331.408000", "152331.410000", "152331.413000", "152331.416000", "152331.418000", "152331.421000", "152331.423000", "152331.426000", "152331.428000", "152331.431000", "152331.433000", "152331.436000", "152331.438000", "152331.441000", "152331.444000", "152331.447000", "152331.449000", "152331.452000", "152331.454000", "152356.510000", "152356.513000", "152356.515000", "152356.518000", "152356.528000", "152356.531000", "152356.533000", "152356.536000", "152356.538000", "152356.541000", "152356.544000", "152356.546000", "152356.549000", "152356.551000", "152356.554000", "152356.557000", "152356.559000", "152356.562000", "152356.564000", "152356.567000", "152356.570000"],
      "InstanceNumber": [1, 2, 3, 4, 5, 6, 7, 8, 9, 10, 11, 12, 13, 14, 15, 16, 17, 18, 19, 20, 21, 22, 23, 24, 25, 26, 27, 28, 29, 30, 31, 32, 33, 34, 35, 36, 37, 38, 39, 40, 41, 42, 43, 44, 45, 46, 47, 48, 49, 50, 51, 52, 53, 54, 55, 56, 57, 58, 59, 60, 61, 62, 63, 64, 65, 66, 67, 68, 69, 70, 71, 72, 73, 74, 75, 76, 77, 78, 79, 80, 81, 82, 83, 84, 85, 86, 87, 88, 89, 90, 91, 92, 93, 94, 95, 96, 97, 98, 99, 100, 101, 102, 103, 104, 105, 106, 107, 108, 109, 110, 111, 112, 113, 114, 115, 116, 117, 118, 119, 120, 121, 122, 123, 124, 125, 126, 127, 128, 129, 130, 131, 132, 133, 134, 135, 136, 137, 138, 139, 140, 141, 142, 143, 144, 145, 146, 147, 148, 149, 150, 151, 152, 153, 154, 155, 156, 157, 158, 159, 160, 161, 162, 163, 164, 165, 166, 167, 168, 169, 170, 171, 172, 173, 174, 175, 176, 177, 178, 179, 180, 181, 182, 183, 184, 185, 186, 187, 188, 189, 190, 191, 192, 193, 194, 195, 196, 197, 198, 199, 200, 201, 202, 203, 204, 205, 206, 207, 208, 209, 210, 211, 212, 213, 214, 215, 216, 217, 218, 219, 220, 221, 222, 223, 224, 225, 226, 227, 228, 229, 230, 231, 232, 233, 234, 235, 236, 237, 238, 239, 240, 241, 242, 243, 244, 245, 246, 247, 248, 249, 250, 251, 252, 253, 254, 255, 256, 257, 258, 259, 260, 261, 262, 263, 264, 265, 266, 267, 268, 269, 270, 271, 272, 273, 274, 275, 276, 277, 278, 279, 280, 281, 282, 283, 284, 285, 286, 287, 288, 289, 290, 291, 292, 293, 294, 295, 296, 297, 298, 299, 300, 301, 302, 303, 304, 305, 306, 307, 308, 309, 310, 311, 312, 313, 314, 315, 316, 317, 318, 319, 320, 321, 322, 323, 324, 325, 326, 327, 328, 329, 330, 331, 332, 333, 334, 335, 336, 337, 338, 339, 340, 341, 342, 343, 344, 345, 346, 347, 348, 349, 350, 351, 352, 353, 354, 355, 356, 357, 358, 359, 360, 361, 362, 363, 364, 365, 366, 367, 368, 369, 370, 371, 372, 373, 374, 375, 376, 377, 378, 379, 380, 381, 382, 383, 384, 385, 386, 387, 388, 389, 390, 391, 392],
