{
  "AcquisitionMatrixPE": 88,
  "AcquisitionNumber": 1,
  "AcquisitionTime": "15:51:39.590000",
  "BandwidthPerPixelPhaseEncode": 19.592,
  "BaseResolution": 88,
  "BodyPartExamined": "BRAIN",
  "ConsistencyInfo": "N4_VE11C_LATEST_20160120",
  "ConversionSoftware": "dcm2niix",
  "ConversionSoftwareVersion": "v1.0.20190902",
  "DerivedVendorReportedEchoSpacing": 0.000580014,
  "DeviceSerialNumber": "67050",
  "DwellTime": 2.6e-06,
  "EchoTime": 0.033,
  "EchoTrainLength": 88,
  "EffectiveEchoSpacing": 0.000580014,
  "FlipAngle": 62,
  "ImageOrientationPatientDICOM": [0.99862, 0.00904778, 0.0517284, -0.0101093, 0.999743, 0.0202959],
  "ImageType": [
    "ORIGINAL",
    "PRIMARY",
    "M",
    "ND",
    "MOSAIC"
],
  "ImagingFrequency": 123.251,
  "InPlanePhaseEncodingDirectionDICOM": "COL",
  "InstitutionAddress": "Olive_Street_60_Providence_RI_US_02912",
  "InstitutionName": "BROWN_UNIVERSITY_MRF",
  "InstitutionalDepartmentName": "Department",
  "MRAcquisitionType": "2D",
  "MagneticFieldStrength": 3,
  "Manufacturer": "Siemens",
  "ManufacturersModelName": "Prisma_fit",
  "Modality": "MR",
  "MultibandAccelerationFactor": 4,
  "PartialFourier": 1,
  "PatientPosition": "HFS",
  "PercentPhaseFOV": 100,
  "PhaseEncodingDirection": "j-",
  "PhaseEncodingSteps": 88,
  "PhaseResolution": 1,
  "PixelBandwidth": 2185,
  "ProcedureStepDescription": "ASHENHAV_1222",
  "ProtocolName": "func-bold_task-RDMcolor_run-06",
  "PulseSequenceDetails": "%SiemensSeq%_ep2d_bold",
  "ReceiveCoilActiveElements": "HC1-7",
  "ReceiveCoilName": "HeadNeck_64",
  "ReconMatrixPE": 88,
  "RefLinesPE": 8,
  "RepetitionTime": 1.2,
  "SAR": 0.0609255,
  "ScanOptions": "FS",
  "ScanningSequence": "EP",
  "SequenceName": "_epfid2d1_88",
  "SequenceVariant": "SK",
  "SeriesDescription": "func-bold_task-RDMcolor_run-06",
  "SeriesNumber": 18,
  "ShimSetting": [1749, -9088, 4398, 530, -107, -81, 4, 1],
  "SliceThickness": 2.4,
  "SliceTiming": [0.55, 0, 0.63, 0.0775, 0.7075, 0.1575, 0.7875, 0.235, 0.865, 0.315, 0.945, 0.3925, 1.0225, 0.4725, 1.1025, 0.55, 0, 0.63, 0.0775, 0.7075, 0.1575, 0.7875, 0.235, 0.865, 0.315, 0.945, 0.3925, 1.0225, 0.4725, 1.1025, 0.55, 0, 0.63, 0.0775, 0.7075, 0.1575, 0.7875, 0.235, 0.865, 0.315, 0.945, 0.3925, 1.0225, 0.4725, 1.1025, 0.55, 0, 0.63, 0.0775, 0.7075, 0.1575, 0.7875, 0.235, 0.865, 0.315, 0.945, 0.3925, 1.0225, 0.4725, 1.1025],
  "SoftwareVersions": "syngo_MR_E11",
  "SpacingBetweenSlices": 2.4,
  "StationName": "AWP67050",
  "TaskName": "RDMcolor",
  "TotalReadoutTime": 0.0504612,
  "TxRefAmp": 219.808,
  "dcmmeta_affine": [
    [-2.394418954849243, -0.024239283055067062, 0.12367545068264008, 103.76765441894531],
    [-0.021694105118513107, 2.3971107006073, 0.04989797994494438, -98.03829193115234],
    [0.12403051555156708, -0.04866401478648186, 2.396291732788086, -71.09801483154297],
    [0.0, 0.0, 0.0, 1.0]
],
  "dcmmeta_reorient_transform": [
    [0.0, -1.0, 0.0, 87.0],
    [1.0, 0.0, 0.0, 0.0],
    [0.0, 0.0, 1.0, 0.0],
    [0.0, 0.0, 0.0, 1.0]
],
  "dcmmeta_shape": [88, 88, 60, 392],
  "dcmmeta_slice_dim": 2,
  "dcmmeta_version": 0.6,
  "global": {
    "const": {
      "AcquisitionMatrix": [88, 0, 0, 88],
      "AngioFlag": "N",
      "BitsAllocated": 16,
      "BitsStored": 12,
      "BodyPartExamined": "BRAIN",
      "Columns": 704,
      "DeidentificationMethodCodeSequence": [
        {
          "CodeMeaning": "XNAT DicomEdit 6 Script",
          "CodeValue": "3",
          "CodingSchemeDesignator": "XNAT",
          "CodingSchemeVersion": "1.0"}
],
      "EchoNumbers": 1,
      "EchoTime": 33.0,
      "EchoTrainLength": 88,
      "FlipAngle": 62.0,
      "HighBit": 11,
      "ImageOrientationPatient": [0.99862020487187, 0.00904777854967, 0.05172836866729, -0.0101092745987, 0.99974290659484, 0.02029589319042],
      "ImagePositionPatient": [-831.6741494726, -855.50226399141, -128.52169941983],
      "ImageType": [
        "ORIGINAL",
        "PRIMARY",
        "M",
        "ND",
        "MOSAIC"
],
      "ImagedNucleus": "1H",
      "ImagingFrequency": 123.250778,
      "InPlanePhaseEncodingDirection": "COL",
      "MRAcquisitionType": "2D",
      "MagneticFieldStrength": 3.0,
      "Manufacturer": "SIEMENS",
      "ManufacturerModelName": "Prisma_fit",
      "Modality": "MR",
      "NumberOfAverages": 1.0,
      "NumberOfPhaseEncodingSteps": 88,
      "PercentPhaseFieldOfView": 100.0,
      "PercentSampling": 100.0,
      "PerformedProcedureStepStartTime": "143433.499000",
      "PhotometricInterpretation": "MONOCHROME2",
      "PixelBandwidth": 2185.0,
      "PixelRepresentation": 0,
      "PixelSpacing": [2.3977272510529, 2.3977272510529],
      "ProtocolName": "func-bold_task-RDMcolor_run-06",
      "RepetitionTime": 1200.0,
      "Rows": 704,
      "SAR": 0.06092552331689,
      "SamplesPerPixel": 1,
      "ScanOptions": "FS",
      "ScanningSequence": "EP",
      "SequenceName": "*epfid2d1_88",
      "SequenceVariant": "SK",
      "SeriesDescription": "func-bold_task-RDMcolor_run-06",
      "SeriesNumber": 18,
      "SeriesTime": "155151.369000",
      "SliceLocation": -67.679162675399,
      "SliceThickness": 2.4000000953674,
      "SmallestImagePixelValue": 0,
      "SoftwareVersions": "syngo MR E11",
      "SpacingBetweenSlices": 2.3999999914005,
      "SpecificCharacterSet": "ISO_IR 100",
      "StudyID": "1",
      "StudyTime": "143433.413000",
      "TransmitCoilName": "Body",
      "VariableFlipAngleFlag": "N",
      "WindowCenterWidthExplanation": "Algo1",
      "dBdt": 0.0},
    "slices": {}
  },
  "time": {
    "samples": {
      "AcquisitionNumber": [1, 2, 3, 4, 5, 6, 7, 8, 9, 10, 11, 12, 13, 14, 15, 16, 17, 18, 19, 20, 21, 22, 23, 24, 25, 26, 27, 28, 29, 30, 31, 32, 33, 34, 35, 36, 37, 38, 39, 40, 41, 42, 43, 44, 45, 46, 47, 48, 49, 50, 51, 52, 53, 54, 55, 56, 57, 58, 59, 60, 61, 62, 63, 64, 65, 66, 67, 68, 69, 70, 71, 72, 73, 74, 75, 76, 77, 78, 79, 80, 81, 82, 83, 84, 85, 86, 87, 88, 89, 90, 91, 92, 93, 94, 95, 96, 97, 98, 99, 100, 101, 102, 103, 104, 105, 106, 107, 108, 109, 110, 111, 112, 113, 114, 115, 116, 117, 118, 119, 120, 121, 122, 123, 124, 125, 126, 127, 128, 129, 130, 131, 132, 133, 134, 135, 136, 137, 138, 139, 140, 141, 142, 143, 144, 145, 146, 147, 148, 149, 150, 151, 152, 153, 154, 155, 156, 157, 158, 159, 160, 161, 162, 163, 164, 165, 166, 167, 168, 169, 170, 171, 172, 173, 174, 175, 176, 177, 178, 179, 180, 181, 182, 183, 184, 185, 186, 187, 188, 189, 190, 191, 192, 193, 194, 195, 196, 197, 198, 199, 200, 201, 202, 203, 204, 205, 206, 207, 208, 209, 210, 211, 212, 213, 214, 215, 216, 217, 218, 219, 220, 221, 222, 223, 224, 225, 226, 227, 228, 229, 230, 231, 232, 233, 234, 235, 236, 237, 238, 239, 240, 241, 242, 243, 244, 245, 246, 247, 248, 249, 250, 251, 252, 253, 254, 255, 256, 257, 258, 259, 260, 261, 262, 263, 264, 265, 266, 267, 268, 269, 270, 271, 272, 273, 274, 275, 276, 277, 278, 279, 280, 281, 282, 283, 284, 285, 286, 287, 288, 289, 290, 291, 292, 293, 294, 295, 296, 297, 298, 299, 300, 301, 302, 303, 304, 305, 306, 307, 308, 309, 310, 311, 312, 313, 314, 315, 316, 317, 318, 319, 320, 321, 322, 323, 324, 325, 326, 327, 328, 329, 330, 331, 332, 333, 334, 335, 336, 337, 338, 339, 340, 341, 342, 343, 344, 345, 346, 347, 348, 349, 350, 351, 352, 353, 354, 355, 356, 357, 358, 359, 360, 361, 362, 363, 364, 365, 366, 367, 368, 369, 370, 371, 372, 373, 374, 375, 376, 377, 378, 379, 380, 381, 382, 383, 384, 385, 386, 387, 388, 389, 390, 391, 392],
      "AcquisitionTime": ["155139.590000", "155140.790000", "155141.990000", "155143.190000", "155144.390000", "155145.590000", "155146.790000", "155147.990000", "155149.190000", "155150.390000", "155151.590000", "155152.790000", "155153.990000", "155155.190000", "155156.390000", "155157.590000", "155158.790000", "155159.990000", "155201.190000", "155202.390000", "155203.590000", "155204.790000", "155205.990000", "155207.190000", "155208.390000", "155209.590000", "155210.790000", "155211.990000", "155213.190000", "155214.390000", "155215.590000", "155216.790000", "155217.990000", "155219.190000", "155220.390000", "155221.590000", "155222.790000", "155223.990000", "155225.190000", "155226.390000", "155227.590000", "155228.790000", "155229.990000", "155231.190000", "155232.390000", "155233.590000", "155234.790000", "155235.990000", "155237.190000", "155238.390000", "155239.590000", "155240.790000", "155241.990000", "155243.190000", "155244.390000", "155245.590000", "155246.790000", "155247.990000", "155249.190000", "155250.390000", "155251.590000", "155252.790000", "155253.990000", "155255.190000", "155256.390000", "155257.590000", "155258.790000", "155259.990000", "155301.190000", "155302.390000", "155303.590000", "155304.790000", "155305.990000", "155307.190000", "155308.390000", "155309.590000", "155310.790000", "155311.990000", "155313.190000", "155314.390000", "155315.590000", "155316.790000", "155317.990000", "155319.190000", "155320.390000", "155321.590000", "155322.790000", "155323.990000", "155325.190000", "155326.390000", "155327.590000", "155328.790000", "155329.990000", "155331.190000", "155332.390000", "155333.590000", "155334.790000", "155335.990000", "155337.190000", "155338.390000", "155339.590000", "155340.790000", "155341.990000", "155343.190000", "155344.390000", "155345.590000", "155346.790000", "155347.990000", "155349.190000", "155350.390000", "155351.590000", "155352.790000", "155353.990000", "155355.190000", "155356.390000", "155357.590000", "155358.790000", "155359.990000", "155401.190000", "155402.390000", "155403.590000", "155404.790000", "155405.990000", "155407.190000", "155408.390000", "155409.590000", "155410.790000", "155411.990000", "155413.190000", "155414.390000", "155415.590000", "155416.790000", "155417.990000", "155419.190000", "155420.390000", "155421.590000", "155422.790000", "155423.990000", "155425.190000", "155426.390000", "155427.590000", "155428.790000", "155429.990000", "155431.190000", "155432.390000", "155433.590000", "155434.790000", "155435.990000", "155437.190000", "155438.390000", "155439.590000", "155440.790000", "155441.990000", "155443.190000", "155444.390000", "155445.590000", "155446.790000", "155447.990000", "155449.190000", "155450.390000", "155451.590000", "155452.790000", "155453.990000", "155455.190000", "155456.390000", "155457.590000", "155458.790000", "155459.990000", "155501.190000", "155502.390000", "155503.590000", "155504.790000", "155505.990000", "155507.190000", "155508.390000", "155509.590000", "155510.790000", "155511.990000", "155513.190000", "155514.390000", "155515.590000", "155516.790000", "155517.990000", "155519.190000", "155520.390000", "155521.590000", "155522.790000", "155523.990000", "155525.190000", "155526.390000", "155527.590000", "155528.790000", "155529.990000", "155531.190000", "155532.390000", "155533.590000", "155534.790000", "155535.990000", "155537.190000", "155538.390000", "155539.590000", "155540.790000", "155541.990000", "155543.190000", "155544.390000", "155545.590000", "155546.790000", "155547.990000", "155549.190000", "155550.390000", "155551.590000", "155552.790000", "155553.990000", "155555.190000", "155556.390000", "155557.590000", "155558.790000", "155559.990000", "155601.190000", "155602.390000", "155603.590000", "155604.790000", "155605.990000", "155607.190000", "155608.390000", "155609.590000", "155610.790000", "155611.990000", "155613.190000", "155614.390000", "155615.590000", "155616.790000", "155617.990000", "155619.190000", "155620.390000", "155621.590000", "155622.790000", "155623.990000", "155625.190000", "155626.390000", "155627.590000", "155628.790000", "155629.990000", "155631.190000", "155632.390000", "155633.590000", "155634.790000", "155635.990000", "155637.190000", "155638.390000", "155639.590000", "155640.790000", "155641.990000", "155643.190000", "155644.390000", "155645.590000", "155646.790000", "155647.990000", "155649.190000", "155650.390000", "155651.590000", "155652.790000", "155653.990000", "155655.190000", "155656.390000", "155657.590000", "155658.790000", "155659.990000", "155701.190000", "155702.390000", "155703.590000", "155704.790000", "155705.990000", "155707.190000", "155708.390000", "155709.590000", "155710.790000", "155711.990000", "155713.190000", "155714.390000", "155715.590000", "155716.790000", "155717.990000", "155719.190000", "155720.390000", "155721.590000", "155722.790000", "155723.990000", "155725.190000", "155726.390000", "155727.590000", "155728.790000", "155729.990000", "155731.190000", "155732.390000", "155733.590000", "155734.790000", "155735.990000", "155737.190000", "155738.390000", "155739.590000", "155740.790000", "155741.990000", "155743.190000", "155744.390000", "155745.590000", "155746.790000", "155747.990000", "155749.190000", "155750.390000", "155751.590000", "155752.790000", "155753.990000", "155755.190000", "155756.390000", "155757.590000", "155758.790000", "155759.990000", "155801.190000", "155802.390000", "155803.590000", "155804.790000", "155805.990000", "155807.190000", "155808.390000", "155809.590000", "155810.790000", "155811.990000", "155813.190000", "155814.390000", "155815.590000", "155816.790000", "155817.990000", "155819.190000", "155820.390000", "155821.590000", "155822.790000", "155823.990000", "155825.190000", "155826.390000", "155827.590000", "155828.790000", "155829.990000", "155831.190000", "155832.390000", "155833.590000", "155834.790000", "155835.990000", "155837.190000", "155838.390000", "155839.590000", "155840.790000", "155841.990000", "155843.190000", "155844.390000", "155845.590000", "155846.790000", "155847.990000", "155849.190000", "155850.390000", "155851.590000", "155852.790000", "155853.990000", "155855.190000", "155856.390000", "155857.590000", "155858.790000", "155859.990000", "155901.190000", "155902.390000", "155903.590000", "155904.790000", "155905.990000", "155907.190000", "155908.390000", "155909.590000", "155910.790000", "155911.990000", "155913.190000", "155914.390000", "155915.590000", "155916.790000", "155917.990000", "155919.190000", "155920.390000", "155921.590000", "155922.790000", "155923.990000", "155925.190000", "155926.390000", "155927.590000", "155928.790000"],
      "ContentTime": ["155151.373000", "155151.376000", "155151.390000", "155151.392000", "155151.395000", "155151.397000", "155151.400000", "155151.402000", "155151.405000", "155231.368000", "155231.371000", "155231.374000", "155231.376000", "155231.387000", "155231.389000", "155231.392000", "155231.395000", "155231.397000", "155231.400000", "155231.402000", "155231.405000", "155231.407000", "155231.410000", "155231.413000", "155231.415000", "155231.418000", "155231.420000", "155231.423000", "155231.426000", "155231.428000", "155231.431000", "155231.433000", "155231.436000", "155231.438000", "155231.441000", "155231.443000", "155231.446000", "155231.449000", "155231.451000", "155231.454000", "155231.456000", "155231.459000", "155311.368000", "155311.371000", "155311.374000", "155311.376000", "155311.379000", "155311.381000", "155311.384000", "155311.387000", "155311.389000", "155311.392000", "155311.417000", "155311.419000", "155311.422000", "155311.425000", "155311.427000", "155311.430000", "155311.432000", "155311.435000", "155311.438000", "155311.440000", "155311.443000", "155311.445000", "155311.448000", "155311.450000", "155311.453000", "155311.456000", "155311.458000", "155311.461000", "155311.463000", "155311.466000", "155311.469000", "155311.471000", "155311.474000", "155311.476000", "155351.369000", "155351.371000", "155351.374000", "155351.377000", "155351.379000", "155351.382000", "155351.384000", "155351.387000", "155351.390000", "155351.392000", "155351.395000", "155351.397000", "155351.400000", "155351.402000", "155351.405000", "155351.408000", "155351.410000", "155351.413000", "155351.415000", "155351.418000", "155351.421000", "155351.423000", "155351.426000", "155351.428000", "155351.431000", "155351.433000", "155351.436000", "155351.438000", "155351.441000", "155351.444000", "155351.446000", "155351.449000", "155351.451000", "155431.368000", "155431.371000", "155431.374000", "155431.377000", "155431.379000", "155431.383000", "155431.385000", "155431.388000", "155431.390000", "155431.393000", "155431.395000", "155431.398000", "155431.401000", "155431.403000", "155431.406000", "155431.408000", "155431.411000", "155431.413000", "155431.416000", "155431.419000", "155431.421000", "155431.424000", "155431.426000", "155431.429000", "155431.431000", "155431.434000", "155431.436000", "155431.439000", "155431.442000", "155431.444000", "155431.447000", "155431.449000", "155431.452000", "155511.369000", "155511.371000", "155511.374000", "155511.377000", "155511.379000", "155511.382000", "155511.384000", "155511.387000", "155511.390000", "155511.392000", "155511.395000", "155511.397000", "155511.400000", "155511.402000", "155511.405000", "155511.408000", "155511.410000", "155511.413000", "155511.415000", "155511.418000", "155511.420000", "155511.423000", "155511.425000", "155511.428000", "155511.430000", "155511.433000", "155511.436000", "155511.438000", "155511.441000", "155511.443000", "155511.446000", "155511.449000", "155511.451000", "155511.454000", "155551.367000", "155551.370000", "155551.373000", "155551.375000", "155551.378000", "155551.381000", "155551.383000", "155551.386000", "155551.389000", "155551.391000", "155551.394000", "155551.396000", "155551.399000", "155551.401000", "155551.404000", "155551.407000", "155551.409000", "155551.412000", "155551.414000", "155551.417000", "155551.420000", "155551.422000", "155551.425000", "155551.427000", "155551.430000", "155551.432000", "155551.435000", "155551.437000", "155551.440000", "155551.442000", "155551.445000", "155551.448000", "155551.450000", "155631.369000", "155631.372000", "155631.374000", "155631.377000", "155631.379000", "155631.382000", "155631.385000", "155631.387000", "155631.390000", "155631.392000", "155631.395000", "155631.397000", "155631.400000", "155631.402000", "155631.405000", "155631.408000", "155631.410000", "155631.413000", "155631.427000", "155631.430000", "155631.432000", "155631.435000", "155631.437000", "155631.440000", "155631.442000", "155631.445000", "155631.448000", "155631.450000", "155631.453000", "155631.455000", "155631.458000", "155631.460000", "155631.463000", "155711.368000", "155711.371000", "155711.374000", "155711.376000", "155711.379000", "155711.382000", "155711.384000", "155711.401000", "155711.404000", "155711.407000", "155711.409000", "155711.412000", "155711.414000", "155711.417000", "155711.419000", "155711.422000", "155711.425000", "155711.427000", "155711.430000", "155711.433000", "155711.435000", "155711.438000", "155711.441000", "155711.443000", "155711.446000", "155711.448000", "155711.451000", "155711.454000", "155711.456000", "155711.459000", "155711.461000", "155711.464000", "155711.466000", "155711.469000", "155751.368000", "155751.371000", "155751.374000", "155751.376000", "155751.379000", "155751.382000", "155751.384000", "155751.387000", "155751.389000", "155751.392000", "155751.395000", "155751.397000", "155751.400000", "155751.402000", "155751.405000", "155751.407000", "155751.410000", "155751.413000", "155751.415000", "155751.418000", "155751.420000", "155751.423000", "155751.425000", "155751.428000", "155751.430000", "155751.433000", "155751.436000", "155751.438000", "155751.441000", "155751.443000", "155751.446000", "155751.448000", "155751.451000", "155831.368000", "155831.371000", "155831.381000", "155831.383000", "155831.386000", "155831.389000", "155831.391000", "155831.394000", "155831.396000", "155831.399000", "155831.402000", "155831.404000", "155831.407000", "155831.409000", "155831.412000", "155831.414000", "155831.417000", "155831.420000", "155831.422000", "155831.425000", "155831.427000", "155831.430000", "155831.432000", "155831.435000", "155831.438000", "155831.440000", "155831.443000", "155831.445000", "155831.448000", "155831.451000", "155831.453000", "155831.456000", "155831.458000", "155911.368000", "155911.371000", "155911.374000", "155911.383000", "155911.385000", "155911.388000", "155911.390000", "155911.393000", "155911.396000", "155911.398000", "155911.401000", "155911.404000", "155911.406000", "155911.409000", "155911.412000", "155911.414000", "155911.417000", "155911.420000", "155911.422000", "155911.425000", "155911.427000", "155911.430000", "155911.433000", "155911.435000", "155911.438000", "155911.441000", "155911.443000", "155911.446000", "155911.448000", "155911.451000", "155911.453000", "155911.456000", "155911.459000", "155911.461000", "155930.546000", "155930.549000", "155930.552000", "155930.555000", "155930.557000", "155930.560000", "155930.563000", "155930.565000", "155930.568000", "155930.571000", "155930.573000", "155930.576000", "155930.578000", "155930.581000", "155930.584000", "155930.586000"],
      "InstanceCreationTime": ["155151.373000", "155151.376000", "155151.390000", "155151.392000", "155151.395000", "155151.397000", "155151.400000", "155151.402000", "155151.405000", "155231.368000", "155231.371000", "155231.374000", "155231.376000", "155231.387000", "155231.389000", "155231.392000", "155231.395000", "155231.397000", "155231.400000", "155231.402000", "155231.405000", "155231.407000", "155231.410000", "155231.413000", "155231.415000", "155231.418000", "155231.420000", "155231.423000", "155231.426000", "155231.428000", "155231.431000", "155231.433000", "155231.436000", "155231.438000", "155231.441000", "155231.443000", "155231.446000", "155231.449000", "155231.451000", "155231.454000", "155231.456000", "155231.459000", "155311.368000", "155311.371000", "155311.374000", "155311.376000", "155311.379000", "155311.381000", "155311.384000", "155311.387000", "155311.389000", "155311.392000", "155311.417000", "155311.419000", "155311.422000", "155311.425000", "155311.427000", "155311.430000", "155311.432000", "155311.435000", "155311.438000", "155311.440000", "155311.443000", "155311.445000", "155311.448000", "155311.450000", "155311.453000", "155311.456000", "155311.458000", "155311.461000", "155311.463000", "155311.466000", "155311.469000", "155311.471000", "155311.474000", "155311.476000", "155351.369000", "155351.371000", "155351.374000", "155351.377000", "155351.379000", "155351.382000", "155351.384000", "155351.387000", "155351.390000", "155351.392000", "155351.395000", "155351.397000", "155351.400000", "155351.402000", "155351.405000", "155351.408000", "155351.410000", "155351.413000", "155351.415000", "155351.418000", "155351.421000", "155351.423000", "155351.426000", "155351.428000", "155351.431000", "155351.433000", "155351.436000", "155351.438000", "155351.441000", "155351.444000", "155351.446000", "155351.449000", "155351.451000", "155431.368000", "155431.371000", "155431.374000", "155431.377000", "155431.379000", "155431.383000", "155431.385000", "155431.388000", "155431.390000", "155431.393000", "155431.395000", "155431.398000", "155431.401000", "155431.403000", "155431.406000", "155431.408000", "155431.411000", "155431.413000", "155431.416000", "155431.419000", "155431.421000", "155431.424000", "155431.426000", "155431.429000", "155431.431000", "155431.434000", "155431.436000", "155431.439000", "155431.442000", "155431.444000", "155431.447000", "155431.449000", "155431.452000", "155511.369000", "155511.371000", "155511.374000", "155511.377000", "155511.379000", "155511.382000", "155511.384000", "155511.387000", "155511.390000", "155511.392000", "155511.395000", "155511.397000", "155511.400000", "155511.402000", "155511.405000", "155511.408000", "155511.410000", "155511.413000", "155511.415000", "155511.418000", "155511.420000", "155511.423000", "155511.425000", "155511.428000", "155511.430000", "155511.433000", "155511.436000", "155511.438000", "155511.441000", "155511.443000", "155511.446000", "155511.449000", "155511.451000", "155511.454000", "155551.367000", "155551.370000", "155551.373000", "155551.375000", "155551.378000", "155551.381000", "155551.383000", "155551.386000", "155551.389000", "155551.391000", "155551.394000", "155551.396000", "155551.399000", "155551.401000", "155551.404000", "155551.407000", "155551.409000", "155551.412000", "155551.414000", "155551.417000", "155551.420000", "155551.422000", "155551.425000", "155551.427000", "155551.430000", "155551.432000", "155551.435000", "155551.437000", "155551.440000", "155551.442000", "155551.445000", "155551.448000", "155551.450000", "155631.369000", "155631.372000", "155631.374000", "155631.377000", "155631.379000", "155631.382000", "155631.385000", "155631.387000", "155631.390000", "155631.392000", "155631.395000", "155631.397000", "155631.400000", "155631.402000", "155631.405000", "155631.408000", "155631.410000", "155631.413000", "155631.427000", "155631.430000", "155631.432000", "155631.435000", "155631.437000", "155631.440000", "155631.442000", "155631.445000", "155631.448000", "155631.450000", "155631.453000", "155631.455000", "155631.458000", "155631.460000", "155631.463000", "155711.368000", "155711.371000", "155711.374000", "155711.376000", "155711.379000", "155711.382000", "155711.384000", "155711.401000", "155711.404000", "155711.407000", "155711.409000", "155711.412000", "155711.414000", "155711.417000", "155711.419000", "155711.422000", "155711.425000", "155711.427000", "155711.430000", "155711.433000", "155711.435000", "155711.438000", "155711.441000", "155711.443000", "155711.446000", "155711.448000", "155711.451000", "155711.454000", "155711.456000", "155711.459000", "155711.461000", "155711.464000", "155711.466000", "155711.469000", "155751.368000", "155751.371000", "155751.374000", "155751.376000", "155751.379000", "155751.382000", "155751.384000", "155751.387000", "155751.389000", "155751.392000", "155751.395000", "155751.397000", "155751.400000", "155751.402000", "155751.405000", "155751.407000", "155751.410000", "155751.413000", "155751.415000", "155751.418000", "155751.420000", "155751.423000", "155751.425000", "155751.428000", "155751.430000", "155751.433000", "155751.436000", "155751.438000", "155751.441000", "155751.443000", "155751.446000", "155751.448000", "155751.451000", "155831.368000", "155831.371000", "155831.381000", "155831.383000", "155831.386000", "155831.389000", "155831.391000", "155831.394000", "155831.396000", "155831.399000", "155831.402000", "155831.404000", "155831.407000", "155831.409000", "155831.412000", "155831.414000", "155831.417000", "155831.420000", "155831.422000", "155831.425000", "155831.427000", "155831.430000", "155831.432000", "155831.435000", "155831.438000", "155831.440000", "155831.443000", "155831.445000", "155831.448000", "155831.451000", "155831.453000", "155831.456000", "155831.458000", "155911.368000", "155911.371000", "155911.374000", "155911.383000", "155911.385000", "155911.388000", "155911.390000", "155911.393000", "155911.396000", "155911.398000", "155911.401000", "155911.404000", "155911.406000", "155911.409000", "155911.412000", "155911.414000", "155911.417000", "155911.420000", "155911.422000", "155911.425000", "155911.427000", "155911.430000", "155911.433000", "155911.435000", "155911.438000", "155911.441000", "155911.443000", "155911.446000", "155911.448000", "155911.451000", "155911.453000", "155911.456000", "155911.459000", "155911.461000", "155930.546000", "155930.549000", "155930.552000", "155930.555000", "155930.557000", "155930.560000", "155930.563000", "155930.565000", "155930.568000", "155930.571000", "155930.573000", "155930.576000", "155930.578000", "155930.581000", "155930.584000", "155930.586000"],
      "InstanceNumber": [1, 2, 3, 4, 5, 6, 7, 8, 9, 10, 11, 12, 13, 14, 15, 16, 17, 18, 19, 20, 21, 22, 23, 24, 25, 26, 27, 28, 29, 30, 31, 32, 33, 34, 35, 36, 37, 38, 39, 40, 41, 42, 43, 44, 45, 46, 47, 48, 49, 50, 51, 52, 53, 54, 55, 56, 57, 58, 59, 60, 61, 62, 63, 64, 65, 66, 67, 68, 69, 70, 71, 72, 73, 74, 75, 76, 77, 78, 79, 80, 81, 82, 83, 84, 85, 86, 87, 88, 89, 90, 91, 92, 93, 94, 95, 96, 97, 98, 99, 100, 101, 102, 103, 104, 105, 106, 107, 108, 109, 110, 111, 112, 113, 114, 115, 116, 117, 118, 119, 120, 121, 122, 123, 124, 125, 126, 127, 128, 129, 130, 131, 132, 133, 134, 135, 136, 137, 138, 139, 140, 141, 142, 143, 144, 145, 146, 147, 148, 149, 150, 151, 152, 153, 154, 155, 156, 157, 158, 159, 160, 161, 162, 163, 164, 165, 166, 167, 168, 169, 170, 171, 172, 173, 174, 175, 176, 177, 178, 179, 180, 181, 182, 183, 184, 185, 186, 187, 188, 189, 190, 191, 192, 193, 194, 195, 196, 197, 198, 199, 200, 201, 202, 203, 204, 205, 206, 207, 208, 209, 210, 211, 212, 213, 214, 215, 216, 217, 218, 219, 220, 221, 222, 223, 224, 225, 226, 227, 228, 229, 230, 231, 232, 233, 234, 235, 236, 237, 238, 239, 240, 241, 242, 243, 244, 245, 246, 247, 248, 249, 250, 251, 252, 253, 254, 255, 256, 257, 258, 259, 260, 261, 262, 263, 264, 265, 266, 267, 268, 269, 270, 271, 272, 273, 274, 275, 276, 277, 278, 279, 280, 281, 282, 283, 284, 285, 286, 287, 288, 289, 290, 291, 292, 293, 294, 295, 296, 297, 298, 299, 300, 301, 302, 303, 304, 305, 306, 307, 308, 309, 310, 311, 312, 313, 314, 315, 316, 317, 318, 319, 320, 321, 322, 323, 324, 325, 326, 327, 328, 329, 330, 331, 332, 333, 334, 335, 336, 337, 338, 339, 340, 341, 342, 343, 344, 345, 346, 347, 348, 349, 350, 351, 352, 353, 354, 355, 356, 357, 358, 359, 360, 361, 362, 363, 364, 365, 366, 367, 368, 369, 370, 371, 372, 373, 374, 375, 376, 377, 378, 379, 380, 381, 382, 383, 384, 385, 386, 387, 388, 389, 390, 391, 392],
