{
  "AcquisitionMatrixPE": 88,
  "AcquisitionNumber": 1,
  "AcquisitionTime": "12:05:37.565000",
  "BandwidthPerPixelPhaseEncode": 19.592,
  "BaseResolution": 88,
  "BodyPartExamined": "BRAIN",
  "ConsistencyInfo": "N4_VE11C_LATEST_20160120",
  "ConversionSoftware": "dcm2niix",
  "ConversionSoftwareVersion": "v1.0.20190902",
  "DerivedVendorReportedEchoSpacing": 0.000580014,
  "DeviceSerialNumber": "67050",
  "DwellTime": 2.6e-06,
  "EchoTime": 0.033,
  "EchoTrainLength": 88,
  "EffectiveEchoSpacing": 0.000580014,
  "FlipAngle": 62,
  "ImageOrientationPatientDICOM": [0.99137, -0.0233719, -0.128997, 0.0263063, 0.999431, 0.0210909],
  "ImageType": [
    "ORIGINAL",
    "PRIMARY",
    "M",
    "ND",
    "MOSAIC"
],
  "ImagingFrequency": 123.251,
  "InPlanePhaseEncodingDirectionDICOM": "COL",
  "InstitutionAddress": "Olive_Street_60_Providence_RI_US_02912",
  "InstitutionName": "BROWN_UNIVERSITY_MRF",
  "InstitutionalDepartmentName": "Department",
  "MRAcquisitionType": "2D",
  "MagneticFieldStrength": 3,
  "Manufacturer": "Siemens",
  "ManufacturersModelName": "Prisma_fit",
  "Modality": "MR",
  "MultibandAccelerationFactor": 4,
  "PartialFourier": 1,
  "PatientPosition": "HFS",
  "PercentPhaseFOV": 100,
  "PhaseEncodingDirection": "j-",
  "PhaseEncodingSteps": 88,
  "PhaseResolution": 1,
  "PixelBandwidth": 2185,
  "ProcedureStepDescription": "ASHENHAV_1222",
  "ProtocolName": "func-bold_task-RDMlocalizer_run-01",
  "PulseSequenceDetails": "%SiemensSeq%_ep2d_bold",
  "ReceiveCoilActiveElements": "HC1-7",
  "ReceiveCoilName": "HeadNeck_64",
  "ReconMatrixPE": 88,
  "RefLinesPE": 8,
  "RepetitionTime": 1.2,
  "SAR": 0.054755,
  "ScanOptions": "FS",
  "ScanningSequence": "EP",
  "SequenceName": "_epfid2d1_88",
  "SequenceVariant": "SK",
  "SeriesDescription": "func-bold_task-RDMlocalizer_run-01",
  "SeriesNumber": 19,
  "ShimSetting": [1723, -9117, 4435, 490, 22, -188, -99, -23],
  "SliceThickness": 2.4,
  "SliceTiming": [0.55, 0, 0.6275, 0.0775, 0.7075, 0.155, 0.785, 0.235, 0.865, 0.3125, 0.9425, 0.3925, 1.0225, 0.47, 1.1, 0.55, 0, 0.6275, 0.0775, 0.7075, 0.155, 0.785, 0.235, 0.865, 0.3125, 0.9425, 0.3925, 1.0225, 0.47, 1.1, 0.55, 0, 0.6275, 0.0775, 0.7075, 0.155, 0.785, 0.235, 0.865, 0.3125, 0.9425, 0.3925, 1.0225, 0.47, 1.1, 0.55, 0, 0.6275, 0.0775, 0.7075, 0.155, 0.785, 0.235, 0.865, 0.3125, 0.9425, 0.3925, 1.0225, 0.47, 1.1],
  "SoftwareVersions": "syngo_MR_E11",
  "SpacingBetweenSlices": 2.4,
  "StationName": "AWP67050",
  "TaskName": "RDMlocalizer",
  "TotalReadoutTime": 0.0504612,
  "TxRefAmp": 215.627,
  "dcmmeta_affine": [
    [-2.3770337104797363, 0.06307527422904968, -0.30823373794555664, 104.931396484375],
    [0.056039370596408844, 2.3963639736175537, 0.058325450867414474, -107.56715393066406],
    [-0.30929961800575256, -0.05057014152407646, 2.3794095516204834, -30.331119537353516],
    [0.0, 0.0, 0.0, 1.0]
],
  "dcmmeta_reorient_transform": [
    [0.0, -1.0, 0.0, 87.0],
    [1.0, 0.0, 0.0, 0.0],
    [0.0, 0.0, 1.0, 0.0],
    [0.0, 0.0, 0.0, 1.0]
],
  "dcmmeta_shape": [88, 88, 60, 195],
  "dcmmeta_slice_dim": 2,
  "dcmmeta_version": 0.6,
  "global": {
    "const": {
      "AcquisitionMatrix": [88, 0, 0, 88],
      "AngioFlag": "N",
      "BitsAllocated": 16,
      "BitsStored": 12,
      "BodyPartExamined": "BRAIN",
      "Columns": 704,
      "DeidentificationMethodCodeSequence": [
        {
          "CodeMeaning": "XNAT DicomEdit 6 Script",
          "CodeValue": "3",
          "CodingSchemeDesignator": "XNAT",
          "CodingSchemeVersion": "1.0"}
],
      "EchoNumbers": 1,
      "EchoTime": 33.0,
      "EchoTrainLength": 88,
      "FlipAngle": 62.0,
      "HighBit": 11,
      "ImageOrientationPatient": [0.99136952244991, -0.0233718706033, -0.1289969984997, 0.02630627578245, 0.99943141598228, 0.02109086537136],
      "ImagePositionPatient": [-861.97251580996, -821.73647669354, 44.957956964073],
      "ImageType": [
        "ORIGINAL",
        "PRIMARY",
        "M",
        "ND",
        "MOSAIC"
],
      "ImagedNucleus": "1H",
      "ImagingFrequency": 123.25067,
      "InPlanePhaseEncodingDirection": "COL",
      "MRAcquisitionType": "2D",
      "MagneticFieldStrength": 3.0,
      "Manufacturer": "SIEMENS",
      "ManufacturerModelName": "Prisma_fit",
      "Modality": "MR",
      "NumberOfAverages": 1.0,
      "NumberOfPhaseEncodingSteps": 88,
      "PercentPhaseFieldOfView": 100.0,
      "PercentSampling": 100.0,
      "PerformedProcedureStepStartTime": "104127.933000",
      "PhotometricInterpretation": "MONOCHROME2",
      "PixelBandwidth": 2185.0,
      "PixelRepresentation": 0,
      "PixelSpacing": [2.3977272510529, 2.3977272510529],
      "ProtocolName": "func-bold_task-RDMlocalizer_run-01",
      "RepetitionTime": 1200.0,
      "Rows": 704,
      "SAR": 0.05475499459207,
      "SamplesPerPixel": 1,
      "ScanOptions": "FS",
      "ScanningSequence": "EP",
      "SequenceName": "*epfid2d1_88",
      "SequenceVariant": "SK",
      "SeriesDescription": "func-bold_task-RDMlocalizer_run-01",
      "SeriesNumber": 19,
      "SeriesTime": "120602.996000",
      "SliceLocation": -46.161439644074,
      "SliceThickness": 2.4000000953674,
      "SmallestImagePixelValue": 0,
      "SoftwareVersions": "syngo MR E11",
      "SpacingBetweenSlices": 2.3999999826302,
      "SpecificCharacterSet": "ISO_IR 100",
      "StudyID": "1",
      "StudyTime": "104127.873000",
      "TransmitCoilName": "Body",
      "VariableFlipAngleFlag": "N",
      "WindowCenterWidthExplanation": "Algo1",
      "dBdt": 0.0},
    "slices": {}
  },
  "time": {
    "samples": {
      "AcquisitionNumber": [1, 2, 3, 4, 5, 6, 7, 8, 9, 10, 11, 12, 13, 14, 15, 16, 17, 18, 19, 20, 21, 22, 23, 24, 25, 26, 27, 28, 29, 30, 31, 32, 33, 34, 35, 36, 37, 38, 39, 40, 41, 42, 43, 44, 45, 46, 47, 48, 49, 50, 51, 52, 53, 54, 55, 56, 57, 58, 59, 60, 61, 62, 63, 64, 65, 66, 67, 68, 69, 70, 71, 72, 73, 74, 75, 76, 77, 78, 79, 80, 81, 82, 83, 84, 85, 86, 87, 88, 89, 90, 91, 92, 93, 94, 95, 96, 97, 98, 99, 100, 101, 102, 103, 104, 105, 106, 107, 108, 109, 110, 111, 112, 113, 114, 115, 116, 117, 118, 119, 120, 121, 122, 123, 124, 125, 126, 127, 128, 129, 130, 131, 132, 133, 134, 135, 136, 137, 138, 139, 140, 141, 142, 143, 144, 145, 146, 147, 148, 149, 150, 151, 152, 153, 154, 155, 156, 157, 158, 159, 160, 161, 162, 163, 164, 165, 166, 167, 168, 169, 170, 171, 172, 173, 174, 175, 176, 177, 178, 179, 180, 181, 182, 183, 184, 185, 186, 187, 188, 189, 190, 191, 192, 193, 194, 195],
      "AcquisitionTime": ["120537.565000", "120538.765000", "120539.965000", "120541.165000", "120542.365000", "120543.565000", "120544.765000", "120545.965000", "120547.165000", "120548.365000", "120549.565000", "120550.765000", "120551.965000", "120553.165000", "120554.365000", "120555.565000", "120556.765000", "120557.965000", "120559.165000", "120600.365000", "120601.565000", "120602.765000", "120603.965000", "120605.165000", "120606.365000", "120607.565000", "120608.765000", "120609.965000", "120611.165000", "120612.365000", "120613.565000", "120614.765000", "120615.965000", "120617.165000", "120618.365000", "120619.565000", "120620.765000", "120621.965000", "120623.165000", "120624.365000", "120625.565000", "120626.765000", "120627.965000", "120629.165000", "120630.365000", "120631.565000", "120632.765000", "120633.965000", "120635.165000", "120636.365000", "120637.565000", "120638.765000", "120639.965000", "120641.165000", "120642.365000", "120643.565000", "120644.765000", "120645.965000", "120647.165000", "120648.365000", "120649.565000", "120650.765000", "120651.965000", "120653.165000", "120654.365000", "120655.565000", "120656.765000", "120657.965000", "120659.165000", "120700.365000", "120701.565000", "120702.765000", "120703.965000", "120705.165000", "120706.365000", "120707.565000", "120708.765000", "120709.965000", "120711.165000", "120712.365000", "120713.565000", "120714.765000", "120715.965000", "120717.165000", "120718.365000", "120719.565000", "120720.765000", "120721.965000", "120723.165000", "120724.365000", "120725.565000", "120726.765000", "120727.965000", "120729.165000", "120730.365000", "120731.565000", "120732.765000", "120733.965000", "120735.165000", "120736.365000", "120737.565000", "120738.765000", "120739.965000", "120741.165000", "120742.365000", "120743.565000", "120744.765000", "120745.965000", "120747.165000", "120748.365000", "120749.565000", "120750.765000", "120751.965000", "120753.165000", "120754.365000", "120755.565000", "120756.765000", "120757.965000", "120759.165000", "120800.365000", "120801.565000", "120802.765000", "120803.965000", "120805.165000", "120806.365000", "120807.565000", "120808.765000", "120809.965000", "120811.165000", "120812.365000", "120813.565000", "120814.765000", "120815.965000", "120817.165000", "120818.365000", "120819.565000", "120820.765000", "120821.965000", "120823.165000", "120824.365000", "120825.565000", "120826.765000", "120827.965000", "120829.165000", "120830.365000", "120831.565000", "120832.765000", "120833.965000", "120835.165000", "120836.365000", "120837.565000", "120838.765000", "120839.965000", "120841.165000", "120842.365000", "120843.565000", "120844.765000", "120845.965000", "120847.165000", "120848.365000", "120849.565000", "120850.765000", "120851.965000", "120853.165000", "120854.365000", "120855.565000", "120856.765000", "120857.965000", "120859.165000", "120900.365000", "120901.565000", "120902.765000", "120903.965000", "120905.165000", "120906.365000", "120907.565000", "120908.765000", "120909.965000", "120911.165000", "120912.365000", "120913.565000", "120914.765000", "120915.965000", "120917.165000", "120918.365000", "120919.565000", "120920.765000", "120921.965000", "120923.165000", "120924.365000", "120925.565000", "120926.765000", "120927.965000", "120929.165000", "120930.365000"],
      "ContentTime": ["120603.000000", "120603.004000", "120603.006000", "120603.009000", "120603.011000", "120603.014000", "120603.017000", "120603.019000", "120603.022000", "120603.024000", "120603.027000", "120603.029000", "120603.040000", "120603.042000", "120603.045000", "120603.053000", "120603.056000", "120603.059000", "120603.061000", "120603.064000", "120642.994000", "120643.002000", "120643.004000", "120643.007000", "120643.009000", "120643.012000", "120643.015000", "120643.017000", "120643.020000", "120643.022000", "120643.025000", "120643.027000", "120643.030000", "120643.033000", "120643.035000", "120643.038000", "120643.041000", "120643.043000", "120643.046000", "120643.049000", "120643.051000", "120643.054000", "120643.056000", "120643.059000", "120643.061000", "120643.064000", "120643.067000", "120643.069000", "120643.072000", "120643.074000", "120643.077000", "120643.079000", "120643.082000", "120643.085000", "120722.993000", "120722.996000", "120723.000000", "120723.003000", "120723.005000", "120723.008000", "120723.010000", "120723.013000", "120723.015000", "120723.018000", "120723.021000", "120723.023000", "120723.026000", "120723.029000", "120723.031000", "120723.034000", "120723.036000", "120723.039000", "120723.041000", "120723.044000", "120723.047000", "120723.049000", "120723.052000", "120723.054000", "120723.057000", "120723.060000", "120723.062000", "120723.065000", "120723.067000", "120723.070000", "120723.072000", "120723.075000", "120723.078000", "120802.994000", "120802.997000", "120803.001000", "120803.004000", "120803.006000", "120803.009000", "120803.012000", "120803.014000", "120803.017000", "120803.020000", "120803.022000", "120803.025000", "120803.027000", "120803.030000", "120803.032000", "120803.035000", "120803.038000", "120803.040000", "120803.043000", "120803.046000", "120803.049000", "120803.051000", "120803.054000", "120803.066000", "120803.075000", "120803.081000", "120803.087000", "120803.090000", "120803.093000", "120803.095000", "120803.112000", "120803.115000", "120803.118000", "120842.995000", "120842.997000", "120843.001000", "120843.004000", "120843.006000", "120843.009000", "120843.011000", "120843.014000", "120843.017000", "120843.020000", "120843.022000", "120843.025000", "120843.028000", "120843.030000", "120843.033000", "120843.036000", "120843.038000", "120843.041000", "120843.043000", "120843.046000", "120843.049000", "120843.051000", "120843.054000", "120843.057000", "120843.059000", "120843.062000", "120843.064000", "120843.067000", "120843.070000", "120843.072000", "120843.075000", "120843.078000", "120843.080000", "120843.083000", "120922.994000", "120922.997000", "120923.001000", "120923.004000", "120923.007000", "120923.009000", "120923.012000", "120923.015000", "120923.017000", "120923.020000", "120923.022000", "120923.025000", "120923.028000", "120923.030000", "120923.033000", "120923.035000", "120923.038000", "120923.041000", "120923.043000", "120923.046000", "120923.049000", "120923.052000", "120923.060000", "120923.063000", "120923.066000", "120923.068000", "120923.071000", "120923.074000", "120923.077000", "120923.079000", "120923.082000", "120923.085000", "120923.087000", "120932.081000", "120932.084000", "120932.087000", "120932.089000", "120932.092000", "120932.095000", "120932.097000", "120932.100000"],
      "InstanceCreationTime": ["120603.000000", "120603.004000", "120603.006000", "120603.009000", "120603.011000", "120603.014000", "120603.017000", "120603.019000", "120603.022000", "120603.024000", "120603.027000", "120603.029000", "120603.040000", "120603.042000", "120603.045000", "120603.053000", "120603.056000", "120603.059000", "120603.061000", "120603.064000", "120642.994000", "120643.002000", "120643.004000", "120643.007000", "120643.009000", "120643.012000", "120643.015000", "120643.017000", "120643.020000", "120643.022000", "120643.025000", "120643.027000", "120643.030000", "120643.033000", "120643.035000", "120643.038000", "120643.041000", "120643.043000", "120643.046000", "120643.049000", "120643.051000", "120643.054000", "120643.056000", "120643.059000", "120643.061000", "120643.064000", "120643.067000", "120643.069000", "120643.072000", "120643.074000", "120643.077000", "120643.079000", "120643.082000", "120643.085000", "120722.993000", "120722.996000", "120723.000000", "120723.003000", "120723.005000", "120723.008000", "120723.010000", "120723.013000", "120723.015000", "120723.018000", "120723.021000", "120723.023000", "120723.026000", "120723.029000", "120723.031000", "120723.034000", "120723.036000", "120723.039000", "120723.041000", "120723.044000", "120723.047000", "120723.049000", "120723.052000", "120723.054000", "120723.057000", "120723.060000", "120723.062000", "120723.065000", "120723.067000", "120723.070000", "120723.072000", "120723.075000", "120723.078000", "120802.994000", "120802.997000", "120803.001000", "120803.004000", "120803.006000", "120803.009000", "120803.012000", "120803.014000", "120803.017000", "120803.020000", "120803.022000", "120803.025000", "120803.027000", "120803.030000", "120803.032000", "120803.035000", "120803.038000", "120803.040000", "120803.043000", "120803.046000", "120803.049000", "120803.051000", "120803.054000", "120803.066000", "120803.075000", "120803.081000", "120803.087000", "120803.090000", "120803.093000", "120803.095000", "120803.112000", "120803.115000", "120803.118000", "120842.995000", "120842.997000", "120843.001000", "120843.004000", "120843.006000", "120843.009000", "120843.011000", "120843.014000", "120843.017000", "120843.020000", "120843.022000", "120843.025000", "120843.028000", "120843.030000", "120843.033000", "120843.036000", "120843.038000", "120843.041000", "120843.043000", "120843.046000", "120843.049000", "120843.051000", "120843.054000", "120843.057000", "120843.059000", "120843.062000", "120843.064000", "120843.067000", "120843.070000", "120843.072000", "120843.075000", "120843.078000", "120843.080000", "120843.083000", "120922.994000", "120922.997000", "120923.001000", "120923.004000", "120923.007000", "120923.009000", "120923.012000", "120923.015000", "120923.017000", "120923.020000", "120923.022000", "120923.025000", "120923.028000", "120923.030000", "120923.033000", "120923.035000", "120923.038000", "120923.041000", "120923.043000", "120923.046000", "120923.049000", "120923.052000", "120923.060000", "120923.063000", "120923.066000", "120923.068000", "120923.071000", "120923.074000", "120923.077000", "120923.079000", "120923.082000", "120923.085000", "120923.087000", "120932.081000", "120932.084000", "120932.087000", "120932.089000", "120932.092000", "120932.095000", "120932.097000", "120932.100000"],
      "InstanceNumber": [1, 2, 3, 4, 5, 6, 7, 8, 9, 10, 11, 12, 13, 14, 15, 16, 17, 18, 19, 20, 21, 22, 23, 24, 25, 26, 27, 28, 29, 30, 31, 32, 33, 34, 35, 36, 37, 38, 39, 40, 41, 42, 43, 44, 45, 46, 47, 48, 49, 50, 51, 52, 53, 54, 55, 56, 57, 58, 59, 60, 61, 62, 63, 64, 65, 66, 67, 68, 69, 70, 71, 72, 73, 74, 75, 76, 77, 78, 79, 80, 81, 82, 83, 84, 85, 86, 87, 88, 89, 90, 91, 92, 93, 94, 95, 96, 97, 98, 99, 100, 101, 102, 103, 104, 105, 106, 107, 108, 109, 110, 111, 112, 113, 114, 115, 116, 117, 118, 119, 120, 121, 122, 123, 124, 125, 126, 127, 128, 129, 130, 131, 132, 133, 134, 135, 136, 137, 138, 139, 140, 141, 142, 143, 144, 145, 146, 147, 148, 149, 150, 151, 152, 153, 154, 155, 156, 157, 158, 159, 160, 161, 162, 163, 164, 165, 166, 167, 168, 169, 170, 171, 172, 173, 174, 175, 176, 177, 178, 179, 180, 181, 182, 183, 184, 185, 186, 187, 188, 189, 190, 191, 192, 193, 194, 195],
      "LargestImagePixelValue": [2568, 2496, 2463, 2452, 2421, 2417, 2407, 2410, 2420, 2420, 2419, 2433, 2412, 2401, 2411, 2415, 2410, 2433, 2401, 2424, 2420, 2404, 2419, 2430, 2425, 2431, 2401, 2413, 2427, 2415, 2413, 2415, 2400, 2409, 2414, 2417, 2406, 2405, 2414, 2412, 2416, 2404, 2423, 2407, 2400, 2405, 2396, 2389, 2397, 2369, 2359, 2356, 2398, 2386, 2364, 2372, 2374, 2377, 2358, 2370, 2366, 2367, 2374, 2375, 2366, 2397, 2383, 2385, 2385, 2378, 2366, 2376, 2371, 2368, 2391, 2394, 2377, 2375, 2386, 2379, 2374, 2374, 2388, 2376, 2380, 2364, 2379, 2360, 2362, 2394, 2384, 2370, 2382, 2375, 2371, 2389, 2359, 2351, 2375, 2364, 2368, 2348, 2345, 2357, 2357, 2353, 2345, 2347, 2351, 2340, 2330, 2311, 2328, 2352, 2350, 2347, 2342, 2330, 2317, 2310, 2289, 2275, 2276, 2281, 2297, 2292, 2273, 2288, 2281, 2256, 2302, 2353, 2316, 2307, 2318, 2318, 2350, 2342, 2331, 2340, 2320, 2295, 2289, 2332, 2396, 2377, 2392, 2384, 2395, 2381, 2394, 2405, 2387, 2401, 2387, 2381, 2386, 2378, 2374, 2360, 2371, 2353, 2350, 2345, 2326, 2334, 2304, 2299, 2289, 2296, 2313, 2306, 2339, 2341, 2332, 2358, 2336, 2343, 2362, 2357, 2354, 2352, 2373, 2358, 2366, 2336, 2361, 2354, 2360, 2363, 2335, 2356, 2362, 2393, 2398],
      "WindowCenter": [601.0, 598.0, 597.0, 597.0, 596.0, 595.0, 595.0, 595.0, 595.0, 595.0, 595.0, 596.0, 595.0, 595.0, 596.0, 596.0, 596.0, 596.0, 596.0, 596.0, 596.0, 597.0, 597.0, 598.0, 598.0, 598.0, 598.0, 598.0, 598.0, 598.0, 598.0, 598.0, 598.0, 598.0, 598.0, 598.0, 597.0, 597.0, 598.0, 598.0, 599.0, 598.0, 597.0, 596.0, 596.0, 596.0, 596.0, 595.0, 595.0, 595.0, 594.0, 594.0, 595.0, 595.0, 595.0, 596.0, 595.0, 595.0, 594.0, 594.0, 594.0, 593.0, 594.0, 594.0, 594.0, 595.0, 595.0, 595.0, 594.0, 594.0, 594.0, 593.0, 593.0, 592.0, 592.0, 592.0, 593.0, 592.0, 592.0, 592.0, 592.0, 592.0, 592.0, 591.0, 591.0, 590.0, 591.0, 591.0, 591.0, 592.0, 593.0, 594.0, 593.0, 593.0, 593.0, 592.0, 592.0, 591.0, 591.0, 591.0, 591.0, 590.0, 590.0, 590.0, 591.0, 591.0, 591.0, 591.0, 591.0, 590.0, 590.0, 590.0, 591.0, 593.0, 594.0, 594.0, 594.0, 593.0, 592.0, 591.0, 590.0, 590.0, 591.0, 592.0, 591.0, 591.0, 590.0, 590.0, 590.0, 590.0, 589.0, 590.0, 589.0, 589.0, 590.0, 591.0, 592.0, 591.0, 592.0, 592.0, 591.0, 591.0, 590.0, 591.0, 593.0, 593.0, 593.0, 593.0, 594.0, 595.0, 595.0, 595.0, 596.0, 596.0, 595.0, 595.0, 594.0, 593.0, 593.0, 593.0, 593.0, 592.0, 590.0, 589.0, 589.0, 589.0, 590.0, 589.0, 589.0, 590.0, 591.0, 591.0, 592.0, 592.0, 592.0, 592.0, 591.0, 591.0, 591.0, 591.0, 591.0, 590.0, 591.0, 591.0, 590.0, 590.0, 590.0, 590.0, 591.0, 591.0, 590.0, 591.0, 591.0, 592.0, 593.0],
      "WindowWidth": [1287.0, 1281.0, 1278.0, 1277.0, 1276.0, 1274.0, 1274.0, 1273.0, 1273.0, 1273.0, 1274.0, 1275.0, 1275.0, 1275.0, 1275.0, 1276.0, 1276.0, 1277.0, 1277.0, 1277.0, 1277.0, 1277.0, 1278.0, 1280.0, 1282.0, 1282.0, 1281.0, 1281.0, 1281.0, 1281.0, 1281.0, 1282.0, 1282.0, 1280.0, 1281.0, 1280.0, 1279.0, 1279.0, 1281.0, 1282.0, 1283.0, 1282.0, 1279.0, 1277.0, 1276.0, 1276.0, 1277.0, 1275.0, 1275.0, 1273.0, 1271.0, 1271.0, 1272.0, 1274.0, 1275.0, 1275.0, 1275.0, 1274.0, 1273.0, 1271.0, 1271.0, 1270.0, 1271.0, 1270.0, 1271.0, 1273.0, 1274.0, 1273.0, 1273.0, 1272.0, 1270.0, 1269.0, 1268.0, 1266.0, 1267.0, 1268.0, 1268.0, 1268.0, 1267.0, 1267.0, 1267.0, 1266.0, 1266.0, 1264.0, 1263.0, 1263.0, 1263.0, 1264.0, 1264.0, 1267.0, 1269.0, 1271.0, 1269.0, 1269.0, 1268.0, 1266.0, 1266.0, 1265.0, 1264.0, 1265.0, 1264.0, 1263.0, 1263.0, 1263.0, 1263.0, 1264.0, 1264.0, 1265.0, 1264.0, 1263.0, 1263.0, 1263.0, 1265.0, 1269.0, 1271.0, 1271.0, 1271.0, 1269.0, 1267.0, 1265.0, 1262.0, 1263.0, 1265.0, 1267.0, 1265.0, 1264.0, 1263.0, 1263.0, 1262.0, 1263.0, 1261.0, 1262.0, 1260.0, 1260.0, 1262.0, 1265.0, 1266.0, 1266.0, 1267.0, 1266.0, 1265.0, 1264.0, 1262.0, 1264.0, 1268.0, 1268.0, 1269.0, 1269.0, 1271.0, 1273.0, 1274.0, 1275.0, 1275.0, 1276.0, 1275.0, 1273.0, 1272.0, 1270.0, 1269.0, 1268.0, 1268.0, 1265.0, 1263.0, 1260.0, 1260.0, 1260.0, 1262.0, 1261.0, 1261.0, 1262.0, 1263.0, 1264.0, 1266.0, 1266.0, 1266.0, 1266.0, 1265.0, 1265.0, 1265.0, 1265.0, 1264.0, 1263.0, 1265.0, 1264.0, 1263.0, 1261.0, 1261.0, 1262.0, 1264.0, 1264.0, 1262.0, 1263.0, 1263.0, 1265.0, 1267.0]
    },
    "slices": {}
  }
}