{
  "AcquisitionMatrixPE": 88,
  "AcquisitionNumber": 1,
  "AcquisitionTime": "11:06:17.270000",
  "BandwidthPerPixelPhaseEncode": 19.592,
  "BaseResolution": 88,
  "BodyPartExamined": "BRAIN",
  "ConsistencyInfo": "N4_VE11C_LATEST_20160120",
  "ConversionSoftware": "dcm2niix",
  "ConversionSoftwareVersion": "v1.0.20190902",
  "DerivedVendorReportedEchoSpacing": 0.000580014,
  "DeviceSerialNumber": "67050",
  "DwellTime": 2.6e-06,
  "EchoTime": 0.033,
  "EchoTrainLength": 88,
  "EffectiveEchoSpacing": 0.000580014,
  "FlipAngle": 62,
  "ImageOrientationPatientDICOM": [0.99137, -0.0233719, -0.128997, 0.0263063, 0.999431, 0.0210909],
  "ImageType": [
    "ORIGINAL",
    "PRIMARY",
    "M",
    "ND",
    "MOSAIC"
],
  "ImagingFrequency": 123.251,
  "InPlanePhaseEncodingDirectionDICOM": "COL",
  "InstitutionAddress": "Olive_Street_60_Providence_RI_US_02912",
  "InstitutionName": "BROWN_UNIVERSITY_MRF",
  "InstitutionalDepartmentName": "Department",
  "MRAcquisitionType": "2D",
  "MagneticFieldStrength": 3,
  "Manufacturer": "Siemens",
  "ManufacturersModelName": "Prisma_fit",
  "Modality": "MR",
  "MultibandAccelerationFactor": 4,
  "PartialFourier": 1,
  "PatientPosition": "HFS",
  "PercentPhaseFOV": 100,
  "PhaseEncodingDirection": "j-",
  "PhaseEncodingSteps": 88,
  "PhaseResolution": 1,
  "PixelBandwidth": 2185,
  "ProcedureStepDescription": "ASHENHAV_1222",
  "ProtocolName": "func-bold_task-RDMmotion_run-02",
  "PulseSequenceDetails": "%SiemensSeq%_ep2d_bold",
  "ReceiveCoilActiveElements": "HC1-7",
  "ReceiveCoilName": "HeadNeck_64",
  "ReconMatrixPE": 88,
  "RefLinesPE": 8,
  "RepetitionTime": 1.2,
  "SAR": 0.0544656,
  "ScanOptions": "FS",
  "ScanningSequence": "EP",
  "SequenceName": "_epfid2d1_88",
  "SequenceVariant": "SK",
  "SeriesDescription": "func-bold_task-RDMmotion_run-02",
  "SeriesNumber": 9,
  "ShimSetting": [1723, -9117, 4435, 490, 22, -188, -99, -23],
  "SliceThickness": 2.4,
  "SliceTiming": [0.55, 0, 0.63, 0.08, 0.7075, 0.1575, 0.7875, 0.2375, 0.865, 0.315, 0.945, 0.395, 1.0225, 0.4725, 1.1025, 0.55, 0, 0.63, 0.08, 0.7075, 0.1575, 0.7875, 0.2375, 0.865, 0.315, 0.945, 0.395, 1.0225, 0.4725, 1.1025, 0.55, 0, 0.63, 0.08, 0.7075, 0.1575, 0.7875, 0.2375, 0.865, 0.315, 0.945, 0.395, 1.0225, 0.4725, 1.1025, 0.55, 0, 0.63, 0.08, 0.7075, 0.1575, 0.7875, 0.2375, 0.865, 0.315, 0.945, 0.395, 1.0225, 0.4725, 1.1025],
  "SoftwareVersions": "syngo_MR_E11",
  "SpacingBetweenSlices": 2.4,
  "StationName": "AWP67050",
  "TaskName": "RDMmotion",
  "TotalReadoutTime": 0.0504612,
  "TxRefAmp": 215.627,
  "dcmmeta_affine": [
    [-2.3770337104797363, 0.06307527422904968, -0.30823373794555664, 104.931396484375],
    [0.056039370596408844, 2.3963639736175537, 0.058325450867414474, -107.56715393066406],
    [-0.30929961800575256, -0.05057014152407646, 2.3794095516204834, -30.331119537353516],
    [0.0, 0.0, 0.0, 1.0]
],
  "dcmmeta_reorient_transform": [
    [0.0, -1.0, 0.0, 87.0],
    [1.0, 0.0, 0.0, 0.0],
    [0.0, 0.0, 1.0, 0.0],
    [0.0, 0.0, 0.0, 1.0]
],
  "dcmmeta_shape": [88, 88, 60, 125],
  "dcmmeta_slice_dim": 2,
  "dcmmeta_version": 0.6,
  "global": {
    "const": {
      "AcquisitionMatrix": [88, 0, 0, 88],
      "AngioFlag": "N",
      "BitsAllocated": 16,
      "BitsStored": 12,
      "BodyPartExamined": "BRAIN",
      "Columns": 704,
      "DeidentificationMethodCodeSequence": [
        {
          "CodeMeaning": "XNAT DicomEdit 6 Script",
          "CodeValue": "3",
          "CodingSchemeDesignator": "XNAT",
          "CodingSchemeVersion": "1.0"}
],
      "EchoNumbers": 1,
      "EchoTime": 33.0,
      "EchoTrainLength": 88,
      "FlipAngle": 62.0,
      "HighBit": 11,
      "ImageOrientationPatient": [0.99136952244991, -0.0233718706033, -0.1289969984997, 0.02630627578245, 0.99943141598228, 0.02109086537136],
      "ImagePositionPatient": [-861.97251580996, -821.73647669354, 44.957956964073],
      "ImageType": [
        "ORIGINAL",
        "PRIMARY",
        "M",
        "ND",
        "MOSAIC"
],
      "ImagedNucleus": "1H",
      "ImagingFrequency": 123.250663,
      "InPlanePhaseEncodingDirection": "COL",
      "MRAcquisitionType": "2D",
      "MagneticFieldStrength": 3.0,
      "Manufacturer": "SIEMENS",
      "ManufacturerModelName": "Prisma_fit",
      "Modality": "MR",
      "NumberOfAverages": 1.0,
      "NumberOfPhaseEncodingSteps": 88,
      "PercentPhaseFieldOfView": 100.0,
      "PercentSampling": 100.0,
      "PerformedProcedureStepStartTime": "104127.933000",
      "PhotometricInterpretation": "MONOCHROME2",
      "PixelBandwidth": 2185.0,
      "PixelRepresentation": 0,
      "PixelSpacing": [2.3977272510529, 2.3977272510529],
      "ProtocolName": "func-bold_task-RDMmotion_run-02",
      "RepetitionTime": 1200.0,
      "Rows": 704,
      "SAR": 0.05446560077108,
      "SamplesPerPixel": 1,
      "ScanOptions": "FS",
      "ScanningSequence": "EP",
      "SequenceName": "*epfid2d1_88",
      "SequenceVariant": "SK",
      "SeriesDescription": "func-bold_task-RDMmotion_run-02",
      "SeriesNumber": 9,
      "SeriesTime": "110651.916000",
      "SliceLocation": -46.161439644074,
      "SliceThickness": 2.4000000953674,
      "SmallestImagePixelValue": 0,
      "SoftwareVersions": "syngo MR E11",
      "SpacingBetweenSlices": 2.3999999826302,
      "SpecificCharacterSet": "ISO_IR 100",
      "StudyID": "1",
      "StudyTime": "104127.873000",
      "TransmitCoilName": "Body",
      "VariableFlipAngleFlag": "N",
      "WindowCenterWidthExplanation": "Algo1",
      "dBdt": 0.0},
    "slices": {}
  },
  "time": {
    "samples": {
      "AcquisitionNumber": [1, 2, 3, 4, 5, 6, 7, 8, 9, 10, 11, 12, 13, 14, 15, 16, 17, 18, 19, 20, 21, 22, 23, 24, 25, 26, 27, 28, 29, 30, 31, 32, 33, 34, 35, 36, 37, 38, 39, 40, 41, 42, 43, 44, 45, 46, 47, 48, 49, 50, 51, 52, 53, 54, 55, 56, 57, 58, 59, 60, 61, 62, 63, 64, 65, 66, 67, 68, 69, 70, 71, 72, 73, 74, 75, 76, 77, 78, 79, 80, 81, 82, 83, 84, 85, 86, 87, 88, 89, 90, 91, 92, 93, 94, 95, 96, 97, 98, 99, 100, 101, 102, 103, 104, 105, 106, 107, 108, 109, 110, 111, 112, 113, 114, 115, 116, 117, 118, 119, 120, 121, 122, 123, 124, 125],
      "AcquisitionTime": ["110617.270000", "110618.470000", "110619.670000", "110620.870000", "110622.070000", "110623.270000", "110624.470000", "110625.670000", "110626.870000", "110628.070000", "110629.270000", "110630.470000", "110631.670000", "110632.870000", "110634.070000", "110635.270000", "110636.470000", "110637.670000", "110638.870000", "110640.070000", "110641.270000", "110642.470000", "110643.670000", "110644.870000", "110646.070000", "110647.270000", "110648.470000", "110649.670000", "110650.870000", "110652.070000", "110653.270000", "110654.470000", "110655.670000", "110656.870000", "110658.070000", "110659.270000", "110700.470000", "110701.670000", "110702.870000", "110704.070000", "110705.270000", "110706.470000", "110707.670000", "110708.870000", "110710.070000", "110711.270000", "110712.470000", "110713.670000", "110714.870000", "110716.070000", "110717.270000", "110718.470000", "110719.670000", "110720.870000", "110722.070000", "110723.270000", "110724.470000", "110725.670000", "110726.870000", "110728.070000", "110729.270000", "110730.470000", "110731.670000", "110732.870000", "110734.070000", "110735.270000", "110736.470000", "110737.670000", "110738.870000", "110740.070000", "110741.270000", "110742.470000", "110743.670000", "110744.870000", "110746.070000", "110747.270000", "110748.470000", "110749.670000", "110750.870000", "110752.070000", "110753.270000", "110754.470000", "110755.670000", "110756.870000", "110758.070000", "110759.270000", "110800.470000", "110801.670000", "110802.870000", "110804.070000", "110805.270000", "110806.470000", "110807.670000", "110808.870000", "110810.070000", "110811.270000", "110812.470000", "110813.670000", "110814.870000", "110816.070000", "110817.270000", "110818.470000", "110819.670000", "110820.870000", "110822.070000", "110823.270000", "110824.470000", "110825.670000", "110826.870000", "110828.070000", "110829.270000", "110830.470000", "110831.670000", "110832.870000", "110834.070000", "110835.270000", "110836.470000", "110837.670000", "110838.870000", "110840.070000", "110841.270000", "110842.470000", "110843.670000", "110844.870000", "110846.070000"],
      "ContentTime": ["110651.920000", "110651.923000", "110651.926000", "110651.928000", "110651.931000", "110651.934000", "110651.937000", "110651.940000", "110651.943000", "110651.945000", "110651.962000", "110651.964000", "110651.967000", "110651.970000", "110651.972000", "110651.975000", "110651.977000", "110651.980000", "110651.982000", "110651.985000", "110651.988000", "110651.990000", "110651.993000", "110651.996000", "110651.998000", "110652.002000", "110652.005000", "110652.007000", "110731.915000", "110731.918000", "110731.920000", "110731.923000", "110731.925000", "110731.928000", "110731.931000", "110731.933000", "110731.936000", "110731.938000", "110731.941000", "110731.944000", "110731.951000", "110731.954000", "110731.956000", "110731.959000", "110731.961000", "110731.964000", "110731.967000", "110731.969000", "110731.972000", "110731.974000", "110731.977000", "110731.980000", "110731.983000", "110731.985000", "110731.988000", "110731.990000", "110731.993000", "110731.995000", "110731.998000", "110732.001000", "110732.004000", "110732.007000", "110811.915000", "110811.917000", "110811.920000", "110811.923000", "110811.925000", "110811.928000", "110811.930000", "110811.933000", "110811.935000", "110811.938000", "110811.941000", "110811.943000", "110811.946000", "110811.948000", "110811.951000", "110811.954000", "110811.956000", "110811.959000", "110811.961000", "110811.964000", "110811.967000", "110811.969000", "110811.972000", "110811.974000", "110811.977000", "110811.979000", "110811.982000", "110811.993000", "110811.996000", "110811.998000", "110812.002000", "110812.005000", "110812.007000", "110847.224000", "110847.227000", "110847.230000", "110847.233000", "110847.235000", "110847.238000", "110847.240000", "110847.243000", "110847.246000", "110847.248000", "110847.251000", "110847.254000", "110847.256000", "110847.259000", "110847.261000", "110847.264000", "110847.266000", "110847.269000", "110847.272000", "110847.274000", "110847.277000", "110847.280000", "110847.282000", "110847.285000", "110847.287000", "110847.290000", "110847.293000", "110847.295000", "110847.298000", "110847.300000"],
      "InstanceCreationTime": ["110651.920000", "110651.923000", "110651.926000", "110651.928000", "110651.931000", "110651.934000", "110651.937000", "110651.940000", "110651.943000", "110651.945000", "110651.962000", "110651.964000", "110651.967000", "110651.970000", "110651.972000", "110651.975000", "110651.977000", "110651.980000", "110651.982000", "110651.985000", "110651.988000", "110651.990000", "110651.993000", "110651.996000", "110651.998000", "110652.002000", "110652.005000", "110652.007000", "110731.915000", "110731.918000", "110731.920000", "110731.923000", "110731.925000", "110731.928000", "110731.931000", "110731.933000", "110731.936000", "110731.938000", "110731.941000", "110731.944000", "110731.951000", "110731.954000", "110731.956000", "110731.959000", "110731.961000", "110731.964000", "110731.967000", "110731.969000", "110731.972000", "110731.974000", "110731.977000", "110731.980000", "110731.983000", "110731.985000", "110731.988000", "110731.990000", "110731.993000", "110731.995000", "110731.998000", "110732.001000", "110732.004000", "110732.007000", "110811.915000", "110811.917000", "110811.920000", "110811.923000", "110811.925000", "110811.928000", "110811.930000", "110811.933000", "110811.935000", "110811.938000", "110811.941000", "110811.943000", "110811.946000", "110811.948000", "110811.951000", "110811.954000", "110811.956000", "110811.959000", "110811.961000", "110811.964000", "110811.967000", "110811.969000", "110811.972000", "110811.974000", "110811.977000", "110811.979000", "110811.982000", "110811.993000", "110811.996000", "110811.998000", "110812.002000", "110812.005000", "110812.007000", "110847.224000", "110847.227000", "110847.230000", "110847.233000", "110847.235000", "110847.238000", "110847.240000", "110847.243000", "110847.246000", "110847.248000", "110847.251000", "110847.254000", "110847.256000", "110847.259000", "110847.261000", "110847.264000", "110847.266000", "110847.269000", "110847.272000", "110847.274000", "110847.277000", "110847.280000", "110847.282000", "110847.285000", "110847.287000", "110847.290000", "110847.293000", "110847.295000", "110847.298000", "110847.300000"],
      "InstanceNumber": [1, 2, 3, 4, 5, 6, 7, 8, 9, 10, 11, 12, 13, 14, 15, 16, 17, 18, 19, 20, 21, 22, 23, 24, 25, 26, 27, 28, 29, 30, 31, 32, 33, 34, 35, 36, 37, 38, 39, 40, 41, 42, 43, 44, 45, 46, 47, 48, 49, 50, 51, 52, 53, 54, 55, 56, 57, 58, 59, 60, 61, 62, 63, 64, 65, 66, 67, 68, 69, 70, 71, 72, 73, 74, 75, 76, 77, 78, 79, 80, 81, 82, 83, 84, 85, 86, 87, 88, 89, 90, 91, 92, 93, 94, 95, 96, 97, 98, 99, 100, 101, 102, 103, 104, 105, 106, 107, 108, 109, 110, 111, 112, 113, 114, 115, 116, 117, 118, 119, 120, 121, 122, 123, 124, 125],
      "LargestImagePixelValue": [2630, 2545, 2489, 2425, 2417, 2412, 2425, 2405, 2418, 2394, 2388, 2364, 2380, 2390, 2377, 2385, 2397, 2408, 2382, 2386, 2396, 2373, 2401, 2374, 2362, 2365, 2363, 2373, 2350, 2340, 2321, 2305, 2316, 2296, 2330, 2305, 2331, 2317, 2301, 2284, 2266, 2275, 2265, 2290, 2269, 2295, 2284, 2296, 2282, 2295, 2272, 2260, 2273, 2267, 2276, 2274, 2286, 2228, 2241, 2219, 2223, 2204, 2229, 2244, 2229, 2260, 2224, 2274, 2225, 2274, 2263, 2285, 2235, 2230, 2172, 2229, 2223, 2232, 2227, 2218, 2223, 2187, 2189, 2126, 2153, 2174, 2148, 2157, 2123, 2177, 2153, 2171, 2159, 2212, 2191, 2188, 2185, 2147, 2159, 2163, 2148, 2149, 2134, 2181, 2125, 2175, 2156, 2203, 2149, 2149, 2113, 2120, 2133, 2112, 2146, 2114, 2133, 2139, 2176, 2229, 2178, 2158, 2175, 2099, 2137],
      "WindowCenter": [604.0, 600.0, 599.0, 598.0, 597.0, 596.0, 596.0, 596.0, 596.0, 596.0, 596.0, 596.0, 596.0, 596.0, 596.0, 596.0, 597.0, 596.0, 596.0, 596.0, 595.0, 595.0, 595.0, 595.0, 595.0, 595.0, 594.0, 594.0, 593.0, 593.0, 593.0, 593.0, 593.0, 594.0, 595.0, 595.0, 595.0, 595.0, 595.0, 594.0, 593.0, 593.0, 593.0, 594.0, 594.0, 594.0, 594.0, 595.0, 595.0, 594.0, 594.0, 593.0, 593.0, 594.0, 594.0, 595.0, 595.0, 594.0, 593.0, 593.0, 592.0, 592.0, 592.0, 592.0, 593.0, 593.0, 593.0, 593.0, 593.0, 594.0, 594.0, 594.0, 593.0, 593.0, 592.0, 593.0, 593.0, 593.0, 593.0, 592.0, 592.0, 592.0, 592.0, 591.0, 591.0, 592.0, 591.0, 591.0, 591.0, 592.0, 592.0, 593.0, 593.0, 593.0, 592.0, 592.0, 592.0, 591.0, 591.0, 591.0, 591.0, 590.0, 590.0, 591.0, 591.0, 592.0, 592.0, 593.0, 593.0, 593.0, 592.0, 593.0, 593.0, 592.0, 593.0, 592.0, 592.0, 593.0, 594.0, 594.0, 594.0, 594.0, 593.0, 592.0, 592.0],
      "WindowWidth": [1292.0, 1284.0, 1281.0, 1278.0, 1277.0, 1276.0, 1275.0, 1274.0, 1275.0, 1275.0, 1275.0, 1274.0, 1274.0, 1275.0, 1274.0, 1275.0, 1276.0, 1275.0, 1275.0, 1274.0, 1274.0, 1272.0, 1272.0, 1272.0, 1272.0, 1272.0, 1271.0, 1270.0, 1269.0, 1267.0, 1268.0, 1267.0, 1268.0, 1269.0, 1272.0, 1272.0, 1273.0, 1274.0, 1273.0, 1270.0, 1269.0, 1269.0, 1269.0, 1270.0, 1270.0, 1271.0, 1271.0, 1272.0, 1272.0, 1271.0, 1270.0, 1268.0, 1269.0, 1270.0, 1271.0, 1272.0, 1273.0, 1270.0, 1269.0, 1268.0, 1267.0, 1267.0, 1267.0, 1267.0, 1268.0, 1269.0, 1269.0, 1269.0, 1270.0, 1271.0, 1272.0, 1271.0, 1270.0, 1268.0, 1267.0, 1268.0, 1269.0, 1270.0, 1268.0, 1267.0, 1267.0, 1267.0, 1265.0, 1264.0, 1264.0, 1265.0, 1265.0, 1265.0, 1265.0, 1267.0, 1268.0, 1269.0, 1269.0, 1269.0, 1268.0, 1267.0, 1266.0, 1266.0, 1265.0, 1265.0, 1264.0, 1263.0, 1263.0, 1264.0, 1264.0, 1266.0, 1268.0, 1270.0, 1270.0, 1268.0, 1268.0, 1268.0, 1268.0, 1268.0, 1268.0, 1268.0, 1268.0, 1269.0, 1271.0, 1272.0, 1272.0, 1270.0, 1270.0, 1268.0, 1267.0]
    },
    "slices": {}
  }
}