{
  "AcquisitionMatrixPE": 88,
  "AcquisitionNumber": 1,
  "AcquisitionTime": "10:57:48.592500",
  "BandwidthPerPixelPhaseEncode": 19.592,
  "BaseResolution": 88,
  "BodyPartExamined": "BRAIN",
  "ConsistencyInfo": "N4_VE11C_LATEST_20160120",
  "ConversionSoftware": "dcm2niix",
  "ConversionSoftwareVersion": "v1.0.20190902",
  "DerivedVendorReportedEchoSpacing": 0.000580014,
  "DeviceSerialNumber": "67050",
  "DwellTime": 2.6e-06,
  "EchoTime": 0.033,
  "EchoTrainLength": 88,
  "EffectiveEchoSpacing": 0.000580014,
  "FlipAngle": 62,
  "ImageOrientationPatientDICOM": [0.99137, -0.0233719, -0.128997, 0.0263063, 0.999431, 0.0210909],
  "ImageType": [
    "ORIGINAL",
    "PRIMARY",
    "M",
    "ND",
    "MOSAIC"
],
  "ImagingFrequency": 123.251,
  "InPlanePhaseEncodingDirectionDICOM": "COL",
  "InstitutionAddress": "Olive_Street_60_Providence_RI_US_02912",
  "InstitutionName": "BROWN_UNIVERSITY_MRF",
  "InstitutionalDepartmentName": "Department",
  "MRAcquisitionType": "2D",
  "MagneticFieldStrength": 3,
  "Manufacturer": "Siemens",
  "ManufacturersModelName": "Prisma_fit",
  "Modality": "MR",
  "MultibandAccelerationFactor": 4,
  "PartialFourier": 1,
  "PatientPosition": "HFS",
  "PercentPhaseFOV": 100,
  "PhaseEncodingDirection": "j-",
  "PhaseEncodingSteps": 88,
  "PhaseResolution": 1,
  "PixelBandwidth": 2185,
  "ProcedureStepDescription": "ASHENHAV_1222",
  "ProtocolName": "func-bold_task-RDMcolor_run-01",
  "PulseSequenceDetails": "%SiemensSeq%_ep2d_bold",
  "ReceiveCoilActiveElements": "HC1-7",
  "ReceiveCoilName": "HeadNeck_64",
  "ReconMatrixPE": 88,
  "RefLinesPE": 8,
  "RepetitionTime": 1.2,
  "SAR": 0.0550241,
  "ScanOptions": "FS",
  "ScanningSequence": "EP",
  "SequenceName": "_epfid2d1_88",
  "SequenceVariant": "SK",
  "SeriesDescription": "func-bold_task-RDMcolor_run-01",
  "SeriesNumber": 8,
  "ShimSetting": [1723, -9117, 4435, 490, 22, -188, -99, -23],
  "SliceThickness": 2.4,
  "SliceTiming": [0.55, 0, 0.63, 0.08, 0.7075, 0.1575, 0.7875, 0.2375, 0.865, 0.315, 0.945, 0.3925, 1.0225, 0.4725, 1.1025, 0.55, 0, 0.63, 0.08, 0.7075, 0.1575, 0.7875, 0.2375, 0.865, 0.315, 0.945, 0.3925, 1.0225, 0.4725, 1.1025, 0.55, 0, 0.63, 0.08, 0.7075, 0.1575, 0.7875, 0.2375, 0.865, 0.315, 0.945, 0.3925, 1.0225, 0.4725, 1.1025, 0.55, 0, 0.63, 0.08, 0.7075, 0.1575, 0.7875, 0.2375, 0.865, 0.315, 0.945, 0.3925, 1.0225, 0.4725, 1.1025],
  "SoftwareVersions": "syngo_MR_E11",
  "SpacingBetweenSlices": 2.4,
  "StationName": "AWP67050",
  "TaskName": "RDMcolor",
  "TotalReadoutTime": 0.0504612,
  "TxRefAmp": 215.627,
  "dcmmeta_affine": [
    [-2.3770337104797363, 0.06307527422904968, -0.30823373794555664, 104.931396484375],
    [0.056039370596408844, 2.3963639736175537, 0.058325450867414474, -107.56715393066406],
    [-0.30929961800575256, -0.05057014152407646, 2.3794095516204834, -30.331119537353516],
    [0.0, 0.0, 0.0, 1.0]
],
  "dcmmeta_reorient_transform": [
    [0.0, -1.0, 0.0, 87.0],
    [1.0, 0.0, 0.0, 0.0],
    [0.0, 0.0, 1.0, 0.0],
    [0.0, 0.0, 0.0, 1.0]
],
  "dcmmeta_shape": [88, 88, 60, 392],
  "dcmmeta_slice_dim": 2,
  "dcmmeta_version": 0.6,
  "global": {
    "const": {
      "AcquisitionMatrix": [88, 0, 0, 88],
      "AngioFlag": "N",
      "BitsAllocated": 16,
      "BitsStored": 12,
      "BodyPartExamined": "BRAIN",
      "Columns": 704,
      "DeidentificationMethodCodeSequence": [
        {
          "CodeMeaning": "XNAT DicomEdit 6 Script",
          "CodeValue": "3",
          "CodingSchemeDesignator": "XNAT",
          "CodingSchemeVersion": "1.0"}
],
      "EchoNumbers": 1,
      "EchoTime": 33.0,
      "EchoTrainLength": 88,
      "FlipAngle": 62.0,
      "HighBit": 11,
      "ImageOrientationPatient": [0.99136952244991, -0.0233718706033, -0.1289969984997, 0.02630627578245, 0.99943141598228, 0.02109086537136],
      "ImagePositionPatient": [-861.97251580996, -821.73647669354, 44.957956964073],
      "ImageType": [
        "ORIGINAL",
        "PRIMARY",
        "M",
        "ND",
        "MOSAIC"
],
      "ImagedNucleus": "1H",
      "ImagingFrequency": 123.25066,
      "InPlanePhaseEncodingDirection": "COL",
      "MRAcquisitionType": "2D",
      "MagneticFieldStrength": 3.0,
      "Manufacturer": "SIEMENS",
      "ManufacturerModelName": "Prisma_fit",
      "Modality": "MR",
      "NumberOfAverages": 1.0,
      "NumberOfPhaseEncodingSteps": 88,
      "PercentPhaseFieldOfView": 100.0,
      "PercentSampling": 100.0,
      "PerformedProcedureStepStartTime": "104127.933000",
      "PhotometricInterpretation": "MONOCHROME2",
      "PixelBandwidth": 2185.0,
      "PixelRepresentation": 0,
      "PixelSpacing": [2.3977272510529, 2.3977272510529],
      "ProtocolName": "func-bold_task-RDMcolor_run-01",
      "RepetitionTime": 1200.0,
      "Rows": 704,
      "SAR": 0.05502411895771,
      "SamplesPerPixel": 1,
      "ScanOptions": "FS",
      "ScanningSequence": "EP",
      "SequenceName": "*epfid2d1_88",
      "SequenceVariant": "SK",
      "SeriesDescription": "func-bold_task-RDMcolor_run-01",
      "SeriesNumber": 8,
      "SeriesTime": "105757.765000",
      "SliceLocation": -46.161439644074,
      "SliceThickness": 2.4000000953674,
      "SmallestImagePixelValue": 0,
      "SoftwareVersions": "syngo MR E11",
      "SpacingBetweenSlices": 2.3999999826302,
      "SpecificCharacterSet": "ISO_IR 100",
      "StudyID": "1",
      "StudyTime": "104127.873000",
      "TransmitCoilName": "Body",
      "VariableFlipAngleFlag": "N",
      "WindowCenterWidthExplanation": "Algo1",
      "dBdt": 0.0},
    "slices": {}
  },
  "time": {
    "samples": {
      "AcquisitionNumber": [1, 2, 3, 4, 5, 6, 7, 8, 9, 10, 11, 12, 13, 14, 15, 16, 17, 18, 19, 20, 21, 22, 23, 24, 25, 26, 27, 28, 29, 30, 31, 32, 33, 34, 35, 36, 37, 38, 39, 40, 41, 42, 43, 44, 45, 46, 47, 48, 49, 50, 51, 52, 53, 54, 55, 56, 57, 58, 59, 60, 61, 62, 63, 64, 65, 66, 67, 68, 69, 70, 71, 72, 73, 74, 75, 76, 77, 78, 79, 80, 81, 82, 83, 84, 85, 86, 87, 88, 89, 90, 91, 92, 93, 94, 95, 96, 97, 98, 99, 100, 101, 102, 103, 104, 105, 106, 107, 108, 109, 110, 111, 112, 113, 114, 115, 116, 117, 118, 119, 120, 121, 122, 123, 124, 125, 126, 127, 128, 129, 130, 131, 132, 133, 134, 135, 136, 137, 138, 139, 140, 141, 142, 143, 144, 145, 146, 147, 148, 149, 150, 151, 152, 153, 154, 155, 156, 157, 158, 159, 160, 161, 162, 163, 164, 165, 166, 167, 168, 169, 170, 171, 172, 173, 174, 175, 176, 177, 178, 179, 180, 181, 182, 183, 184, 185, 186, 187, 188, 189, 190, 191, 192, 193, 194, 195, 196, 197, 198, 199, 200, 201, 202, 203, 204, 205, 206, 207, 208, 209, 210, 211, 212, 213, 214, 215, 216, 217, 218, 219, 220, 221, 222, 223, 224, 225, 226, 227, 228, 229, 230, 231, 232, 233, 234, 235, 236, 237, 238, 239, 240, 241, 242, 243, 244, 245, 246, 247, 248, 249, 250, 251, 252, 253, 254, 255, 256, 257, 258, 259, 260, 261, 262, 263, 264, 265, 266, 267, 268, 269, 270, 271, 272, 273, 274, 275, 276, 277, 278, 279, 280, 281, 282, 283, 284, 285, 286, 287, 288, 289, 290, 291, 292, 293, 294, 295, 296, 297, 298, 299, 300, 301, 302, 303, 304, 305, 306, 307, 308, 309, 310, 311, 312, 313, 314, 315, 316, 317, 318, 319, 320, 321, 322, 323, 324, 325, 326, 327, 328, 329, 330, 331, 332, 333, 334, 335, 336, 337, 338, 339, 340, 341, 342, 343, 344, 345, 346, 347, 348, 349, 350, 351, 352, 353, 354, 355, 356, 357, 358, 359, 360, 361, 362, 363, 364, 365, 366, 367, 368, 369, 370, 371, 372, 373, 374, 375, 376, 377, 378, 379, 380, 381, 382, 383, 384, 385, 386, 387, 388, 389, 390, 391, 392],
      "AcquisitionTime": ["105748.592500", "105749.792500", "105750.992500", "105752.192500", "105753.392500", "105754.592500", "105755.792500", "105756.992500", "105758.192500", "105759.392500", "105800.592500", "105801.792500", "105802.992500", "105804.192500", "105805.392500", "105806.592500", "105807.792500", "105808.992500", "105810.192500", "105811.392500", "105812.592500", "105813.792500", "105814.992500", "105816.192500", "105817.392500", "105818.592500", "105819.792500", "105820.992500", "105822.192500", "105823.392500", "105824.592500", "105825.792500", "105826.992500", "105828.192500", "105829.392500", "105830.592500", "105831.792500", "105832.992500", "105834.192500", "105835.392500", "105836.592500", "105837.792500", "105838.992500", "105840.192500", "105841.392500", "105842.592500", "105843.792500", "105844.992500", "105846.192500", "105847.392500", "105848.592500", "105849.792500", "105850.992500", "105852.192500", "105853.392500", "105854.592500", "105855.792500", "105856.992500", "105858.192500", "105859.392500", "105900.592500", "105901.792500", "105902.992500", "105904.192500", "105905.392500", "105906.592500", "105907.792500", "105908.992500", "105910.192500", "105911.392500", "105912.592500", "105913.792500", "105914.992500", "105916.192500", "105917.392500", "105918.592500", "105919.792500", "105920.992500", "105922.192500", "105923.392500", "105924.592500", "105925.792500", "105926.992500", "105928.192500", "105929.392500", "105930.592500", "105931.792500", "105932.992500", "105934.192500", "105935.392500", "105936.592500", "105937.792500", "105938.992500", "105940.192500", "105941.392500", "105942.592500", "105943.792500", "105944.992500", "105946.192500", "105947.392500", "105948.592500", "105949.792500", "105950.992500", "105952.192500", "105953.392500", "105954.592500", "105955.792500", "105956.992500", "105958.192500", "105959.392500", "110000.592500", "110001.792500", "110002.992500", "110004.192500", "110005.392500", "110006.592500", "110007.792500", "110008.992500", "110010.192500", "110011.392500", "110012.592500", "110013.792500", "110014.992500", "110016.192500", "110017.392500", "110018.592500", "110019.792500", "110020.992500", "110022.192500", "110023.392500", "110024.592500", "110025.792500", "110026.992500", "110028.192500", "110029.392500", "110030.592500", "110031.792500", "110032.992500", "110034.192500", "110035.392500", "110036.592500", "110037.792500", "110038.992500", "110040.192500", "110041.392500", "110042.592500", "110043.792500", "110044.992500", "110046.192500", "110047.392500", "110048.592500", "110049.792500", "110050.992500", "110052.192500", "110053.392500", "110054.592500", "110055.792500", "110056.992500", "110058.192500", "110059.392500", "110100.592500", "110101.792500", "110102.992500", "110104.192500", "110105.392500", "110106.592500", "110107.792500", "110108.992500", "110110.192500", "110111.392500", "110112.592500", "110113.792500", "110114.992500", "110116.192500", "110117.392500", "110118.592500", "110119.792500", "110120.992500", "110122.192500", "110123.392500", "110124.592500", "110125.792500", "110126.992500", "110128.192500", "110129.392500", "110130.592500", "110131.792500", "110132.992500", "110134.192500", "110135.392500", "110136.592500", "110137.792500", "110138.992500", "110140.192500", "110141.392500", "110142.592500", "110143.792500", "110144.992500", "110146.192500", "110147.392500", "110148.592500", "110149.792500", "110150.992500", "110152.192500", "110153.392500", "110154.592500", "110155.792500", "110156.992500", "110158.192500", "110159.392500", "110200.592500", "110201.792500", "110202.992500", "110204.192500", "110205.392500", "110206.592500", "110207.792500", "110208.992500", "110210.192500", "110211.392500", "110212.592500", "110213.792500", "110214.992500", "110216.192500", "110217.392500", "110218.592500", "110219.792500", "110220.992500", "110222.192500", "110223.392500", "110224.592500", "110225.792500", "110226.992500", "110228.192500", "110229.392500", "110230.592500", "110231.792500", "110232.992500", "110234.192500", "110235.392500", "110236.592500", "110237.792500", "110238.992500", "110240.192500", "110241.392500", "110242.592500", "110243.792500", "110244.992500", "110246.192500", "110247.392500", "110248.592500", "110249.792500", "110250.992500", "110252.192500", "110253.392500", "110254.592500", "110255.792500", "110256.992500", "110258.192500", "110259.392500", "110300.592500", "110301.792500", "110302.992500", "110304.192500", "110305.392500", "110306.592500", "110307.792500", "110308.992500", "110310.192500", "110311.392500", "110312.592500", "110313.792500", "110314.992500", "110316.192500", "110317.392500", "110318.592500", "110319.792500", "110320.992500", "110322.192500", "110323.392500", "110324.592500", "110325.792500", "110326.992500", "110328.192500", "110329.392500", "110330.592500", "110331.792500", "110332.992500", "110334.192500", "110335.392500", "110336.592500", "110337.792500", "110338.992500", "110340.192500", "110341.392500", "110342.592500", "110343.792500", "110344.992500", "110346.192500", "110347.392500", "110348.592500", "110349.792500", "110350.992500", "110352.192500", "110353.392500", "110354.592500", "110355.792500", "110356.992500", "110358.192500", "110359.392500", "110400.592500", "110401.792500", "110402.992500", "110404.192500", "110405.392500", "110406.592500", "110407.792500", "110408.992500", "110410.192500", "110411.392500", "110412.592500", "110413.792500", "110414.992500", "110416.192500", "110417.392500", "110418.592500", "110419.792500", "110420.992500", "110422.192500", "110423.392500", "110424.592500", "110425.792500", "110426.992500", "110428.192500", "110429.392500", "110430.592500", "110431.792500", "110432.992500", "110434.192500", "110435.392500", "110436.592500", "110437.792500", "110438.992500", "110440.192500", "110441.392500", "110442.592500", "110443.792500", "110444.992500", "110446.192500", "110447.392500", "110448.592500", "110449.792500", "110450.992500", "110452.192500", "110453.392500", "110454.592500", "110455.792500", "110456.992500", "110458.192500", "110459.392500", "110500.592500", "110501.792500", "110502.992500", "110504.192500", "110505.392500", "110506.592500", "110507.792500", "110508.992500", "110510.192500", "110511.392500", "110512.592500", "110513.792500", "110514.992500", "110516.192500", "110517.392500", "110518.592500", "110519.792500", "110520.992500", "110522.192500", "110523.392500", "110524.592500", "110525.792500", "110526.992500", "110528.192500", "110529.392500", "110530.592500", "110531.792500", "110532.992500", "110534.192500", "110535.392500", "110536.592500", "110537.792500"],
      "ContentTime": ["105757.769000", "105757.772000", "105757.779000", "105757.781000", "105757.784000", "105757.787000", "105757.789000", "105837.764000", "105837.767000", "105837.770000", "105837.773000", "105837.775000", "105837.778000", "105837.780000", "105837.783000", "105837.786000", "105837.788000", "105837.791000", "105837.793000", "105837.804000", "105837.806000", "105837.809000", "105837.811000", "105837.814000", "105837.817000", "105837.819000", "105837.822000", "105837.824000", "105837.827000", "105837.830000", "105837.832000", "105837.835000", "105837.838000", "105837.840000", "105837.843000", "105837.845000", "105837.848000", "105837.850000", "105837.853000", "105837.856000", "105917.764000", "105917.779000", "105917.782000", "105917.784000", "105917.787000", "105917.790000", "105917.792000", "105917.795000", "105917.797000", "105917.800000", "105917.802000", "105917.805000", "105917.808000", "105917.810000", "105917.813000", "105917.815000", "105917.818000", "105917.821000", "105917.823000", "105917.826000", "105917.829000", "105917.831000", "105917.834000", "105917.836000", "105917.839000", "105917.842000", "105917.844000", "105917.847000", "105917.850000", "105917.852000", "105917.855000", "105917.857000", "105917.860000", "105957.764000", "105957.767000", "105957.770000", "105957.786000", "105957.788000", "105957.791000", "105957.801000", "105957.803000", "105957.806000", "105957.809000", "105957.811000", "105957.814000", "105957.816000", "105957.819000", "105957.821000", "105957.824000", "105957.827000", "105957.829000", "105957.832000", "105957.835000", "105957.837000", "105957.840000", "105957.842000", "105957.845000", "105957.847000", "105957.850000", "105957.852000", "105957.855000", "105957.858000", "105957.860000", "105957.863000", "105957.866000", "105957.868000", "105957.871000", "110037.765000", "110037.767000", "110037.770000", "110037.773000", "110037.775000", "110037.778000", "110037.780000", "110037.783000", "110037.786000", "110037.788000", "110037.791000", "110037.793000", "110037.796000", "110037.799000", "110037.801000", "110037.804000", "110037.806000", "110037.809000", "110037.811000", "110037.814000", "110037.817000", "110037.819000", "110037.822000", "110037.825000", "110037.827000", "110037.830000", "110037.832000", "110037.835000", "110037.847000", "110037.850000", "110037.853000", "110037.856000", "110037.858000", "110117.765000", "110117.767000", "110117.771000", "110117.774000", "110117.777000", "110117.779000", "110117.782000", "110117.784000", "110117.787000", "110117.790000", "110117.792000", "110117.795000", "110117.797000", "110117.800000", "110117.802000", "110117.805000", "110117.808000", "110117.811000", "110117.813000", "110117.816000", "110117.818000", "110117.821000", "110117.824000", "110117.826000", "110117.829000", "110117.832000", "110117.834000", "110117.837000", "110117.839000", "110117.842000", "110117.857000", "110117.860000", "110117.862000", "110157.764000", "110157.767000", "110157.770000", "110157.772000", "110157.775000", "110157.778000", "110157.780000", "110157.783000", "110157.786000", "110157.788000", "110157.791000", "110157.793000", "110157.796000", "110157.798000", "110157.801000", "110157.804000", "110157.806000", "110157.809000", "110157.811000", "110157.814000", "110157.816000", "110157.824000", "110157.826000", "110157.834000", "110157.836000", "110157.839000", "110157.841000", "110157.844000", "110157.846000", "110157.849000", "110157.852000", "110157.854000", "110157.857000", "110157.859000", "110237.764000", "110237.767000", "110237.770000", "110237.773000", "110237.775000", "110237.778000", "110237.781000", "110237.783000", "110237.786000", "110237.789000", "110237.791000", "110237.794000", "110237.796000", "110237.799000", "110237.802000", "110237.805000", "110237.807000", "110237.810000", "110237.812000", "110237.815000", "110237.818000", "110237.820000", "110237.823000", "110237.825000", "110237.828000", "110237.831000", "110237.833000", "110237.836000", "110237.839000", "110237.841000", "110237.844000", "110237.846000", "110237.849000", "110317.765000", "110317.768000", "110317.771000", "110317.773000", "110317.776000", "110317.779000", "110317.781000", "110317.784000", "110317.787000", "110317.789000", "110317.792000", "110317.794000", "110317.797000", "110317.800000", "110317.803000", "110317.805000", "110317.808000", "110317.810000", "110317.813000", "110317.816000", "110317.819000", "110317.821000", "110317.824000", "110317.827000", "110317.829000", "110317.832000", "110317.835000", "110317.837000", "110317.840000", "110317.843000", "110317.845000", "110317.848000", "110317.850000", "110357.764000", "110357.767000", "110357.770000", "110357.773000", "110357.775000", "110357.778000", "110357.781000", "110357.783000", "110357.786000", "110357.788000", "110357.791000", "110357.794000", "110357.796000", "110357.799000", "110357.802000", "110357.804000", "110357.807000", "110357.810000", "110357.812000", "110357.815000", "110357.817000", "110357.820000", "110357.823000", "110357.825000", "110357.828000", "110357.830000", "110357.833000", "110357.836000", "110357.838000", "110357.841000", "110357.843000", "110357.846000", "110357.849000", "110357.851000", "110437.764000", "110437.767000", "110437.783000", "110437.786000", "110437.788000", "110437.791000", "110437.794000", "110437.797000", "110437.799000", "110437.802000", "110437.805000", "110437.807000", "110437.810000", "110437.812000", "110437.815000", "110437.817000", "110437.820000", "110437.823000", "110437.825000", "110437.828000", "110437.830000", "110437.833000", "110437.836000", "110437.838000", "110437.841000", "110437.843000", "110437.846000", "110437.849000", "110437.851000", "110437.854000", "110437.856000", "110437.859000", "110437.861000", "110517.764000", "110517.769000", "110517.772000", "110517.775000", "110517.777000", "110517.780000", "110517.782000", "110517.785000", "110517.788000", "110517.790000", "110517.793000", "110517.796000", "110517.798000", "110517.801000", "110517.804000", "110517.806000", "110517.809000", "110517.811000", "110517.814000", "110517.817000", "110517.819000", "110517.822000", "110517.825000", "110517.827000", "110517.830000", "110517.833000", "110517.835000", "110517.852000", "110517.854000", "110517.857000", "110517.859000", "110517.862000", "110517.865000", "110539.787000", "110539.790000", "110539.793000", "110539.796000", "110539.798000", "110539.801000", "110539.804000", "110539.806000", "110539.809000", "110539.812000", "110539.814000", "110539.817000", "110539.820000", "110539.822000", "110539.825000", "110539.828000", "110539.830000", "110539.833000", "110539.835000"],
      "InstanceCreationTime": ["105757.769000", "105757.772000", "105757.779000", "105757.781000", "105757.784000", "105757.787000", "105757.789000", "105837.764000", "105837.767000", "105837.770000", "105837.773000", "105837.775000", "105837.778000", "105837.780000", "105837.783000", "105837.786000", "105837.788000", "105837.791000", "105837.793000", "105837.804000", "105837.806000", "105837.809000", "105837.811000", "105837.814000", "105837.817000", "105837.819000", "105837.822000", "105837.824000", "105837.827000", "105837.830000", "105837.832000", "105837.835000", "105837.838000", "105837.840000", "105837.843000", "105837.845000", "105837.848000", "105837.850000", "105837.853000", "105837.856000", "105917.764000", "105917.779000", "105917.782000", "105917.784000", "105917.787000", "105917.790000", "105917.792000", "105917.795000", "105917.797000", "105917.800000", "105917.802000", "105917.805000", "105917.808000", "105917.810000", "105917.813000", "105917.815000", "105917.818000", "105917.821000", "105917.823000", "105917.826000", "105917.829000", "105917.831000", "105917.834000", "105917.836000", "105917.839000", "105917.842000", "105917.844000", "105917.847000", "105917.850000", "105917.852000", "105917.855000", "105917.857000", "105917.860000", "105957.764000", "105957.767000", "105957.770000", "105957.786000", "105957.788000", "105957.791000", "105957.801000", "105957.803000", "105957.806000", "105957.809000", "105957.811000", "105957.814000", "105957.816000", "105957.819000", "105957.821000", "105957.824000", "105957.827000", "105957.829000", "105957.832000", "105957.835000", "105957.837000", "105957.840000", "105957.842000", "105957.845000", "105957.847000", "105957.850000", "105957.852000", "105957.855000", "105957.858000", "105957.860000", "105957.863000", "105957.866000", "105957.868000", "105957.871000", "110037.765000", "110037.767000", "110037.770000", "110037.773000", "110037.775000", "110037.778000", "110037.780000", "110037.783000", "110037.786000", "110037.788000", "110037.791000", "110037.793000", "110037.796000", "110037.799000", "110037.801000", "110037.804000", "110037.806000", "110037.809000", "110037.811000", "110037.814000", "110037.817000", "110037.819000", "110037.822000", "110037.825000", "110037.827000", "110037.830000", "110037.832000", "110037.835000", "110037.847000", "110037.850000", "110037.853000", "110037.856000", "110037.858000", "110117.765000", "110117.767000", "110117.771000", "110117.774000", "110117.777000", "110117.779000", "110117.782000", "110117.784000", "110117.787000", "110117.790000", "110117.792000", "110117.795000", "110117.797000", "110117.800000", "110117.802000", "110117.805000", "110117.808000", "110117.811000", "110117.813000", "110117.816000", "110117.818000", "110117.821000", "110117.824000", "110117.826000", "110117.829000", "110117.832000", "110117.834000", "110117.837000", "110117.839000", "110117.842000", "110117.857000", "110117.860000", "110117.862000", "110157.764000", "110157.767000", "110157.770000", "110157.772000", "110157.775000", "110157.778000", "110157.780000", "110157.783000", "110157.786000", "110157.788000", "110157.791000", "110157.793000", "110157.796000", "110157.798000", "110157.801000", "110157.804000", "110157.806000", "110157.809000", "110157.811000", "110157.814000", "110157.816000", "110157.824000", "110157.826000", "110157.834000", "110157.836000", "110157.839000", "110157.841000", "110157.844000", "110157.846000", "110157.849000", "110157.852000", "110157.854000", "110157.857000", "110157.859000", "110237.764000", "110237.767000", "110237.770000", "110237.773000", "110237.775000", "110237.778000", "110237.781000", "110237.783000", "110237.786000", "110237.789000", "110237.791000", "110237.794000", "110237.796000", "110237.799000", "110237.802000", "110237.805000", "110237.807000", "110237.810000", "110237.812000", "110237.815000", "110237.818000", "110237.820000", "110237.823000", "110237.825000", "110237.828000", "110237.831000", "110237.833000", "110237.836000", "110237.839000", "110237.841000", "110237.844000", "110237.846000", "110237.849000", "110317.765000", "110317.768000", "110317.771000", "110317.773000", "110317.776000", "110317.779000", "110317.781000", "110317.784000", "110317.787000", "110317.789000", "110317.792000", "110317.794000", "110317.797000", "110317.800000", "110317.803000", "110317.805000", "110317.808000", "110317.810000", "110317.813000", "110317.816000", "110317.819000", "110317.821000", "110317.824000", "110317.827000", "110317.829000", "110317.832000", "110317.835000", "110317.837000", "110317.840000", "110317.843000", "110317.845000", "110317.848000", "110317.850000", "110357.764000", "110357.767000", "110357.770000", "110357.773000", "110357.775000", "110357.778000", "110357.781000", "110357.783000", "110357.786000", "110357.788000", "110357.791000", "110357.794000", "110357.796000", "110357.799000", "110357.802000", "110357.804000", "110357.807000", "110357.810000", "110357.812000", "110357.815000", "110357.817000", "110357.820000", "110357.823000", "110357.825000", "110357.828000", "110357.830000", "110357.833000", "110357.836000", "110357.838000", "110357.841000", "110357.843000", "110357.846000", "110357.849000", "110357.851000", "110437.764000", "110437.767000", "110437.783000", "110437.786000", "110437.788000", "110437.791000", "110437.794000", "110437.797000", "110437.799000", "110437.802000", "110437.805000", "110437.807000", "110437.810000", "110437.812000", "110437.815000", "110437.817000", "110437.820000", "110437.823000", "110437.825000", "110437.828000", "110437.830000", "110437.833000", "110437.836000", "110437.838000", "110437.841000", "110437.843000", "110437.846000", "110437.849000", "110437.851000", "110437.854000", "110437.856000", "110437.859000", "110437.861000", "110517.764000", "110517.769000", "110517.772000", "110517.775000", "110517.777000", "110517.780000", "110517.782000", "110517.785000", "110517.788000", "110517.790000", "110517.793000", "110517.796000", "110517.798000", "110517.801000", "110517.804000", "110517.806000", "110517.809000", "110517.811000", "110517.814000", "110517.817000", "110517.819000", "110517.822000", "110517.825000", "110517.827000", "110517.830000", "110517.833000", "110517.835000", "110517.852000", "110517.854000", "110517.857000", "110517.859000", "110517.862000", "110517.865000", "110539.787000", "110539.790000", "110539.793000", "110539.796000", "110539.798000", "110539.801000", "110539.804000", "110539.806000", "110539.809000", "110539.812000", "110539.814000", "110539.817000", "110539.820000", "110539.822000", "110539.825000", "110539.828000", "110539.830000", "110539.833000", "110539.835000"],
      "InstanceNumber": [1, 2, 3, 4, 5, 6, 7, 8, 9, 10, 11, 12, 13, 14, 15, 16, 17, 18, 19, 20, 21, 22, 23, 24, 25, 26, 27, 28, 29, 30, 31, 32, 33, 34, 35, 36, 37, 38, 39, 40, 41, 42, 43, 44, 45, 46, 47, 48, 49, 50, 51, 52, 53, 54, 55, 56, 57, 58, 59, 60, 61, 62, 63, 64, 65, 66, 67, 68, 69, 70, 71, 72, 73, 74, 75, 76, 77, 78, 79, 80, 81, 82, 83, 84, 85, 86, 87, 88, 89, 90, 91, 92, 93, 94, 95, 96, 97, 98, 99, 100, 101, 102, 103, 104, 105, 106, 107, 108, 109, 110, 111, 112, 113, 114, 115, 116, 117, 118, 119, 120, 121, 122, 123, 124, 125, 126, 127, 128, 129, 130, 131, 132, 133, 134, 135, 136, 137, 138, 139, 140, 141, 142, 143, 144, 145, 146, 147, 148, 149, 150, 151, 152, 153, 154, 155, 156, 157, 158, 159, 160, 161, 162, 163, 164, 165, 166, 167, 168, 169, 170, 171, 172, 173, 174, 175, 176, 177, 178, 179, 180, 181, 182, 183, 184, 185, 186, 187, 188, 189, 190, 191, 192, 193, 194, 195, 196, 197, 198, 199, 200, 201, 202, 203, 204, 205, 206, 207, 208, 209, 210, 211, 212, 213, 214, 215, 216, 217, 218, 219, 220, 221, 222, 223, 224, 225, 226, 227, 228, 229, 230, 231, 232, 233, 234, 235, 236, 237, 238, 239, 240, 241, 242, 243, 244, 245, 246, 247, 248, 249, 250, 251, 252, 253, 254, 255, 256, 257, 258, 259, 260, 261, 262, 263, 264, 265, 266, 267, 268, 269, 270, 271, 272, 273, 274, 275, 276, 277, 278, 279, 280, 281, 282, 283, 284, 285, 286, 287, 288, 289, 290, 291, 292, 293, 294, 295, 296, 297, 298, 299, 300, 301, 302, 303, 304, 305, 306, 307, 308, 309, 310, 311, 312, 313, 314, 315, 316, 317, 318, 319, 320, 321, 322, 323, 324, 325, 326, 327, 328, 329, 330, 331, 332, 333, 334, 335, 336, 337, 338, 339, 340, 341, 342, 343, 344, 345, 346, 347, 348, 349, 350, 351, 352, 353, 354, 355, 356, 357, 358, 359, 360, 361, 362, 363, 364, 365, 366, 367, 368, 369, 370, 371, 372, 373, 374, 375, 376, 377, 378, 379, 380, 381, 382, 383, 384, 385, 386, 387, 388, 389, 390, 391, 392],
