{
  "AcquisitionMatrixPE": 88,
  "AcquisitionNumber": 1,
  "AcquisitionTime": "11:53:47.467500",
  "BandwidthPerPixelPhaseEncode": 19.592,
  "BaseResolution": 88,
  "BodyPartExamined": "BRAIN",
  "ConsistencyInfo": "N4_VE11C_LATEST_20160120",
  "ConversionSoftware": "dcm2niix",
  "ConversionSoftwareVersion": "v1.0.20190902",
  "DerivedVendorReportedEchoSpacing": 0.000580014,
  "DeviceSerialNumber": "67050",
  "DwellTime": 2.6e-06,
  "EchoTime": 0.033,
  "EchoTrainLength": 88,
  "EffectiveEchoSpacing": 0.000580014,
  "FlipAngle": 62,
  "ImageOrientationPatientDICOM": [0.999126, -0.0120492, 0.0400227, 0.0188353, 0.984605, -0.173778],
  "ImageType": [
    "ORIGINAL",
    "PRIMARY",
    "M",
    "ND",
    "MOSAIC"
],
  "ImagingFrequency": 123.251,
  "InPlanePhaseEncodingDirectionDICOM": "COL",
  "InstitutionAddress": "Olive_Street_60_Providence_RI_US_02912",
  "InstitutionName": "BROWN_UNIVERSITY_MRF",
  "InstitutionalDepartmentName": "Department",
  "MRAcquisitionType": "2D",
  "MagneticFieldStrength": 3,
  "Manufacturer": "Siemens",
  "ManufacturersModelName": "Prisma_fit",
  "Modality": "MR",
  "MultibandAccelerationFactor": 4,
  "PartialFourier": 1,
  "PatientPosition": "HFS",
  "PercentPhaseFOV": 100,
  "PhaseEncodingDirection": "j-",
  "PhaseEncodingSteps": 88,
  "PhaseResolution": 1,
  "PixelBandwidth": 2185,
  "ProcedureStepDescription": "ASHENHAV_1222",
  "ProtocolName": "func-bold_task-RDMcolor_run-05",
  "PulseSequenceDetails": "%SiemensSeq%_ep2d_bold",
  "ReceiveCoilActiveElements": "HC1-7;NC1",
  "ReceiveCoilName": "HeadNeck_64",
  "ReconMatrixPE": 88,
  "RefLinesPE": 8,
  "RepetitionTime": 1.2,
  "SAR": 0.0485366,
  "ScanOptions": "FS",
  "ScanningSequence": "EP",
  "SequenceName": "_epfid2d1_88",
  "SequenceVariant": "SK",
  "SeriesDescription": "func-bold_task-RDMcolor_run-05",
  "SeriesNumber": 23,
  "ShimSetting": [1758, -9041, 4363, 367, -132, -307, 37, -104],
  "SliceThickness": 2.4,
  "SliceTiming": [0.5525, 0, 0.63, 0.08, 0.71, 0.1575, 0.7875, 0.2375, 0.8675, 0.315, 0.945, 0.395, 1.025, 0.4725, 1.1025, 0.5525, 0, 0.63, 0.08, 0.71, 0.1575, 0.7875, 0.2375, 0.8675, 0.315, 0.945, 0.395, 1.025, 0.4725, 1.1025, 0.5525, 0, 0.63, 0.08, 0.71, 0.1575, 0.7875, 0.2375, 0.8675, 0.315, 0.945, 0.395, 1.025, 0.4725, 1.1025, 0.5525, 0, 0.63, 0.08, 0.71, 0.1575, 0.7875, 0.2375, 0.8675, 0.315, 0.945, 0.395, 1.025, 0.4725, 1.1025],
  "SoftwareVersions": "syngo_MR_E11",
  "SpacingBetweenSlices": 2.4,
  "StationName": "AWP67050",
  "TaskName": "RDMcolor",
  "TotalReadoutTime": 0.0504612,
  "TxRefAmp": 254.98,
  "dcmmeta_affine": [
    [-2.395632028579712, 0.045161835849285126, 0.08955024182796478, 103.71175384521484],
    [0.028890812769532204, 2.360813617706299, -0.4185121953487396, -79.77484893798828],
    [0.09596341848373413, 0.4166724979877472, 2.3615307807922363, -97.71940612792969],
    [0.0, 0.0, 0.0, 1.0]
],
  "dcmmeta_reorient_transform": [
    [0.0, -1.0, 0.0, 87.0],
    [1.0, 0.0, 0.0, 0.0],
    [0.0, 0.0, 1.0, 0.0],
    [0.0, 0.0, 0.0, 1.0]
],
  "dcmmeta_shape": [88, 88, 60, 392],
  "dcmmeta_slice_dim": 2,
  "dcmmeta_version": 0.6,
  "global": {
    "const": {
      "AcquisitionMatrix": [88, 0, 0, 88],
      "AngioFlag": "N",
      "BitsAllocated": 16,
      "BitsStored": 12,
      "BodyPartExamined": "BRAIN",
      "Columns": 704,
      "DeidentificationMethodCodeSequence": [
        {
          "CodeMeaning": "XNAT DicomEdit 6 Script",
          "CodeValue": "3",
          "CodingSchemeDesignator": "XNAT",
          "CodingSchemeVersion": "1.0"}
],
      "EchoNumbers": 1,
      "EchoTime": 33.0,
      "EchoTrainLength": 88,
      "FlipAngle": 62.0,
      "HighBit": 11,
      "ImageOrientationPatient": [0.99912611939569, -0.0120492486739, 0.04002265792907, 0.01883526832072, 0.98460469328393, -0.1737781074547],
      "ImagePositionPatient": [-859.40531430446, -843.84811175972, 37.309497365994],
      "ImageType": [
        "ORIGINAL",
        "PRIMARY",
        "M",
        "ND",
        "MOSAIC"
],
      "ImagedNucleus": "1H",
      "ImagingFrequency": 123.250763,
      "InPlanePhaseEncodingDirection": "COL",
      "MRAcquisitionType": "2D",
      "MagneticFieldStrength": 3.0,
      "Manufacturer": "SIEMENS",
      "ManufacturerModelName": "Prisma_fit",
      "Modality": "MR",
      "NumberOfAverages": 1.0,
      "NumberOfPhaseEncodingSteps": 88,
      "PercentPhaseFieldOfView": 100.0,
      "PercentSampling": 100.0,
      "PerformedProcedureStepStartTime": "104137.407000",
      "PhotometricInterpretation": "MONOCHROME2",
      "PixelBandwidth": 2185.0,
      "PixelRepresentation": 0,
      "PixelSpacing": [2.3977272510529, 2.3977272510529],
      "ProtocolName": "func-bold_task-RDMcolor_run-05",
      "RepetitionTime": 1200.0,
      "Rows": 704,
      "SAR": 0.0485366370329,
      "SamplesPerPixel": 1,
      "ScanOptions": "FS",
      "ScanningSequence": "EP",
      "SequenceName": "*epfid2d1_88",
      "SequenceVariant": "SK",
      "SeriesDescription": "func-bold_task-RDMcolor_run-05",
      "SeriesNumber": 23,
      "SeriesTime": "115430.705000",
      "SliceLocation": -78.372185006174,
      "SliceThickness": 2.4000000953674,
      "SmallestImagePixelValue": 0,
      "SoftwareVersions": "syngo MR E11",
      "SpacingBetweenSlices": 2.3999999648836,
      "SpecificCharacterSet": "ISO_IR 100",
      "StudyID": "1",
      "StudyTime": "104137.264000",
      "TransmitCoilName": "Body",
      "VariableFlipAngleFlag": "N",
      "WindowCenterWidthExplanation": "Algo1",
      "dBdt": 0.0},
    "slices": {}
  },
  "time": {
    "samples": {
      "AcquisitionNumber": [1, 2, 3, 4, 5, 6, 7, 8, 9, 10, 11, 12, 13, 14, 15, 16, 17, 18, 19, 20, 21, 22, 23, 24, 25, 26, 27, 28, 29, 30, 31, 32, 33, 34, 35, 36, 37, 38, 39, 40, 41, 42, 43, 44, 45, 46, 47, 48, 49, 50, 51, 52, 53, 54, 55, 56, 57, 58, 59, 60, 61, 62, 63, 64, 65, 66, 67, 68, 69, 70, 71, 72, 73, 74, 75, 76, 77, 78, 79, 80, 81, 82, 83, 84, 85, 86, 87, 88, 89, 90, 91, 92, 93, 94, 95, 96, 97, 98, 99, 100, 101, 102, 103, 104, 105, 106, 107, 108, 109, 110, 111, 112, 113, 114, 115, 116, 117, 118, 119, 120, 121, 122, 123, 124, 125, 126, 127, 128, 129, 130, 131, 132, 133, 134, 135, 136, 137, 138, 139, 140, 141, 142, 143, 144, 145, 146, 147, 148, 149, 150, 151, 152, 153, 154, 155, 156, 157, 158, 159, 160, 161, 162, 163, 164, 165, 166, 167, 168, 169, 170, 171, 172, 173, 174, 175, 176, 177, 178, 179, 180, 181, 182, 183, 184, 185, 186, 187, 188, 189, 190, 191, 192, 193, 194, 195, 196, 197, 198, 199, 200, 201, 202, 203, 204, 205, 206, 207, 208, 209, 210, 211, 212, 213, 214, 215, 216, 217, 218, 219, 220, 221, 222, 223, 224, 225, 226, 227, 228, 229, 230, 231, 232, 233, 234, 235, 236, 237, 238, 239, 240, 241, 242, 243, 244, 245, 246, 247, 248, 249, 250, 251, 252, 253, 254, 255, 256, 257, 258, 259, 260, 261, 262, 263, 264, 265, 266, 267, 268, 269, 270, 271, 272, 273, 274, 275, 276, 277, 278, 279, 280, 281, 282, 283, 284, 285, 286, 287, 288, 289, 290, 291, 292, 293, 294, 295, 296, 297, 298, 299, 300, 301, 302, 303, 304, 305, 306, 307, 308, 309, 310, 311, 312, 313, 314, 315, 316, 317, 318, 319, 320, 321, 322, 323, 324, 325, 326, 327, 328, 329, 330, 331, 332, 333, 334, 335, 336, 337, 338, 339, 340, 341, 342, 343, 344, 345, 346, 347, 348, 349, 350, 351, 352, 353, 354, 355, 356, 357, 358, 359, 360, 361, 362, 363, 364, 365, 366, 367, 368, 369, 370, 371, 372, 373, 374, 375, 376, 377, 378, 379, 380, 381, 382, 383, 384, 385, 386, 387, 388, 389, 390, 391, 392],
      "AcquisitionTime": ["115347.467500", "115348.667500", "115349.867500", "115351.067500", "115352.267500", "115353.467500", "115354.667500", "115355.867500", "115357.067500", "115358.267500", "115359.467500", "115400.667500", "115401.867500", "115403.067500", "115404.267500", "115405.467500", "115406.667500", "115407.867500", "115409.067500", "115410.267500", "115411.467500", "115412.667500", "115413.867500", "115415.067500", "115416.267500", "115417.467500", "115418.667500", "115419.867500", "115421.067500", "115422.267500", "115423.467500", "115424.667500", "115425.867500", "115427.067500", "115428.267500", "115429.467500", "115430.667500", "115431.867500", "115433.067500", "115434.267500", "115435.467500", "115436.667500", "115437.867500", "115439.067500", "115440.267500", "115441.467500", "115442.667500", "115443.867500", "115445.067500", "115446.267500", "115447.467500", "115448.667500", "115449.867500", "115451.067500", "115452.267500", "115453.467500", "115454.667500", "115455.867500", "115457.067500", "115458.267500", "115459.467500", "115500.667500", "115501.867500", "115503.067500", "115504.267500", "115505.467500", "115506.667500", "115507.867500", "115509.067500", "115510.267500", "115511.467500", "115512.667500", "115513.867500", "115515.067500", "115516.267500", "115517.467500", "115518.667500", "115519.867500", "115521.067500", "115522.267500", "115523.467500", "115524.667500", "115525.867500", "115527.067500", "115528.267500", "115529.467500", "115530.667500", "115531.867500", "115533.067500", "115534.267500", "115535.467500", "115536.667500", "115537.867500", "115539.067500", "115540.267500", "115541.467500", "115542.667500", "115543.867500", "115545.067500", "115546.267500", "115547.467500", "115548.667500", "115549.867500", "115551.067500", "115552.267500", "115553.467500", "115554.667500", "115555.867500", "115557.067500", "115558.267500", "115559.467500", "115600.667500", "115601.867500", "115603.067500", "115604.267500", "115605.467500", "115606.667500", "115607.867500", "115609.067500", "115610.267500", "115611.467500", "115612.667500", "115613.867500", "115615.067500", "115616.267500", "115617.467500", "115618.667500", "115619.867500", "115621.067500", "115622.267500", "115623.467500", "115624.667500", "115625.867500", "115627.067500", "115628.267500", "115629.467500", "115630.667500", "115631.867500", "115633.067500", "115634.267500", "115635.467500", "115636.667500", "115637.867500", "115639.067500", "115640.267500", "115641.467500", "115642.667500", "115643.867500", "115645.067500", "115646.267500", "115647.467500", "115648.667500", "115649.867500", "115651.067500", "115652.267500", "115653.467500", "115654.667500", "115655.867500", "115657.067500", "115658.267500", "115659.467500", "115700.667500", "115701.867500", "115703.067500", "115704.267500", "115705.467500", "115706.667500", "115707.867500", "115709.067500", "115710.267500", "115711.467500", "115712.667500", "115713.867500", "115715.067500", "115716.267500", "115717.467500", "115718.667500", "115719.867500", "115721.067500", "115722.267500", "115723.467500", "115724.667500", "115725.867500", "115727.067500", "115728.267500", "115729.467500", "115730.667500", "115731.867500", "115733.067500", "115734.267500", "115735.467500", "115736.667500", "115737.867500", "115739.067500", "115740.267500", "115741.467500", "115742.667500", "115743.867500", "115745.067500", "115746.267500", "115747.467500", "115748.667500", "115749.867500", "115751.067500", "115752.267500", "115753.467500", "115754.667500", "115755.867500", "115757.067500", "115758.267500", "115759.467500", "115800.667500", "115801.867500", "115803.067500", "115804.267500", "115805.467500", "115806.667500", "115807.867500", "115809.067500", "115810.267500", "115811.467500", "115812.667500", "115813.867500", "115815.067500", "115816.267500", "115817.467500", "115818.667500", "115819.867500", "115821.067500", "115822.267500", "115823.467500", "115824.667500", "115825.867500", "115827.067500", "115828.267500", "115829.467500", "115830.667500", "115831.867500", "115833.067500", "115834.267500", "115835.467500", "115836.667500", "115837.867500", "115839.067500", "115840.267500", "115841.467500", "115842.667500", "115843.867500", "115845.067500", "115846.267500", "115847.467500", "115848.667500", "115849.867500", "115851.067500", "115852.267500", "115853.467500", "115854.667500", "115855.867500", "115857.067500", "115858.267500", "115859.467500", "115900.667500", "115901.867500", "115903.067500", "115904.267500", "115905.467500", "115906.667500", "115907.867500", "115909.067500", "115910.267500", "115911.467500", "115912.667500", "115913.867500", "115915.067500", "115916.267500", "115917.467500", "115918.667500", "115919.867500", "115921.067500", "115922.267500", "115923.467500", "115924.667500", "115925.867500", "115927.067500", "115928.267500", "115929.467500", "115930.667500", "115931.867500", "115933.067500", "115934.267500", "115935.467500", "115936.667500", "115937.867500", "115939.067500", "115940.267500", "115941.467500", "115942.667500", "115943.867500", "115945.067500", "115946.267500", "115947.467500", "115948.667500", "115949.867500", "115951.067500", "115952.267500", "115953.467500", "115954.667500", "115955.867500", "115957.067500", "115958.267500", "115959.467500", "120000.667500", "120001.867500", "120003.067500", "120004.267500", "120005.467500", "120006.667500", "120007.867500", "120009.067500", "120010.267500", "120011.467500", "120012.667500", "120013.867500", "120015.067500", "120016.267500", "120017.467500", "120018.667500", "120019.867500", "120021.067500", "120022.267500", "120023.467500", "120024.667500", "120025.867500", "120027.067500", "120028.267500", "120029.467500", "120030.667500", "120031.867500", "120033.067500", "120034.267500", "120035.467500", "120036.667500", "120037.867500", "120039.067500", "120040.267500", "120041.467500", "120042.667500", "120043.867500", "120045.067500", "120046.267500", "120047.467500", "120048.667500", "120049.867500", "120051.067500", "120052.267500", "120053.467500", "120054.667500", "120055.867500", "120057.067500", "120058.267500", "120059.467500", "120100.667500", "120101.867500", "120103.067500", "120104.267500", "120105.467500", "120106.667500", "120107.867500", "120109.067500", "120110.267500", "120111.467500", "120112.667500", "120113.867500", "120115.067500", "120116.267500", "120117.467500", "120118.667500", "120119.867500", "120121.067500", "120122.267500", "120123.467500", "120124.667500", "120125.867500", "120127.067500", "120128.267500", "120129.467500", "120130.667500", "120131.867500", "120133.067500", "120134.267500", "120135.467500", "120136.667500"],
      "ContentTime": ["115430.708000", "115430.712000", "115430.714000", "115430.717000", "115430.720000", "115430.723000", "115430.725000", "115430.728000", "115430.730000", "115430.733000", "115430.736000", "115430.738000", "115430.741000", "115430.744000", "115430.746000", "115430.749000", "115430.751000", "115430.754000", "115430.756000", "115430.759000", "115430.762000", "115430.764000", "115430.767000", "115430.775000", "115430.778000", "115430.780000", "115430.783000", "115430.785000", "115430.788000", "115430.790000", "115430.793000", "115430.795000", "115430.798000", "115430.801000", "115430.803000", "115510.704000", "115510.706000", "115510.709000", "115510.712000", "115510.715000", "115510.717000", "115510.724000", "115510.726000", "115510.729000", "115510.731000", "115510.734000", "115510.737000", "115510.739000", "115510.742000", "115510.744000", "115510.747000", "115510.750000", "115510.752000", "115510.755000", "115510.758000", "115510.760000", "115510.763000", "115510.765000", "115510.768000", "115510.770000", "115510.773000", "115510.776000", "115510.779000", "115510.781000", "115510.784000", "115510.786000", "115510.789000", "115510.791000", "115510.794000", "115550.703000", "115550.706000", "115550.709000", "115550.711000", "115550.714000", "115550.717000", "115550.719000", "115550.722000", "115550.724000", "115550.727000", "115550.730000", "115550.732000", "115550.735000", "115550.738000", "115550.740000", "115550.743000", "115550.747000", "115550.749000", "115550.752000", "115550.763000", "115550.766000", "115550.768000", "115550.789000", "115550.792000", "115550.802000", "115550.805000", "115550.807000", "115550.810000", "115550.812000", "115550.815000", "115550.817000", "115550.820000", "115550.823000", "115630.703000", "115630.706000", "115630.709000", "115630.712000", "115630.714000", "115630.717000", "115630.720000", "115630.723000", "115630.725000", "115630.728000", "115630.731000", "115630.734000", "115630.737000", "115630.740000", "115630.743000", "115630.745000", "115630.748000", "115630.751000", "115630.753000", "115630.756000", "115630.759000", "115630.761000", "115630.764000", "115630.766000", "115630.769000", "115630.771000", "115630.774000", "115630.777000", "115630.779000", "115630.782000", "115630.784000", "115630.787000", "115630.790000", "115710.703000", "115710.706000", "115710.709000", "115710.711000", "115710.714000", "115710.717000", "115710.719000", "115710.722000", "115710.724000", "115710.727000", "115710.730000", "115710.732000", "115710.735000", "115710.737000", "115710.740000", "115710.743000", "115710.745000", "115710.748000", "115710.750000", "115710.753000", "115710.756000", "115710.758000", "115710.761000", "115710.764000", "115710.766000", "115710.769000", "115710.771000", "115710.774000", "115710.777000", "115710.779000", "115710.782000", "115710.784000", "115710.787000", "115710.789000", "115730.704000", "115730.707000", "115730.709000", "115730.712000", "115730.714000", "115730.717000", "115730.720000", "115730.722000", "115730.725000", "115730.727000", "115730.730000", "115730.733000", "115730.735000", "115730.738000", "115730.741000", "115730.744000", "115810.703000", "115810.707000", "115810.709000", "115810.712000", "115810.714000", "115810.717000", "115810.720000", "115810.722000", "115810.725000", "115810.728000", "115810.730000", "115810.733000", "115810.735000", "115810.738000", "115810.741000", "115810.743000", "115810.746000", "115810.748000", "115810.751000", "115810.754000", "115810.756000", "115810.759000", "115810.761000", "115810.764000", "115810.767000", "115810.769000", "115810.772000", "115810.775000", "115810.777000", "115810.780000", "115810.782000", "115810.785000", "115810.787000", "115810.790000", "115850.703000", "115850.706000", "115850.709000", "115850.712000", "115850.714000", "115850.717000", "115850.720000", "115850.722000", "115850.725000", "115850.727000", "115850.730000", "115850.732000", "115850.735000", "115850.738000", "115850.740000", "115850.744000", "115850.747000", "115850.750000", "115850.752000", "115850.755000", "115850.757000", "115850.760000", "115850.763000", "115850.765000", "115850.768000", "115850.770000", "115850.773000", "115850.775000", "115850.778000", "115850.781000", "115850.783000", "115850.786000", "115850.788000", "115930.703000", "115930.706000", "115930.709000", "115930.712000", "115930.714000", "115930.717000", "115930.720000", "115930.723000", "115930.726000", "115930.728000", "115930.731000", "115930.734000", "115930.737000", "115930.739000", "115930.742000", "115930.744000", "115930.747000", "115930.750000", "115930.752000", "115930.755000", "115930.758000", "115930.760000", "115930.763000", "115930.766000", "115930.768000", "115930.771000", "115930.773000", "115930.776000", "115930.779000", "115930.781000", "115930.784000", "115930.787000", "115930.789000", "120010.704000", "120010.706000", "120010.709000", "120010.725000", "120010.728000", "120010.730000", "120010.733000", "120010.735000", "120010.738000", "120010.741000", "120010.743000", "120010.746000", "120010.749000", "120010.751000", "120010.754000", "120010.756000", "120010.759000", "120010.762000", "120010.764000", "120010.767000", "120010.769000", "120010.772000", "120010.775000", "120010.777000", "120010.780000", "120010.782000", "120010.785000", "120010.788000", "120010.790000", "120010.793000", "120010.795000", "120010.798000", "120010.801000", "120010.803000", "120050.704000", "120050.706000", "120050.709000", "120050.712000", "120050.714000", "120050.717000", "120050.719000", "120050.722000", "120050.725000", "120050.727000", "120050.730000", "120050.733000", "120050.735000", "120050.738000", "120050.740000", "120050.744000", "120050.747000", "120050.749000", "120050.752000", "120050.754000", "120050.757000", "120050.760000", "120050.762000", "120050.765000", "120050.767000", "120050.770000", "120050.773000", "120050.783000", "120050.785000", "120050.788000", "120050.790000", "120050.793000", "120050.796000", "120130.704000", "120130.707000", "120130.709000", "120130.712000", "120130.714000", "120130.717000", "120130.720000", "120130.723000", "120130.726000", "120130.729000", "120130.732000", "120130.734000", "120130.737000", "120130.740000", "120130.743000", "120130.745000", "120130.748000", "120130.751000", "120130.753000", "120130.756000", "120130.758000", "120130.761000", "120130.764000", "120130.766000", "120130.769000", "120130.772000", "120130.774000", "120130.777000", "120130.779000", "120130.782000", "120130.785000", "120130.787000", "120130.790000", "120138.009000", "120138.012000", "120138.015000", "120138.017000", "120138.020000", "120138.023000", "120138.025000"],
      "InstanceCreationTime": ["115430.708000", "115430.712000", "115430.714000", "115430.717000", "115430.720000", "115430.723000", "115430.725000", "115430.728000", "115430.730000", "115430.733000", "115430.736000", "115430.738000", "115430.741000", "115430.744000", "115430.746000", "115430.749000", "115430.751000", "115430.754000", "115430.756000", "115430.759000", "115430.762000", "115430.764000", "115430.767000", "115430.775000", "115430.778000", "115430.780000", "115430.783000", "115430.785000", "115430.788000", "115430.790000", "115430.793000", "115430.795000", "115430.798000", "115430.801000", "115430.803000", "115510.704000", "115510.706000", "115510.709000", "115510.712000", "115510.715000", "115510.717000", "115510.724000", "115510.726000", "115510.729000", "115510.731000", "115510.734000", "115510.737000", "115510.739000", "115510.742000", "115510.744000", "115510.747000", "115510.750000", "115510.752000", "115510.755000", "115510.758000", "115510.760000", "115510.763000", "115510.765000", "115510.768000", "115510.770000", "115510.773000", "115510.776000", "115510.779000", "115510.781000", "115510.784000", "115510.786000", "115510.789000", "115510.791000", "115510.794000", "115550.703000", "115550.706000", "115550.709000", "115550.711000", "115550.714000", "115550.717000", "115550.719000", "115550.722000", "115550.724000", "115550.727000", "115550.730000", "115550.732000", "115550.735000", "115550.738000", "115550.740000", "115550.743000", "115550.747000", "115550.749000", "115550.752000", "115550.763000", "115550.766000", "115550.768000", "115550.789000", "115550.792000", "115550.802000", "115550.805000", "115550.807000", "115550.810000", "115550.812000", "115550.815000", "115550.817000", "115550.820000", "115550.823000", "115630.703000", "115630.706000", "115630.709000", "115630.712000", "115630.714000", "115630.717000", "115630.720000", "115630.723000", "115630.725000", "115630.728000", "115630.731000", "115630.734000", "115630.737000", "115630.740000", "115630.743000", "115630.745000", "115630.748000", "115630.751000", "115630.753000", "115630.756000", "115630.759000", "115630.761000", "115630.764000", "115630.766000", "115630.769000", "115630.771000", "115630.774000", "115630.777000", "115630.779000", "115630.782000", "115630.784000", "115630.787000", "115630.790000", "115710.703000", "115710.706000", "115710.709000", "115710.711000", "115710.714000", "115710.717000", "115710.719000", "115710.722000", "115710.724000", "115710.727000", "115710.730000", "115710.732000", "115710.735000", "115710.737000", "115710.740000", "115710.743000", "115710.745000", "115710.748000", "115710.750000", "115710.753000", "115710.756000", "115710.758000", "115710.761000", "115710.764000", "115710.766000", "115710.769000", "115710.771000", "115710.774000", "115710.777000", "115710.779000", "115710.782000", "115710.784000", "115710.787000", "115710.789000", "115730.704000", "115730.707000", "115730.709000", "115730.712000", "115730.714000", "115730.717000", "115730.720000", "115730.722000", "115730.725000", "115730.727000", "115730.730000", "115730.733000", "115730.735000", "115730.738000", "115730.741000", "115730.744000", "115810.703000", "115810.707000", "115810.709000", "115810.712000", "115810.714000", "115810.717000", "115810.720000", "115810.722000", "115810.725000", "115810.728000", "115810.730000", "115810.733000", "115810.735000", "115810.738000", "115810.741000", "115810.743000", "115810.746000", "115810.748000", "115810.751000", "115810.754000", "115810.756000", "115810.759000", "115810.761000", "115810.764000", "115810.767000", "115810.769000", "115810.772000", "115810.775000", "115810.777000", "115810.780000", "115810.782000", "115810.785000", "115810.787000", "115810.790000", "115850.703000", "115850.706000", "115850.709000", "115850.712000", "115850.714000", "115850.717000", "115850.720000", "115850.722000", "115850.725000", "115850.727000", "115850.730000", "115850.732000", "115850.735000", "115850.738000", "115850.740000", "115850.744000", "115850.747000", "115850.750000", "115850.752000", "115850.755000", "115850.757000", "115850.760000", "115850.763000", "115850.765000", "115850.768000", "115850.770000", "115850.773000", "115850.775000", "115850.778000", "115850.781000", "115850.783000", "115850.786000", "115850.788000", "115930.703000", "115930.706000", "115930.709000", "115930.712000", "115930.714000", "115930.717000", "115930.720000", "115930.723000", "115930.726000", "115930.728000", "115930.731000", "115930.734000", "115930.737000", "115930.739000", "115930.742000", "115930.744000", "115930.747000", "115930.750000", "115930.752000", "115930.755000", "115930.758000", "115930.760000", "115930.763000", "115930.766000", "115930.768000", "115930.771000", "115930.773000", "115930.776000", "115930.779000", "115930.781000", "115930.784000", "115930.787000", "115930.789000", "120010.704000", "120010.706000", "120010.709000", "120010.725000", "120010.728000", "120010.730000", "120010.733000", "120010.735000", "120010.738000", "120010.741000", "120010.743000", "120010.746000", "120010.749000", "120010.751000", "120010.754000", "120010.756000", "120010.759000", "120010.762000", "120010.764000", "120010.767000", "120010.769000", "120010.772000", "120010.775000", "120010.777000", "120010.780000", "120010.782000", "120010.785000", "120010.788000", "120010.790000", "120010.793000", "120010.795000", "120010.798000", "120010.801000", "120010.803000", "120050.704000", "120050.706000", "120050.709000", "120050.712000", "120050.714000", "120050.717000", "120050.719000", "120050.722000", "120050.725000", "120050.727000", "120050.730000", "120050.733000", "120050.735000", "120050.738000", "120050.740000", "120050.744000", "120050.747000", "120050.749000", "120050.752000", "120050.754000", "120050.757000", "120050.760000", "120050.762000", "120050.765000", "120050.767000", "120050.770000", "120050.773000", "120050.783000", "120050.785000", "120050.788000", "120050.790000", "120050.793000", "120050.796000", "120130.704000", "120130.707000", "120130.709000", "120130.712000", "120130.714000", "120130.717000", "120130.720000", "120130.723000", "120130.726000", "120130.729000", "120130.732000", "120130.734000", "120130.737000", "120130.740000", "120130.743000", "120130.745000", "120130.748000", "120130.751000", "120130.753000", "120130.756000", "120130.758000", "120130.761000", "120130.764000", "120130.766000", "120130.769000", "120130.772000", "120130.774000", "120130.777000", "120130.779000", "120130.782000", "120130.785000", "120130.787000", "120130.790000", "120138.009000", "120138.012000", "120138.015000", "120138.017000", "120138.020000", "120138.023000", "120138.025000"],
      "InstanceNumber": [1, 2, 3, 4, 5, 6, 7, 8, 9, 10, 11, 12, 13, 14, 15, 16, 17, 18, 19, 20, 21, 22, 23, 24, 25, 26, 27, 28, 29, 30, 31, 32, 33, 34, 35, 36, 37, 38, 39, 40, 41, 42, 43, 44, 45, 46, 47, 48, 49, 50, 51, 52, 53, 54, 55, 56, 57, 58, 59, 60, 61, 62, 63, 64, 65, 66, 67, 68, 69, 70, 71, 72, 73, 74, 75, 76, 77, 78, 79, 80, 81, 82, 83, 84, 85, 86, 87, 88, 89, 90, 91, 92, 93, 94, 95, 96, 97, 98, 99, 100, 101, 102, 103, 104, 105, 106, 107, 108, 109, 110, 111, 112, 113, 114, 115, 116, 117, 118, 119, 120, 121, 122, 123, 124, 125, 126, 127, 128, 129, 130, 131, 132, 133, 134, 135, 136, 137, 138, 139, 140, 141, 142, 143, 144, 145, 146, 147, 148, 149, 150, 151, 152, 153, 154, 155, 156, 157, 158, 159, 160, 161, 162, 163, 164, 165, 166, 167, 168, 169, 170, 171, 172, 173, 174, 175, 176, 177, 178, 179, 180, 181, 182, 183, 184, 185, 186, 187, 188, 189, 190, 191, 192, 193, 194, 195, 196, 197, 198, 199, 200, 201, 202, 203, 204, 205, 206, 207, 208, 209, 210, 211, 212, 213, 214, 215, 216, 217, 218, 219, 220, 221, 222, 223, 224, 225, 226, 227, 228, 229, 230, 231, 232, 233, 234, 235, 236, 237, 238, 239, 240, 241, 242, 243, 244, 245, 246, 247, 248, 249, 250, 251, 252, 253, 254, 255, 256, 257, 258, 259, 260, 261, 262, 263, 264, 265, 266, 267, 268, 269, 270, 271, 272, 273, 274, 275, 276, 277, 278, 279, 280, 281, 282, 283, 284, 285, 286, 287, 288, 289, 290, 291, 292, 293, 294, 295, 296, 297, 298, 299, 300, 301, 302, 303, 304, 305, 306, 307, 308, 309, 310, 311, 312, 313, 314, 315, 316, 317, 318, 319, 320, 321, 322, 323, 324, 325, 326, 327, 328, 329, 330, 331, 332, 333, 334, 335, 336, 337, 338, 339, 340, 341, 342, 343, 344, 345, 346, 347, 348, 349, 350, 351, 352, 353, 354, 355, 356, 357, 358, 359, 360, 361, 362, 363, 364, 365, 366, 367, 368, 369, 370, 371, 372, 373, 374, 375, 376, 377, 378, 379, 380, 381, 382, 383, 384, 385, 386, 387, 388, 389, 390, 391, 392],
