{
  "AcquisitionMatrixPE": 88,
  "AcquisitionNumber": 1,
  "AcquisitionTime": "10:52:44.852500",
  "BandwidthPerPixelPhaseEncode": 19.592,
  "BaseResolution": 88,
  "BodyPartExamined": "BRAIN",
  "ConsistencyInfo": "N4_VE11C_LATEST_20160120",
  "ConversionSoftware": "dcm2niix",
  "ConversionSoftwareVersion": "v1.0.20190902",
  "DerivedVendorReportedEchoSpacing": 0.000580014,
  "DeviceSerialNumber": "67050",
  "DwellTime": 2.6e-06,
  "EchoTime": 0.033,
  "EchoTrainLength": 88,
  "EffectiveEchoSpacing": 0.000580014,
  "FlipAngle": 62,
  "ImageOrientationPatientDICOM": [0.999151, -0.032854, 0.0248782, 0.0371611, 0.979239, -0.199276],
  "ImageType": [
    "ORIGINAL",
    "PRIMARY",
    "M",
    "ND",
    "MOSAIC"
],
  "ImagingFrequency": 123.251,
  "InPlanePhaseEncodingDirectionDICOM": "COL",
  "InstitutionAddress": "Olive_Street_60_Providence_RI_US_02912",
  "InstitutionName": "BROWN_UNIVERSITY_MRF",
  "InstitutionalDepartmentName": "Department",
  "MRAcquisitionType": "2D",
  "MagneticFieldStrength": 3,
  "Manufacturer": "Siemens",
  "ManufacturersModelName": "Prisma_fit",
  "Modality": "MR",
  "MultibandAccelerationFactor": 4,
  "PartialFourier": 1,
  "PatientPosition": "HFS",
  "PercentPhaseFOV": 100,
  "PhaseEncodingDirection": "j-",
  "PhaseEncodingSteps": 88,
  "PhaseResolution": 1,
  "PixelBandwidth": 2185,
  "ProcedureStepDescription": "ASHENHAV_1222",
  "ProtocolName": "func-bold_task-RDMcolor_run-01",
  "PulseSequenceDetails": "%SiemensSeq%_ep2d_bold",
  "ReceiveCoilActiveElements": "HC1-7;NC1",
  "ReceiveCoilName": "HeadNeck_64",
  "ReconMatrixPE": 88,
  "RefLinesPE": 8,
  "RepetitionTime": 1.2,
  "SAR": 0.0481143,
  "ScanOptions": "FS",
  "ScanningSequence": "EP",
  "SequenceName": "_epfid2d1_88",
  "SequenceVariant": "SK",
  "SeriesDescription": "func-bold_task-RDMcolor_run-01",
  "SeriesNumber": 8,
  "ShimSetting": [1742, -9059, 4360, 382, -119, -362, -24, -68],
  "SliceThickness": 2.4,
  "SliceTiming": [0.5525, 0, 0.63, 0.08, 0.7075, 0.1575, 0.7875, 0.2375, 0.865, 0.315, 0.945, 0.395, 1.0225, 0.4725, 1.1025, 0.5525, 0, 0.63, 0.08, 0.7075, 0.1575, 0.7875, 0.2375, 0.865, 0.315, 0.945, 0.395, 1.0225, 0.4725, 1.1025, 0.5525, 0, 0.63, 0.08, 0.7075, 0.1575, 0.7875, 0.2375, 0.865, 0.315, 0.945, 0.395, 1.0225, 0.4725, 1.1025, 0.5525, 0, 0.63, 0.08, 0.7075, 0.1575, 0.7875, 0.2375, 0.865, 0.315, 0.945, 0.395, 1.0225, 0.4725, 1.1025],
  "SoftwareVersions": "syngo_MR_E11",
  "SpacingBetweenSlices": 2.4,
  "StationName": "AWP67050",
  "TaskName": "RDMcolor",
  "TotalReadoutTime": 0.0504612,
  "TxRefAmp": 251.74,
  "dcmmeta_affine": [
    [-2.395690441131592, 0.0891021266579628, 0.04275523126125336, 100.81504821777344],
    [0.07877487689256668, 2.347946882247925, -0.4800748825073242, -76.80107879638672],
    [0.05965112894773483, 0.47780948877334595, 2.3511059284210205, -92.32898712158203],
    [0.0, 0.0, 0.0, 1.0]
],
  "dcmmeta_reorient_transform": [
    [0.0, -1.0, 0.0, 87.0],
    [1.0, 0.0, 0.0, 0.0],
    [0.0, 0.0, 1.0, 0.0],
    [0.0, 0.0, 0.0, 1.0]
],
  "dcmmeta_shape": [88, 88, 60, 392],
  "dcmmeta_slice_dim": 2,
  "dcmmeta_version": 0.6,
  "global": {
    "const": {
      "AcquisitionMatrix": [88, 0, 0, 88],
      "AngioFlag": "N",
      "BitsAllocated": 16,
      "BitsStored": 12,
      "BodyPartExamined": "BRAIN",
      "Columns": 704,
      "DeidentificationMethodCodeSequence": [
        {
          "CodeMeaning": "XNAT DicomEdit 6 Script",
          "CodeValue": "3",
          "CodingSchemeDesignator": "XNAT",
          "CodingSchemeVersion": "1.0"}
],
      "EchoNumbers": 1,
      "EchoTime": 33.0,
      "EchoTrainLength": 88,
      "FlipAngle": 62.0,
      "HighBit": 11,
      "ImageOrientationPatient": [0.99915048495405, -0.032853976555, 0.02487819608818, 0.03716107637795, 0.97923854786965, -0.1992759914505],
      "ImagePositionPatient": [-873.88301286131, -826.37530665648, 78.033206766272],
      "ImageType": [
        "ORIGINAL",
        "PRIMARY",
        "M",
        "ND",
        "MOSAIC"
],
      "ImagedNucleus": "1H",
      "ImagingFrequency": 123.250729,
      "InPlanePhaseEncodingDirection": "COL",
      "MRAcquisitionType": "2D",
      "MagneticFieldStrength": 3.0,
      "Manufacturer": "SIEMENS",
      "ManufacturerModelName": "Prisma_fit",
      "Modality": "MR",
      "NumberOfAverages": 1.0,
      "NumberOfPhaseEncodingSteps": 88,
      "PercentPhaseFieldOfView": 100.0,
      "PercentSampling": 100.0,
      "PerformedProcedureStepStartTime": "104137.407000",
      "PhotometricInterpretation": "MONOCHROME2",
      "PixelBandwidth": 2185.0,
      "PixelRepresentation": 0,
      "PixelSpacing": [2.3977272510529, 2.3977272510529],
      "ProtocolName": "func-bold_task-RDMcolor_run-01",
      "RepetitionTime": 1200.0,
      "Rows": 704,
      "SAR": 0.04811432864412,
      "SamplesPerPixel": 1,
      "ScanOptions": "FS",
      "ScanningSequence": "EP",
      "SequenceName": "*epfid2d1_88",
      "SequenceVariant": "SK",
      "SeriesDescription": "func-bold_task-RDMcolor_run-01",
      "SeriesNumber": 8,
      "SeriesTime": "105310.759000",
      "SliceLocation": -73.2894215974,
      "SliceThickness": 2.4000000953674,
      "SmallestImagePixelValue": 0,
      "SoftwareVersions": "syngo MR E11",
      "SpacingBetweenSlices": 2.3999998934776,
      "SpecificCharacterSet": "ISO_IR 100",
      "StudyID": "1",
      "StudyTime": "104137.264000",
      "TransmitCoilName": "Body",
      "VariableFlipAngleFlag": "N",
      "WindowCenterWidthExplanation": "Algo1",
      "dBdt": 0.0},
    "slices": {}
  },
  "time": {
    "samples": {
      "AcquisitionNumber": [1, 2, 3, 4, 5, 6, 7, 8, 9, 10, 11, 12, 13, 14, 15, 16, 17, 18, 19, 20, 21, 22, 23, 24, 25, 26, 27, 28, 29, 30, 31, 32, 33, 34, 35, 36, 37, 38, 39, 40, 41, 42, 43, 44, 45, 46, 47, 48, 49, 50, 51, 52, 53, 54, 55, 56, 57, 58, 59, 60, 61, 62, 63, 64, 65, 66, 67, 68, 69, 70, 71, 72, 73, 74, 75, 76, 77, 78, 79, 80, 81, 82, 83, 84, 85, 86, 87, 88, 89, 90, 91, 92, 93, 94, 95, 96, 97, 98, 99, 100, 101, 102, 103, 104, 105, 106, 107, 108, 109, 110, 111, 112, 113, 114, 115, 116, 117, 118, 119, 120, 121, 122, 123, 124, 125, 126, 127, 128, 129, 130, 131, 132, 133, 134, 135, 136, 137, 138, 139, 140, 141, 142, 143, 144, 145, 146, 147, 148, 149, 150, 151, 152, 153, 154, 155, 156, 157, 158, 159, 160, 161, 162, 163, 164, 165, 166, 167, 168, 169, 170, 171, 172, 173, 174, 175, 176, 177, 178, 179, 180, 181, 182, 183, 184, 185, 186, 187, 188, 189, 190, 191, 192, 193, 194, 195, 196, 197, 198, 199, 200, 201, 202, 203, 204, 205, 206, 207, 208, 209, 210, 211, 212, 213, 214, 215, 216, 217, 218, 219, 220, 221, 222, 223, 224, 225, 226, 227, 228, 229, 230, 231, 232, 233, 234, 235, 236, 237, 238, 239, 240, 241, 242, 243, 244, 245, 246, 247, 248, 249, 250, 251, 252, 253, 254, 255, 256, 257, 258, 259, 260, 261, 262, 263, 264, 265, 266, 267, 268, 269, 270, 271, 272, 273, 274, 275, 276, 277, 278, 279, 280, 281, 282, 283, 284, 285, 286, 287, 288, 289, 290, 291, 292, 293, 294, 295, 296, 297, 298, 299, 300, 301, 302, 303, 304, 305, 306, 307, 308, 309, 310, 311, 312, 313, 314, 315, 316, 317, 318, 319, 320, 321, 322, 323, 324, 325, 326, 327, 328, 329, 330, 331, 332, 333, 334, 335, 336, 337, 338, 339, 340, 341, 342, 343, 344, 345, 346, 347, 348, 349, 350, 351, 352, 353, 354, 355, 356, 357, 358, 359, 360, 361, 362, 363, 364, 365, 366, 367, 368, 369, 370, 371, 372, 373, 374, 375, 376, 377, 378, 379, 380, 381, 382, 383, 384, 385, 386, 387, 388, 389, 390, 391, 392],
      "AcquisitionTime": ["105244.852500", "105246.052500", "105247.252500", "105248.452500", "105249.652500", "105250.852500", "105252.052500", "105253.252500", "105254.452500", "105255.652500", "105256.852500", "105258.052500", "105259.252500", "105300.452500", "105301.652500", "105302.852500", "105304.052500", "105305.252500", "105306.452500", "105307.652500", "105308.852500", "105310.052500", "105311.252500", "105312.452500", "105313.652500", "105314.852500", "105316.052500", "105317.252500", "105318.452500", "105319.652500", "105320.852500", "105322.052500", "105323.252500", "105324.452500", "105325.652500", "105326.852500", "105328.052500", "105329.252500", "105330.452500", "105331.652500", "105332.852500", "105334.052500", "105335.252500", "105336.452500", "105337.652500", "105338.852500", "105340.052500", "105341.252500", "105342.452500", "105343.652500", "105344.852500", "105346.052500", "105347.252500", "105348.452500", "105349.652500", "105350.852500", "105352.052500", "105353.252500", "105354.452500", "105355.652500", "105356.852500", "105358.052500", "105359.252500", "105400.452500", "105401.652500", "105402.852500", "105404.052500", "105405.252500", "105406.452500", "105407.652500", "105408.852500", "105410.052500", "105411.252500", "105412.452500", "105413.652500", "105414.852500", "105416.052500", "105417.252500", "105418.452500", "105419.652500", "105420.852500", "105422.052500", "105423.252500", "105424.452500", "105425.652500", "105426.852500", "105428.052500", "105429.252500", "105430.452500", "105431.652500", "105432.852500", "105434.052500", "105435.252500", "105436.452500", "105437.652500", "105438.852500", "105440.052500", "105441.252500", "105442.452500", "105443.652500", "105444.852500", "105446.052500", "105447.252500", "105448.452500", "105449.652500", "105450.852500", "105452.052500", "105453.252500", "105454.452500", "105455.652500", "105456.852500", "105458.052500", "105459.252500", "105500.452500", "105501.652500", "105502.852500", "105504.052500", "105505.252500", "105506.452500", "105507.652500", "105508.852500", "105510.052500", "105511.252500", "105512.452500", "105513.652500", "105514.852500", "105516.052500", "105517.252500", "105518.452500", "105519.652500", "105520.852500", "105522.052500", "105523.252500", "105524.452500", "105525.652500", "105526.852500", "105528.052500", "105529.252500", "105530.452500", "105531.652500", "105532.852500", "105534.052500", "105535.252500", "105536.452500", "105537.652500", "105538.852500", "105540.052500", "105541.252500", "105542.452500", "105543.652500", "105544.852500", "105546.052500", "105547.252500", "105548.452500", "105549.652500", "105550.852500", "105552.052500", "105553.252500", "105554.452500", "105555.652500", "105556.852500", "105558.052500", "105559.252500", "105600.452500", "105601.652500", "105602.852500", "105604.052500", "105605.252500", "105606.452500", "105607.652500", "105608.852500", "105610.052500", "105611.252500", "105612.452500", "105613.652500", "105614.852500", "105616.052500", "105617.252500", "105618.452500", "105619.652500", "105620.852500", "105622.052500", "105623.252500", "105624.452500", "105625.652500", "105626.852500", "105628.052500", "105629.252500", "105630.452500", "105631.652500", "105632.852500", "105634.052500", "105635.252500", "105636.452500", "105637.652500", "105638.852500", "105640.052500", "105641.252500", "105642.452500", "105643.652500", "105644.852500", "105646.052500", "105647.252500", "105648.452500", "105649.652500", "105650.852500", "105652.052500", "105653.252500", "105654.452500", "105655.652500", "105656.852500", "105658.052500", "105659.252500", "105700.452500", "105701.652500", "105702.852500", "105704.052500", "105705.252500", "105706.452500", "105707.652500", "105708.852500", "105710.052500", "105711.252500", "105712.452500", "105713.652500", "105714.852500", "105716.052500", "105717.252500", "105718.452500", "105719.652500", "105720.852500", "105722.052500", "105723.252500", "105724.452500", "105725.652500", "105726.852500", "105728.052500", "105729.252500", "105730.452500", "105731.652500", "105732.852500", "105734.052500", "105735.252500", "105736.452500", "105737.652500", "105738.852500", "105740.052500", "105741.252500", "105742.452500", "105743.652500", "105744.852500", "105746.052500", "105747.252500", "105748.452500", "105749.652500", "105750.852500", "105752.052500", "105753.252500", "105754.452500", "105755.652500", "105756.852500", "105758.052500", "105759.252500", "105800.452500", "105801.652500", "105802.852500", "105804.052500", "105805.252500", "105806.452500", "105807.652500", "105808.852500", "105810.052500", "105811.252500", "105812.452500", "105813.652500", "105814.852500", "105816.052500", "105817.252500", "105818.452500", "105819.652500", "105820.852500", "105822.052500", "105823.252500", "105824.452500", "105825.652500", "105826.852500", "105828.052500", "105829.252500", "105830.452500", "105831.652500", "105832.852500", "105834.052500", "105835.252500", "105836.452500", "105837.652500", "105838.852500", "105840.052500", "105841.252500", "105842.452500", "105843.652500", "105844.852500", "105846.052500", "105847.252500", "105848.452500", "105849.652500", "105850.852500", "105852.052500", "105853.252500", "105854.452500", "105855.652500", "105856.852500", "105858.052500", "105859.252500", "105900.452500", "105901.652500", "105902.852500", "105904.052500", "105905.252500", "105906.452500", "105907.652500", "105908.852500", "105910.052500", "105911.252500", "105912.452500", "105913.652500", "105914.852500", "105916.052500", "105917.252500", "105918.452500", "105919.652500", "105920.852500", "105922.052500", "105923.252500", "105924.452500", "105925.652500", "105926.852500", "105928.052500", "105929.252500", "105930.452500", "105931.652500", "105932.852500", "105934.052500", "105935.252500", "105936.452500", "105937.652500", "105938.852500", "105940.052500", "105941.252500", "105942.452500", "105943.652500", "105944.852500", "105946.052500", "105947.252500", "105948.452500", "105949.652500", "105950.852500", "105952.052500", "105953.252500", "105954.452500", "105955.652500", "105956.852500", "105958.052500", "105959.252500", "110000.452500", "110001.652500", "110002.852500", "110004.052500", "110005.252500", "110006.452500", "110007.652500", "110008.852500", "110010.052500", "110011.252500", "110012.452500", "110013.652500", "110014.852500", "110016.052500", "110017.252500", "110018.452500", "110019.652500", "110020.852500", "110022.052500", "110023.252500", "110024.452500", "110025.652500", "110026.852500", "110028.052500", "110029.252500", "110030.452500", "110031.652500", "110032.852500", "110034.052500"],
      "ContentTime": ["105310.763000", "105310.766000", "105310.782000", "105310.784000", "105310.787000", "105310.790000", "105310.792000", "105310.799000", "105310.802000", "105310.804000", "105310.807000", "105310.810000", "105310.812000", "105310.815000", "105310.817000", "105310.827000", "105310.829000", "105310.832000", "105310.835000", "105310.837000", "105310.840000", "105350.759000", "105350.761000", "105350.764000", "105350.772000", "105350.775000", "105350.777000", "105350.780000", "105350.783000", "105350.785000", "105350.788000", "105350.790000", "105350.793000", "105350.796000", "105350.798000", "105350.801000", "105350.803000", "105350.806000", "105350.808000", "105350.811000", "105350.813000", "105350.816000", "105350.819000", "105350.821000", "105350.824000", "105350.826000", "105350.829000", "105350.831000", "105350.834000", "105350.837000", "105350.839000", "105350.843000", "105350.846000", "105350.849000", "105430.759000", "105430.761000", "105430.764000", "105430.767000", "105430.769000", "105430.772000", "105430.774000", "105430.777000", "105430.780000", "105430.782000", "105430.785000", "105430.787000", "105430.790000", "105430.793000", "105430.795000", "105430.798000", "105430.801000", "105430.803000", "105430.806000", "105430.809000", "105430.811000", "105430.814000", "105430.816000", "105430.819000", "105430.839000", "105430.842000", "105430.844000", "105430.847000", "105430.849000", "105430.852000", "105430.854000", "105430.857000", "105430.861000", "105430.864000", "105510.758000", "105510.761000", "105510.764000", "105510.767000", "105510.769000", "105510.772000", "105510.774000", "105510.777000", "105510.780000", "105510.782000", "105510.785000", "105510.788000", "105510.790000", "105510.793000", "105510.795000", "105510.798000", "105510.801000", "105510.803000", "105510.806000", "105510.808000", "105510.811000", "105510.813000", "105510.816000", "105510.819000", "105510.822000", "105510.824000", "105510.827000", "105510.829000", "105510.832000", "105510.835000", "105510.837000", "105510.840000", "105510.843000", "105550.758000", "105550.761000", "105550.764000", "105550.767000", "105550.769000", "105550.772000", "105550.774000", "105550.777000", "105550.779000", "105550.782000", "105550.784000", "105550.787000", "105550.790000", "105550.792000", "105550.795000", "105550.797000", "105550.800000", "105550.802000", "105550.805000", "105550.808000", "105550.810000", "105550.813000", "105550.815000", "105550.819000", "105550.821000", "105550.824000", "105550.826000", "105550.829000", "105550.832000", "105550.834000", "105550.837000", "105550.840000", "105550.842000", "105630.759000", "105630.761000", "105630.764000", "105630.767000", "105630.770000", "105630.772000", "105630.775000", "105630.777000", "105630.780000", "105630.782000", "105630.785000", "105630.788000", "105630.790000", "105630.793000", "105630.796000", "105630.798000", "105630.801000", "105630.803000", "105630.806000", "105630.809000", "105630.811000", "105630.814000", "105630.816000", "105630.822000", "105630.824000", "105630.827000", "105630.830000", "105630.832000", "105630.835000", "105630.837000", "105630.840000", "105630.843000", "105630.845000", "105630.848000", "105710.759000", "105710.761000", "105710.764000", "105710.767000", "105710.769000", "105710.772000", "105710.775000", "105710.777000", "105710.780000", "105710.783000", "105710.785000", "105710.788000", "105710.790000", "105710.793000", "105710.795000", "105710.798000", "105710.800000", "105710.803000", "105710.806000", "105710.808000", "105710.811000", "105710.813000", "105710.816000", "105710.818000", "105710.821000", "105710.824000", "105710.826000", "105710.829000", "105710.832000", "105710.834000", "105710.837000", "105710.840000", "105710.842000", "105730.759000", "105730.761000", "105730.764000", "105730.767000", "105730.769000", "105730.772000", "105730.774000", "105730.777000", "105730.779000", "105730.782000", "105730.785000", "105730.787000", "105730.790000", "105730.792000", "105730.795000", "105730.798000", "105730.800000", "105810.759000", "105810.761000", "105810.764000", "105810.767000", "105810.769000", "105810.772000", "105810.775000", "105810.777000", "105810.780000", "105810.782000", "105810.785000", "105810.788000", "105810.790000", "105810.793000", "105810.796000", "105810.798000", "105810.801000", "105810.804000", "105810.806000", "105810.809000", "105810.811000", "105810.814000", "105810.816000", "105810.819000", "105810.822000", "105810.824000", "105810.827000", "105810.829000", "105810.833000", "105810.835000", "105810.838000", "105810.840000", "105810.843000", "105850.758000", "105850.761000", "105850.764000", "105850.767000", "105850.769000", "105850.772000", "105850.775000", "105850.777000", "105850.780000", "105850.782000", "105850.785000", "105850.787000", "105850.790000", "105850.793000", "105850.795000", "105850.798000", "105850.800000", "105850.803000", "105850.806000", "105850.808000", "105850.811000", "105850.814000", "105850.816000", "105850.819000", "105850.821000", "105850.824000", "105850.827000", "105850.829000", "105850.832000", "105850.835000", "105850.837000", "105850.840000", "105850.843000", "105930.758000", "105930.761000", "105930.764000", "105930.766000", "105930.769000", "105930.772000", "105930.774000", "105930.777000", "105930.780000", "105930.782000", "105930.785000", "105930.787000", "105930.790000", "105930.793000", "105930.795000", "105930.805000", "105930.808000", "105930.811000", "105930.813000", "105930.816000", "105930.819000", "105930.821000", "105930.824000", "105930.826000", "105930.829000", "105930.832000", "105930.834000", "105930.837000", "105930.839000", "105930.842000", "105930.845000", "105930.847000", "105930.850000", "105930.852000", "110010.758000", "110010.761000", "110010.764000", "110010.767000", "110010.769000", "110010.772000", "110010.775000", "110010.777000", "110010.780000", "110010.782000", "110010.785000", "110010.788000", "110010.790000", "110010.793000", "110010.795000", "110010.798000", "110010.801000", "110010.803000", "110010.806000", "110010.808000", "110010.811000", "110010.814000", "110010.816000", "110010.819000", "110010.822000", "110010.825000", "110010.827000", "110010.830000", "110010.833000", "110010.835000", "110010.838000", "110010.841000", "110010.843000", "110035.424000", "110035.427000", "110035.429000", "110035.432000", "110035.435000", "110035.437000", "110035.440000", "110035.443000", "110035.445000", "110035.448000", "110035.451000", "110035.453000", "110035.456000", "110035.459000", "110035.461000", "110035.464000", "110035.466000", "110035.469000", "110035.472000", "110035.474000", "110035.485000"],
      "InstanceCreationTime": ["105310.763000", "105310.766000", "105310.782000", "105310.784000", "105310.787000", "105310.790000", "105310.792000", "105310.799000", "105310.802000", "105310.804000", "105310.807000", "105310.810000", "105310.812000", "105310.815000", "105310.817000", "105310.827000", "105310.829000", "105310.832000", "105310.835000", "105310.837000", "105310.840000", "105350.759000", "105350.761000", "105350.764000", "105350.772000", "105350.775000", "105350.777000", "105350.780000", "105350.783000", "105350.785000", "105350.788000", "105350.790000", "105350.793000", "105350.796000", "105350.798000", "105350.801000", "105350.803000", "105350.806000", "105350.808000", "105350.811000", "105350.813000", "105350.816000", "105350.819000", "105350.821000", "105350.824000", "105350.826000", "105350.829000", "105350.831000", "105350.834000", "105350.837000", "105350.839000", "105350.843000", "105350.846000", "105350.849000", "105430.759000", "105430.761000", "105430.764000", "105430.767000", "105430.769000", "105430.772000", "105430.774000", "105430.777000", "105430.780000", "105430.782000", "105430.785000", "105430.787000", "105430.790000", "105430.793000", "105430.795000", "105430.798000", "105430.801000", "105430.803000", "105430.806000", "105430.809000", "105430.811000", "105430.814000", "105430.816000", "105430.819000", "105430.839000", "105430.842000", "105430.844000", "105430.847000", "105430.849000", "105430.852000", "105430.854000", "105430.857000", "105430.861000", "105430.864000", "105510.758000", "105510.761000", "105510.764000", "105510.767000", "105510.769000", "105510.772000", "105510.774000", "105510.777000", "105510.780000", "105510.782000", "105510.785000", "105510.788000", "105510.790000", "105510.793000", "105510.795000", "105510.798000", "105510.801000", "105510.803000", "105510.806000", "105510.808000", "105510.811000", "105510.813000", "105510.816000", "105510.819000", "105510.822000", "105510.824000", "105510.827000", "105510.829000", "105510.832000", "105510.835000", "105510.837000", "105510.840000", "105510.843000", "105550.758000", "105550.761000", "105550.764000", "105550.767000", "105550.769000", "105550.772000", "105550.774000", "105550.777000", "105550.779000", "105550.782000", "105550.784000", "105550.787000", "105550.790000", "105550.792000", "105550.795000", "105550.797000", "105550.800000", "105550.802000", "105550.805000", "105550.808000", "105550.810000", "105550.813000", "105550.815000", "105550.819000", "105550.821000", "105550.824000", "105550.826000", "105550.829000", "105550.832000", "105550.834000", "105550.837000", "105550.840000", "105550.842000", "105630.759000", "105630.761000", "105630.764000", "105630.767000", "105630.770000", "105630.772000", "105630.775000", "105630.777000", "105630.780000", "105630.782000", "105630.785000", "105630.788000", "105630.790000", "105630.793000", "105630.796000", "105630.798000", "105630.801000", "105630.803000", "105630.806000", "105630.809000", "105630.811000", "105630.814000", "105630.816000", "105630.822000", "105630.824000", "105630.827000", "105630.830000", "105630.832000", "105630.835000", "105630.837000", "105630.840000", "105630.843000", "105630.845000", "105630.848000", "105710.759000", "105710.761000", "105710.764000", "105710.767000", "105710.769000", "105710.772000", "105710.775000", "105710.777000", "105710.780000", "105710.783000", "105710.785000", "105710.788000", "105710.790000", "105710.793000", "105710.795000", "105710.798000", "105710.800000", "105710.803000", "105710.806000", "105710.808000", "105710.811000", "105710.813000", "105710.816000", "105710.818000", "105710.821000", "105710.824000", "105710.826000", "105710.829000", "105710.832000", "105710.834000", "105710.837000", "105710.840000", "105710.842000", "105730.759000", "105730.761000", "105730.764000", "105730.767000", "105730.769000", "105730.772000", "105730.774000", "105730.777000", "105730.779000", "105730.782000", "105730.785000", "105730.787000", "105730.790000", "105730.792000", "105730.795000", "105730.798000", "105730.800000", "105810.759000", "105810.761000", "105810.764000", "105810.767000", "105810.769000", "105810.772000", "105810.775000", "105810.777000", "105810.780000", "105810.782000", "105810.785000", "105810.788000", "105810.790000", "105810.793000", "105810.796000", "105810.798000", "105810.801000", "105810.804000", "105810.806000", "105810.809000", "105810.811000", "105810.814000", "105810.816000", "105810.819000", "105810.822000", "105810.824000", "105810.827000", "105810.829000", "105810.833000", "105810.835000", "105810.838000", "105810.840000", "105810.843000", "105850.758000", "105850.761000", "105850.764000", "105850.767000", "105850.769000", "105850.772000", "105850.775000", "105850.777000", "105850.780000", "105850.782000", "105850.785000", "105850.787000", "105850.790000", "105850.793000", "105850.795000", "105850.798000", "105850.800000", "105850.803000", "105850.806000", "105850.808000", "105850.811000", "105850.814000", "105850.816000", "105850.819000", "105850.821000", "105850.824000", "105850.827000", "105850.829000", "105850.832000", "105850.835000", "105850.837000", "105850.840000", "105850.843000", "105930.758000", "105930.761000", "105930.764000", "105930.766000", "105930.769000", "105930.772000", "105930.774000", "105930.777000", "105930.780000", "105930.782000", "105930.785000", "105930.787000", "105930.790000", "105930.793000", "105930.795000", "105930.805000", "105930.808000", "105930.811000", "105930.813000", "105930.816000", "105930.819000", "105930.821000", "105930.824000", "105930.826000", "105930.829000", "105930.832000", "105930.834000", "105930.837000", "105930.839000", "105930.842000", "105930.845000", "105930.847000", "105930.850000", "105930.852000", "110010.758000", "110010.761000", "110010.764000", "110010.767000", "110010.769000", "110010.772000", "110010.775000", "110010.777000", "110010.780000", "110010.782000", "110010.785000", "110010.788000", "110010.790000", "110010.793000", "110010.795000", "110010.798000", "110010.801000", "110010.803000", "110010.806000", "110010.808000", "110010.811000", "110010.814000", "110010.816000", "110010.819000", "110010.822000", "110010.825000", "110010.827000", "110010.830000", "110010.833000", "110010.835000", "110010.838000", "110010.841000", "110010.843000", "110035.424000", "110035.427000", "110035.429000", "110035.432000", "110035.435000", "110035.437000", "110035.440000", "110035.443000", "110035.445000", "110035.448000", "110035.451000", "110035.453000", "110035.456000", "110035.459000", "110035.461000", "110035.464000", "110035.466000", "110035.469000", "110035.472000", "110035.474000", "110035.485000"],
      "InstanceNumber": [1, 2, 3, 4, 5, 6, 7, 8, 9, 10, 11, 12, 13, 14, 15, 16, 17, 18, 19, 20, 21, 22, 23, 24, 25, 26, 27, 28, 29, 30, 31, 32, 33, 34, 35, 36, 37, 38, 39, 40, 41, 42, 43, 44, 45, 46, 47, 48, 49, 50, 51, 52, 53, 54, 55, 56, 57, 58, 59, 60, 61, 62, 63, 64, 65, 66, 67, 68, 69, 70, 71, 72, 73, 74, 75, 76, 77, 78, 79, 80, 81, 82, 83, 84, 85, 86, 87, 88, 89, 90, 91, 92, 93, 94, 95, 96, 97, 98, 99, 100, 101, 102, 103, 104, 105, 106, 107, 108, 109, 110, 111, 112, 113, 114, 115, 116, 117, 118, 119, 120, 121, 122, 123, 124, 125, 126, 127, 128, 129, 130, 131, 132, 133, 134, 135, 136, 137, 138, 139, 140, 141, 142, 143, 144, 145, 146, 147, 148, 149, 150, 151, 152, 153, 154, 155, 156, 157, 158, 159, 160, 161, 162, 163, 164, 165, 166, 167, 168, 169, 170, 171, 172, 173, 174, 175, 176, 177, 178, 179, 180, 181, 182, 183, 184, 185, 186, 187, 188, 189, 190, 191, 192, 193, 194, 195, 196, 197, 198, 199, 200, 201, 202, 203, 204, 205, 206, 207, 208, 209, 210, 211, 212, 213, 214, 215, 216, 217, 218, 219, 220, 221, 222, 223, 224, 225, 226, 227, 228, 229, 230, 231, 232, 233, 234, 235, 236, 237, 238, 239, 240, 241, 242, 243, 244, 245, 246, 247, 248, 249, 250, 251, 252, 253, 254, 255, 256, 257, 258, 259, 260, 261, 262, 263, 264, 265, 266, 267, 268, 269, 270, 271, 272, 273, 274, 275, 276, 277, 278, 279, 280, 281, 282, 283, 284, 285, 286, 287, 288, 289, 290, 291, 292, 293, 294, 295, 296, 297, 298, 299, 300, 301, 302, 303, 304, 305, 306, 307, 308, 309, 310, 311, 312, 313, 314, 315, 316, 317, 318, 319, 320, 321, 322, 323, 324, 325, 326, 327, 328, 329, 330, 331, 332, 333, 334, 335, 336, 337, 338, 339, 340, 341, 342, 343, 344, 345, 346, 347, 348, 349, 350, 351, 352, 353, 354, 355, 356, 357, 358, 359, 360, 361, 362, 363, 364, 365, 366, 367, 368, 369, 370, 371, 372, 373, 374, 375, 376, 377, 378, 379, 380, 381, 382, 383, 384, 385, 386, 387, 388, 389, 390, 391, 392],
