{
  "AcquisitionMatrixPE": 88,
  "AcquisitionNumber": 1,
  "AcquisitionTime": "10:49:30.977500",
  "BandwidthPerPixelPhaseEncode": 19.592,
  "BaseResolution": 88,
  "BodyPartExamined": "BRAIN",
  "ConsistencyInfo": "N4_VE11C_LATEST_20160120",
  "ConversionSoftware": "dcm2niix",
  "ConversionSoftwareVersion": "v1.0.20190902",
  "DerivedVendorReportedEchoSpacing": 0.000580014,
  "DeviceSerialNumber": "67050",
  "DwellTime": 2.6e-06,
  "EchoTime": 0.033,
  "EchoTrainLength": 88,
  "EffectiveEchoSpacing": 0.000580014,
  "FlipAngle": 62,
  "ImageOrientationPatientDICOM": [0.999151, -0.032854, 0.0248782, 0.0371611, 0.979239, -0.199276],
  "ImageType": [
    "ORIGINAL",
    "PRIMARY",
    "M",
    "ND",
    "MOSAIC"
],
  "ImagingFrequency": 123.251,
  "InPlanePhaseEncodingDirectionDICOM": "COL",
  "InstitutionAddress": "Olive_Street_60_Providence_RI_US_02912",
  "InstitutionName": "BROWN_UNIVERSITY_MRF",
  "InstitutionalDepartmentName": "Department",
  "MRAcquisitionType": "2D",
  "MagneticFieldStrength": 3,
  "Manufacturer": "Siemens",
  "ManufacturersModelName": "Prisma_fit",
  "Modality": "MR",
  "MultibandAccelerationFactor": 4,
  "PartialFourier": 1,
  "PatientPosition": "HFS",
  "PercentPhaseFOV": 100,
  "PhaseEncodingDirection": "j-",
  "PhaseEncodingSteps": 88,
  "PhaseResolution": 1,
  "PixelBandwidth": 2185,
  "ProcedureStepDescription": "ASHENHAV_1222",
  "ProtocolName": "func-bold_task-RDMmotion_run-01",
  "PulseSequenceDetails": "%SiemensSeq%_ep2d_bold",
  "ReceiveCoilActiveElements": "HC1-7;NC1",
  "ReceiveCoilName": "HeadNeck_64",
  "ReconMatrixPE": 88,
  "RefLinesPE": 8,
  "RepetitionTime": 1.2,
  "SAR": 0.047626,
  "ScanOptions": "FS",
  "ScanningSequence": "EP",
  "SequenceName": "_epfid2d1_88",
  "SequenceVariant": "SK",
  "SeriesDescription": "func-bold_task-RDMmotion_run-01",
  "SeriesNumber": 7,
  "ShimSetting": [1742, -9059, 4360, 382, -119, -362, -24, -68],
  "SliceThickness": 2.4,
  "SliceTiming": [0.5525, 0, 0.63, 0.08, 0.71, 0.1575, 0.7875, 0.2375, 0.8675, 0.315, 0.945, 0.395, 1.025, 0.4725, 1.1025, 0.5525, 0, 0.63, 0.08, 0.71, 0.1575, 0.7875, 0.2375, 0.8675, 0.315, 0.945, 0.395, 1.025, 0.4725, 1.1025, 0.5525, 0, 0.63, 0.08, 0.71, 0.1575, 0.7875, 0.2375, 0.8675, 0.315, 0.945, 0.395, 1.025, 0.4725, 1.1025, 0.5525, 0, 0.63, 0.08, 0.71, 0.1575, 0.7875, 0.2375, 0.8675, 0.315, 0.945, 0.395, 1.025, 0.4725, 1.1025],
  "SoftwareVersions": "syngo_MR_E11",
  "SpacingBetweenSlices": 2.4,
  "StationName": "AWP67050",
  "TaskName": "RDMmotion",
  "TotalReadoutTime": 0.0504612,
  "TxRefAmp": 251.74,
  "dcmmeta_affine": [
    [-2.395690441131592, 0.0891021266579628, 0.04275523126125336, 100.81504821777344],
    [0.07877487689256668, 2.347946882247925, -0.4800748825073242, -76.80107879638672],
    [0.05965112894773483, 0.47780948877334595, 2.3511059284210205, -92.32898712158203],
    [0.0, 0.0, 0.0, 1.0]
],
  "dcmmeta_reorient_transform": [
    [0.0, -1.0, 0.0, 87.0],
    [1.0, 0.0, 0.0, 0.0],
    [0.0, 0.0, 1.0, 0.0],
    [0.0, 0.0, 0.0, 1.0]
],
  "dcmmeta_shape": [88, 88, 60, 125],
  "dcmmeta_slice_dim": 2,
  "dcmmeta_version": 0.6,
  "global": {
    "const": {
      "AcquisitionMatrix": [88, 0, 0, 88],
      "AngioFlag": "N",
      "BitsAllocated": 16,
      "BitsStored": 12,
      "BodyPartExamined": "BRAIN",
      "Columns": 704,
      "DeidentificationMethodCodeSequence": [
        {
          "CodeMeaning": "XNAT DicomEdit 6 Script",
          "CodeValue": "3",
          "CodingSchemeDesignator": "XNAT",
          "CodingSchemeVersion": "1.0"}
],
      "EchoNumbers": 1,
      "EchoTime": 33.0,
      "EchoTrainLength": 88,
      "FlipAngle": 62.0,
      "HighBit": 11,
      "ImageOrientationPatient": [0.99915048495405, -0.032853976555, 0.02487819608818, 0.03716107637795, 0.97923854786965, -0.1992759914505],
      "ImagePositionPatient": [-873.88301286131, -826.37530665648, 78.033206766272],
      "ImageType": [
        "ORIGINAL",
        "PRIMARY",
        "M",
        "ND",
        "MOSAIC"
],
      "ImagedNucleus": "1H",
      "ImagingFrequency": 123.250735,
      "InPlanePhaseEncodingDirection": "COL",
      "MRAcquisitionType": "2D",
      "MagneticFieldStrength": 3.0,
      "Manufacturer": "SIEMENS",
      "ManufacturerModelName": "Prisma_fit",
      "Modality": "MR",
      "NumberOfAverages": 1.0,
      "NumberOfPhaseEncodingSteps": 88,
      "PercentPhaseFieldOfView": 100.0,
      "PercentSampling": 100.0,
      "PerformedProcedureStepStartTime": "104137.407000",
      "PhotometricInterpretation": "MONOCHROME2",
      "PixelBandwidth": 2185.0,
      "PixelRepresentation": 0,
      "PixelSpacing": [2.3977272510529, 2.3977272510529],
      "ProtocolName": "func-bold_task-RDMmotion_run-01",
      "RepetitionTime": 1200.0,
      "Rows": 704,
      "SAR": 0.04762594963569,
      "SamplesPerPixel": 1,
      "ScanOptions": "FS",
      "ScanningSequence": "EP",
      "SequenceName": "*epfid2d1_88",
      "SequenceVariant": "SK",
      "SeriesDescription": "func-bold_task-RDMmotion_run-01",
      "SeriesNumber": 7,
      "SeriesTime": "105006.215000",
      "SliceLocation": -73.2894215974,
      "SliceThickness": 2.4000000953674,
      "SmallestImagePixelValue": 0,
      "SoftwareVersions": "syngo MR E11",
      "SpacingBetweenSlices": 2.3999998934776,
      "SpecificCharacterSet": "ISO_IR 100",
      "StudyID": "1",
      "StudyTime": "104137.264000",
      "TransmitCoilName": "Body",
      "VariableFlipAngleFlag": "N",
      "WindowCenterWidthExplanation": "Algo1",
      "dBdt": 0.0},
    "slices": {}
  },
  "time": {
    "samples": {
      "AcquisitionNumber": [1, 2, 3, 4, 5, 6, 7, 8, 9, 10, 11, 12, 13, 14, 15, 16, 17, 18, 19, 20, 21, 22, 23, 24, 25, 26, 27, 28, 29, 30, 31, 32, 33, 34, 35, 36, 37, 38, 39, 40, 41, 42, 43, 44, 45, 46, 47, 48, 49, 50, 51, 52, 53, 54, 55, 56, 57, 58, 59, 60, 61, 62, 63, 64, 65, 66, 67, 68, 69, 70, 71, 72, 73, 74, 75, 76, 77, 78, 79, 80, 81, 82, 83, 84, 85, 86, 87, 88, 89, 90, 91, 92, 93, 94, 95, 96, 97, 98, 99, 100, 101, 102, 103, 104, 105, 106, 107, 108, 109, 110, 111, 112, 113, 114, 115, 116, 117, 118, 119, 120, 121, 122, 123, 124, 125],
      "AcquisitionTime": ["104930.977500", "104932.177500", "104933.377500", "104934.577500", "104935.777500", "104936.977500", "104938.177500", "104939.377500", "104940.577500", "104941.777500", "104942.977500", "104944.177500", "104945.377500", "104946.577500", "104947.777500", "104948.977500", "104950.177500", "104951.377500", "104952.577500", "104953.777500", "104954.977500", "104956.177500", "104957.377500", "104958.577500", "104959.777500", "105000.977500", "105002.177500", "105003.377500", "105004.577500", "105005.777500", "105006.977500", "105008.177500", "105009.377500", "105010.577500", "105011.777500", "105012.977500", "105014.177500", "105015.377500", "105016.577500", "105017.777500", "105018.977500", "105020.177500", "105021.377500", "105022.577500", "105023.777500", "105024.977500", "105026.177500", "105027.377500", "105028.577500", "105029.777500", "105030.977500", "105032.177500", "105033.377500", "105034.577500", "105035.777500", "105036.977500", "105038.177500", "105039.377500", "105040.577500", "105041.777500", "105042.977500", "105044.177500", "105045.377500", "105046.577500", "105047.777500", "105048.977500", "105050.177500", "105051.377500", "105052.577500", "105053.777500", "105054.977500", "105056.177500", "105057.377500", "105058.577500", "105059.777500", "105100.977500", "105102.177500", "105103.377500", "105104.577500", "105105.777500", "105106.977500", "105108.177500", "105109.377500", "105110.577500", "105111.777500", "105112.977500", "105114.177500", "105115.377500", "105116.577500", "105117.777500", "105118.977500", "105120.177500", "105121.377500", "105122.577500", "105123.777500", "105124.977500", "105126.177500", "105127.377500", "105128.577500", "105129.777500", "105130.977500", "105132.177500", "105133.377500", "105134.577500", "105135.777500", "105136.977500", "105138.177500", "105139.377500", "105140.577500", "105141.777500", "105142.977500", "105144.177500", "105145.377500", "105146.577500", "105147.777500", "105148.977500", "105150.177500", "105151.377500", "105152.577500", "105153.777500", "105154.977500", "105156.177500", "105157.377500", "105158.577500", "105159.777500"],
      "ContentTime": ["105006.218000", "105006.230000", "105006.233000", "105006.235000", "105006.238000", "105006.241000", "105006.243000", "105006.254000", "105006.257000", "105006.259000", "105006.262000", "105006.264000", "105006.267000", "105006.287000", "105006.289000", "105006.300000", "105006.302000", "105006.305000", "105006.307000", "105006.310000", "105006.313000", "105006.315000", "105006.318000", "105006.320000", "105006.323000", "105006.326000", "105006.328000", "105006.331000", "105046.214000", "105046.216000", "105046.219000", "105046.221000", "105046.224000", "105046.227000", "105046.229000", "105046.232000", "105046.234000", "105046.237000", "105046.239000", "105046.251000", "105046.253000", "105046.256000", "105046.259000", "105046.261000", "105046.264000", "105046.266000", "105046.269000", "105046.271000", "105046.274000", "105046.277000", "105046.279000", "105046.282000", "105046.284000", "105046.287000", "105046.290000", "105046.292000", "105046.295000", "105046.297000", "105046.300000", "105046.302000", "105046.305000", "105046.308000", "105126.214000", "105126.217000", "105126.220000", "105126.222000", "105126.225000", "105126.227000", "105126.230000", "105126.233000", "105126.235000", "105126.238000", "105126.240000", "105126.243000", "105126.245000", "105126.248000", "105126.251000", "105126.253000", "105126.256000", "105126.259000", "105126.261000", "105126.264000", "105126.266000", "105126.269000", "105126.272000", "105126.274000", "105126.277000", "105126.279000", "105126.282000", "105126.285000", "105126.297000", "105126.300000", "105126.303000", "105126.305000", "105126.308000", "105201.800000", "105201.803000", "105201.806000", "105201.809000", "105201.811000", "105201.814000", "105201.817000", "105201.819000", "105201.822000", "105201.825000", "105201.827000", "105201.830000", "105201.833000", "105201.835000", "105201.838000", "105201.840000", "105201.843000", "105201.846000", "105201.848000", "105201.851000", "105201.854000", "105201.856000", "105201.859000", "105201.862000", "105201.864000", "105201.867000", "105201.870000", "105201.872000", "105201.875000", "105201.878000"],
      "InstanceCreationTime": ["105006.218000", "105006.230000", "105006.233000", "105006.235000", "105006.238000", "105006.241000", "105006.243000", "105006.254000", "105006.257000", "105006.259000", "105006.262000", "105006.264000", "105006.267000", "105006.287000", "105006.289000", "105006.300000", "105006.302000", "105006.305000", "105006.307000", "105006.310000", "105006.313000", "105006.315000", "105006.318000", "105006.320000", "105006.323000", "105006.326000", "105006.328000", "105006.331000", "105046.214000", "105046.216000", "105046.219000", "105046.221000", "105046.224000", "105046.227000", "105046.229000", "105046.232000", "105046.234000", "105046.237000", "105046.239000", "105046.251000", "105046.253000", "105046.256000", "105046.259000", "105046.261000", "105046.264000", "105046.266000", "105046.269000", "105046.271000", "105046.274000", "105046.277000", "105046.279000", "105046.282000", "105046.284000", "105046.287000", "105046.290000", "105046.292000", "105046.295000", "105046.297000", "105046.300000", "105046.302000", "105046.305000", "105046.308000", "105126.214000", "105126.217000", "105126.220000", "105126.222000", "105126.225000", "105126.227000", "105126.230000", "105126.233000", "105126.235000", "105126.238000", "105126.240000", "105126.243000", "105126.245000", "105126.248000", "105126.251000", "105126.253000", "105126.256000", "105126.259000", "105126.261000", "105126.264000", "105126.266000", "105126.269000", "105126.272000", "105126.274000", "105126.277000", "105126.279000", "105126.282000", "105126.285000", "105126.297000", "105126.300000", "105126.303000", "105126.305000", "105126.308000", "105201.800000", "105201.803000", "105201.806000", "105201.809000", "105201.811000", "105201.814000", "105201.817000", "105201.819000", "105201.822000", "105201.825000", "105201.827000", "105201.830000", "105201.833000", "105201.835000", "105201.838000", "105201.840000", "105201.843000", "105201.846000", "105201.848000", "105201.851000", "105201.854000", "105201.856000", "105201.859000", "105201.862000", "105201.864000", "105201.867000", "105201.870000", "105201.872000", "105201.875000", "105201.878000"],
      "InstanceNumber": [1, 2, 3, 4, 5, 6, 7, 8, 9, 10, 11, 12, 13, 14, 15, 16, 17, 18, 19, 20, 21, 22, 23, 24, 25, 26, 27, 28, 29, 30, 31, 32, 33, 34, 35, 36, 37, 38, 39, 40, 41, 42, 43, 44, 45, 46, 47, 48, 49, 50, 51, 52, 53, 54, 55, 56, 57, 58, 59, 60, 61, 62, 63, 64, 65, 66, 67, 68, 69, 70, 71, 72, 73, 74, 75, 76, 77, 78, 79, 80, 81, 82, 83, 84, 85, 86, 87, 88, 89, 90, 91, 92, 93, 94, 95, 96, 97, 98, 99, 100, 101, 102, 103, 104, 105, 106, 107, 108, 109, 110, 111, 112, 113, 114, 115, 116, 117, 118, 119, 120, 121, 122, 123, 124, 125],
      "LargestImagePixelValue": [2058, 2010, 1961, 1939, 1940, 1916, 1913, 1911, 1922, 1907, 1901, 1925, 1900, 1923, 1904, 1910, 1908, 1918, 1884, 1905, 1922, 1895, 1915, 1923, 1898, 1918, 1902, 1906, 1896, 1906, 1905, 1914, 1904, 1900, 1902, 1923, 1924, 1929, 1922, 1910, 1922, 1932, 1923, 1920, 1897, 1925, 1905, 1923, 1908, 1918, 1917, 1914, 1893, 1914, 1899, 1927, 1903, 1915, 1896, 1912, 1905, 1908, 1907, 1908, 1888, 1906, 1920, 1906, 1908, 1902, 1921, 1934, 1907, 1896, 1925, 1901, 1912, 1915, 1911, 1900, 1914, 1905, 1915, 1905, 1912, 1900, 1920, 1896, 1903, 1902, 1906, 1902, 1901, 1914, 1890, 1904, 1891, 1912, 1903, 1906, 1900, 1906, 1894, 1909, 1907, 1902, 1899, 1899, 1906, 1902, 1898, 1889, 1911, 1886, 1896, 1887, 1896, 1874, 1919, 1894, 1913, 1910, 1898, 1922, 1899],
      "WindowCenter": [573.0, 571.0, 569.0, 569.0, 570.0, 569.0, 569.0, 569.0, 569.0, 569.0, 569.0, 569.0, 569.0, 570.0, 569.0, 569.0, 568.0, 569.0, 569.0, 570.0, 569.0, 568.0, 568.0, 567.0, 566.0, 567.0, 566.0, 567.0, 567.0, 568.0, 568.0, 568.0, 567.0, 567.0, 567.0, 568.0, 568.0, 568.0, 568.0, 568.0, 567.0, 568.0, 567.0, 567.0, 567.0, 567.0, 567.0, 568.0, 567.0, 568.0, 568.0, 567.0, 567.0, 568.0, 567.0, 568.0, 567.0, 569.0, 568.0, 568.0, 568.0, 568.0, 568.0, 568.0, 568.0, 568.0, 569.0, 568.0, 567.0, 567.0, 568.0, 567.0, 567.0, 567.0, 568.0, 568.0, 569.0, 568.0, 568.0, 567.0, 568.0, 568.0, 568.0, 568.0, 568.0, 568.0, 568.0, 568.0, 568.0, 568.0, 567.0, 566.0, 566.0, 567.0, 567.0, 567.0, 568.0, 568.0, 567.0, 568.0, 568.0, 568.0, 567.0, 567.0, 567.0, 567.0, 567.0, 567.0, 567.0, 568.0, 568.0, 568.0, 569.0, 568.0, 567.0, 566.0, 567.0, 568.0, 570.0, 569.0, 570.0, 569.0, 568.0, 568.0, 566.0],
      "WindowWidth": [1213.0, 1208.0, 1205.0, 1204.0, 1205.0, 1204.0, 1203.0, 1203.0, 1204.0, 1204.0, 1204.0, 1204.0, 1204.0, 1206.0, 1204.0, 1204.0, 1203.0, 1204.0, 1204.0, 1205.0, 1204.0, 1203.0, 1202.0, 1199.0, 1198.0, 1199.0, 1197.0, 1199.0, 1199.0, 1200.0, 1201.0, 1201.0, 1200.0, 1200.0, 1200.0, 1201.0, 1202.0, 1202.0, 1200.0, 1200.0, 1199.0, 1201.0, 1200.0, 1199.0, 1199.0, 1200.0, 1200.0, 1201.0, 1200.0, 1200.0, 1200.0, 1200.0, 1199.0, 1200.0, 1200.0, 1201.0, 1201.0, 1202.0, 1201.0, 1201.0, 1201.0, 1202.0, 1203.0, 1202.0, 1202.0, 1202.0, 1203.0, 1201.0, 1200.0, 1200.0, 1200.0, 1200.0, 1199.0, 1200.0, 1202.0, 1202.0, 1203.0, 1201.0, 1202.0, 1200.0, 1201.0, 1202.0, 1202.0, 1202.0, 1202.0, 1202.0, 1202.0, 1202.0, 1201.0, 1201.0, 1200.0, 1198.0, 1198.0, 1198.0, 1198.0, 1199.0, 1201.0, 1201.0, 1200.0, 1201.0, 1201.0, 1201.0, 1200.0, 1200.0, 1199.0, 1199.0, 1198.0, 1199.0, 1200.0, 1201.0, 1203.0, 1203.0, 1203.0, 1201.0, 1200.0, 1197.0, 1198.0, 1201.0, 1205.0, 1204.0, 1205.0, 1204.0, 1202.0, 1200.0, 1198.0]
    },
    "slices": {}
  }
}