{
  "AcquisitionMatrixPE": 88,
  "AcquisitionNumber": 1,
  "AcquisitionTime": "14:16:16.430000",
  "BandwidthPerPixelPhaseEncode": 19.592,
  "BaseResolution": 88,
  "BodyPartExamined": "BRAIN",
  "ConsistencyInfo": "N4_VE11C_LATEST_20160120",
  "ConversionSoftware": "dcm2niix",
  "ConversionSoftwareVersion": "v1.0.20190902",
  "DerivedVendorReportedEchoSpacing": 0.000580014,
  "DeviceSerialNumber": "67050",
  "DwellTime": 2.6e-06,
  "EchoTime": 0.033,
  "EchoTrainLength": 88,
  "EffectiveEchoSpacing": 0.000580014,
  "FlipAngle": 62,
  "ImageOrientationPatientDICOM": [0.988856, -0.0243481, 0.146871, 0.0500932, 0.983429, -0.174237],
  "ImageType": [
    "ORIGINAL",
    "PRIMARY",
    "M",
    "ND",
    "MOSAIC"
],
  "ImagingFrequency": 123.251,
  "InPlanePhaseEncodingDirectionDICOM": "COL",
  "InstitutionAddress": "Olive_Street_60_Providence_RI_US_02912",
  "InstitutionName": "BROWN_UNIVERSITY_MRF",
  "InstitutionalDepartmentName": "Department",
  "MRAcquisitionType": "2D",
  "MagneticFieldStrength": 3,
  "Manufacturer": "Siemens",
  "ManufacturersModelName": "Prisma_fit",
  "Modality": "MR",
  "MultibandAccelerationFactor": 4,
  "PartialFourier": 1,
  "PatientPosition": "HFS",
  "PercentPhaseFOV": 100,
  "PhaseEncodingDirection": "j-",
  "PhaseEncodingSteps": 88,
  "PhaseResolution": 1,
  "PixelBandwidth": 2185,
  "ProcedureStepDescription": "ASHENHAV_1222",
  "ProtocolName": "func-bold_task-RDMlocalizer_run-02",
  "PulseSequenceDetails": "%SiemensSeq%_ep2d_bold",
  "ReceiveCoilActiveElements": "HC1-7;NC1",
  "ReceiveCoilName": "HeadNeck_64",
  "ReconMatrixPE": 88,
  "RefLinesPE": 8,
  "RepetitionTime": 1.2,
  "SAR": 0.0544268,
  "ScanOptions": "FS",
  "ScanningSequence": "EP",
  "SequenceName": "_epfid2d1_88",
  "SequenceVariant": "SK",
  "SeriesDescription": "func-bold_task-RDMlocalizer_run-02",
  "SeriesNumber": 20,
  "ShimSetting": [1794, -9124, 4395, 416, 3, -419, -67, -127],
  "SliceThickness": 2.4,
  "SliceTiming": [0.55, 0, 0.63, 0.0775, 0.7075, 0.1575, 0.7875, 0.235, 0.865, 0.315, 0.9425, 0.3925, 1.0225, 0.4725, 1.1, 0.55, 0, 0.63, 0.0775, 0.7075, 0.1575, 0.7875, 0.235, 0.865, 0.315, 0.9425, 0.3925, 1.0225, 0.4725, 1.1, 0.55, 0, 0.63, 0.0775, 0.7075, 0.1575, 0.7875, 0.235, 0.865, 0.315, 0.9425, 0.3925, 1.0225, 0.4725, 1.1, 0.55, 0, 0.63, 0.0775, 0.7075, 0.1575, 0.7875, 0.235, 0.865, 0.315, 0.9425, 0.3925, 1.0225, 0.4725, 1.1],
  "SoftwareVersions": "syngo_MR_E11",
  "SpacingBetweenSlices": 2.4,
  "StationName": "AWP67050",
  "TaskName": "RDMlocalizer",
  "TotalReadoutTime": 0.0504612,
  "TxRefAmp": 215.57,
  "dcmmeta_affine": [
    [-2.371006965637207, 0.1201099082827568, 0.33646735548973083, 94.85494232177734],
    [0.05838017538189888, 2.3579940795898438, -0.4311659634113312, -83.82442474365234],
    [0.3521563708782196, 0.41777268052101135, 2.3368537425994873, -85.03907012939453],
    [0.0, 0.0, 0.0, 1.0]
],
  "dcmmeta_reorient_transform": [
    [0.0, -1.0, 0.0, 87.0],
    [1.0, 0.0, 0.0, 0.0],
    [0.0, 0.0, 1.0, 0.0],
    [0.0, 0.0, 0.0, 1.0]
],
  "dcmmeta_shape": [88, 88, 60, 195],
  "dcmmeta_slice_dim": 2,
  "dcmmeta_version": 0.6,
  "global": {
    "const": {
      "AcquisitionMatrix": [88, 0, 0, 88],
      "AngioFlag": "N",
      "BitsAllocated": 16,
      "BitsStored": 12,
      "BodyPartExamined": "BRAIN",
      "Columns": 704,
      "DeidentificationMethodCodeSequence": [
        {
          "CodeMeaning": "XNAT DicomEdit 6 Script",
          "CodeValue": "3",
          "CodingSchemeDesignator": "XNAT",
          "CodingSchemeVersion": "1.0"}
],
      "EchoNumbers": 1,
      "EchoTime": 33.0,
      "EchoTrainLength": 88,
      "FlipAngle": 62.0,
      "HighBit": 11,
      "ImageOrientationPatient": [0.98885595786801, -0.0243481295229, 0.14687090650529, 0.05009323098221, 0.98342877403154, -0.1742369496306],
      "ImagePositionPatient": [-872.56847479931, -829.60209909805, -28.48302349509],
      "ImageType": [
        "ORIGINAL",
        "PRIMARY",
        "M",
        "ND",
        "MOSAIC"
],
      "ImagedNucleus": "1H",
      "ImagingFrequency": 123.250765,
      "InPlanePhaseEncodingDirection": "COL",
      "MRAcquisitionType": "2D",
      "MagneticFieldStrength": 3.0,
      "Manufacturer": "SIEMENS",
      "ManufacturerModelName": "Prisma_fit",
      "Modality": "MR",
      "NumberOfAverages": 1.0,
      "NumberOfPhaseEncodingSteps": 88,
      "PercentPhaseFieldOfView": 100.0,
      "PercentSampling": 100.0,
      "PerformedProcedureStepStartTime": "125256.752000",
      "PhotometricInterpretation": "MONOCHROME2",
      "PixelBandwidth": 2185.0,
      "PixelRepresentation": 0,
      "PixelSpacing": [2.3977272510529, 2.3977272510529],
      "ProtocolName": "func-bold_task-RDMlocalizer_run-02",
      "RepetitionTime": 1200.0,
      "Rows": 704,
      "SAR": 0.05442678661691,
      "SamplesPerPixel": 1,
      "ScanOptions": "FS",
      "ScanningSequence": "EP",
      "SequenceName": "*epfid2d1_88",
      "SequenceVariant": "SK",
      "SeriesDescription": "func-bold_task-RDMlocalizer_run-02",
      "SeriesNumber": 20,
      "SeriesTime": "141658.583000",
      "SliceLocation": -54.444183494684,
      "SliceThickness": 2.4000000953674,
      "SmallestImagePixelValue": 0,
      "SoftwareVersions": "syngo MR E11",
      "SpacingBetweenSlices": 2.4000000205378,
      "SpecificCharacterSet": "ISO_IR 100",
      "StudyID": "1",
      "StudyTime": "125256.653000",
      "TransmitCoilName": "Body",
      "VariableFlipAngleFlag": "N",
      "WindowCenterWidthExplanation": "Algo1",
      "dBdt": 0.0},
    "slices": {}
  },
  "time": {
    "samples": {
      "AcquisitionNumber": [1, 2, 3, 4, 5, 6, 7, 8, 9, 10, 11, 12, 13, 14, 15, 16, 17, 18, 19, 20, 21, 22, 23, 24, 25, 26, 27, 28, 29, 30, 31, 32, 33, 34, 35, 36, 37, 38, 39, 40, 41, 42, 43, 44, 45, 46, 47, 48, 49, 50, 51, 52, 53, 54, 55, 56, 57, 58, 59, 60, 61, 62, 63, 64, 65, 66, 67, 68, 69, 70, 71, 72, 73, 74, 75, 76, 77, 78, 79, 80, 81, 82, 83, 84, 85, 86, 87, 88, 89, 90, 91, 92, 93, 94, 95, 96, 97, 98, 99, 100, 101, 102, 103, 104, 105, 106, 107, 108, 109, 110, 111, 112, 113, 114, 115, 116, 117, 118, 119, 120, 121, 122, 123, 124, 125, 126, 127, 128, 129, 130, 131, 132, 133, 134, 135, 136, 137, 138, 139, 140, 141, 142, 143, 144, 145, 146, 147, 148, 149, 150, 151, 152, 153, 154, 155, 156, 157, 158, 159, 160, 161, 162, 163, 164, 165, 166, 167, 168, 169, 170, 171, 172, 173, 174, 175, 176, 177, 178, 179, 180, 181, 182, 183, 184, 185, 186, 187, 188, 189, 190, 191, 192, 193, 194, 195],
      "AcquisitionTime": ["141616.430000", "141617.630000", "141618.830000", "141620.030000", "141621.230000", "141622.430000", "141623.630000", "141624.830000", "141626.030000", "141627.230000", "141628.430000", "141629.630000", "141630.830000", "141632.030000", "141633.230000", "141634.430000", "141635.630000", "141636.830000", "141638.030000", "141639.230000", "141640.430000", "141641.630000", "141642.830000", "141644.030000", "141645.230000", "141646.430000", "141647.630000", "141648.830000", "141650.030000", "141651.230000", "141652.430000", "141653.630000", "141654.830000", "141656.030000", "141657.230000", "141658.430000", "141659.630000", "141700.830000", "141702.030000", "141703.230000", "141704.430000", "141705.630000", "141706.830000", "141708.030000", "141709.230000", "141710.430000", "141711.630000", "141712.830000", "141714.030000", "141715.230000", "141716.430000", "141717.630000", "141718.830000", "141720.030000", "141721.230000", "141722.430000", "141723.630000", "141724.830000", "141726.030000", "141727.230000", "141728.430000", "141729.630000", "141730.830000", "141732.030000", "141733.230000", "141734.430000", "141735.630000", "141736.830000", "141738.030000", "141739.230000", "141740.430000", "141741.630000", "141742.830000", "141744.030000", "141745.230000", "141746.430000", "141747.630000", "141748.830000", "141750.030000", "141751.230000", "141752.430000", "141753.630000", "141754.830000", "141756.030000", "141757.230000", "141758.430000", "141759.630000", "141800.830000", "141802.030000", "141803.230000", "141804.430000", "141805.630000", "141806.830000", "141808.030000", "141809.230000", "141810.430000", "141811.630000", "141812.830000", "141814.030000", "141815.230000", "141816.430000", "141817.630000", "141818.830000", "141820.030000", "141821.230000", "141822.430000", "141823.630000", "141824.830000", "141826.030000", "141827.230000", "141828.430000", "141829.630000", "141830.830000", "141832.030000", "141833.230000", "141834.430000", "141835.630000", "141836.830000", "141838.030000", "141839.230000", "141840.430000", "141841.630000", "141842.830000", "141844.030000", "141845.230000", "141846.430000", "141847.630000", "141848.830000", "141850.030000", "141851.230000", "141852.430000", "141853.630000", "141854.830000", "141856.030000", "141857.230000", "141858.430000", "141859.630000", "141900.830000", "141902.030000", "141903.230000", "141904.430000", "141905.630000", "141906.830000", "141908.030000", "141909.230000", "141910.430000", "141911.630000", "141912.830000", "141914.030000", "141915.230000", "141916.430000", "141917.630000", "141918.830000", "141920.030000", "141921.230000", "141922.430000", "141923.630000", "141924.830000", "141926.030000", "141927.230000", "141928.430000", "141929.630000", "141930.830000", "141932.030000", "141933.230000", "141934.430000", "141935.630000", "141936.830000", "141938.030000", "141939.230000", "141940.430000", "141941.630000", "141942.830000", "141944.030000", "141945.230000", "141946.430000", "141947.630000", "141948.830000", "141950.030000", "141951.230000", "141952.430000", "141953.630000", "141954.830000", "141956.030000", "141957.230000", "141958.430000", "141959.630000", "142000.830000", "142002.030000", "142003.230000", "142004.430000", "142005.630000", "142006.830000", "142008.030000", "142009.230000"],
      "ContentTime": ["141658.586000", "141658.589000", "141658.592000", "141658.595000", "141658.597000", "141658.600000", "141658.602000", "141658.605000", "141658.607000", "141658.610000", "141658.612000", "141658.615000", "141658.618000", "141658.621000", "141658.623000", "141658.631000", "141658.634000", "141658.637000", "141658.639000", "141658.642000", "141658.644000", "141658.647000", "141658.649000", "141658.652000", "141658.654000", "141658.657000", "141658.660000", "141658.669000", "141658.672000", "141658.674000", "141658.677000", "141658.679000", "141658.682000", "141658.684000", "141658.687000", "141738.581000", "141738.584000", "141738.587000", "141738.589000", "141738.592000", "141738.594000", "141738.607000", "141738.610000", "141738.612000", "141738.615000", "141738.617000", "141738.620000", "141738.623000", "141738.625000", "141738.628000", "141738.630000", "141738.633000", "141738.635000", "141738.638000", "141738.640000", "141738.646000", "141738.648000", "141738.651000", "141738.653000", "141738.656000", "141738.658000", "141738.661000", "141738.663000", "141738.666000", "141738.668000", "141738.671000", "141738.673000", "141738.676000", "141818.581000", "141818.584000", "141818.588000", "141818.590000", "141818.593000", "141818.596000", "141818.598000", "141818.601000", "141818.603000", "141818.606000", "141818.609000", "141818.611000", "141818.614000", "141818.616000", "141818.619000", "141818.621000", "141818.624000", "141818.627000", "141818.640000", "141818.643000", "141818.646000", "141818.648000", "141818.651000", "141818.653000", "141818.656000", "141818.658000", "141818.661000", "141818.663000", "141818.666000", "141818.668000", "141818.671000", "141818.673000", "141818.676000", "141858.582000", "141858.584000", "141858.587000", "141858.590000", "141858.592000", "141858.595000", "141858.597000", "141858.600000", "141858.602000", "141858.605000", "141858.607000", "141858.610000", "141858.613000", "141858.615000", "141858.618000", "141858.620000", "141858.623000", "141858.625000", "141858.628000", "141858.631000", "141858.633000", "141858.636000", "141858.638000", "141858.641000", "141858.643000", "141858.646000", "141858.649000", "141858.651000", "141858.654000", "141858.656000", "141858.659000", "141858.662000", "141858.664000", "141858.674000", "141938.581000", "141938.584000", "141938.587000", "141938.590000", "141938.592000", "141938.595000", "141938.597000", "141938.600000", "141938.602000", "141938.618000", "141938.620000", "141938.623000", "141938.626000", "141938.628000", "141938.631000", "141938.633000", "141938.636000", "141938.639000", "141938.641000", "141938.644000", "141938.646000", "141938.649000", "141938.651000", "141938.654000", "141938.656000", "141938.659000", "141938.661000", "141938.664000", "141938.667000", "141938.669000", "141938.672000", "141938.675000", "141938.677000", "142010.324000", "142010.326000", "142010.329000", "142010.332000", "142010.334000", "142010.337000", "142010.339000", "142010.342000", "142010.345000", "142010.353000", "142010.356000", "142010.358000", "142010.361000", "142010.364000", "142010.366000", "142010.369000", "142010.372000", "142010.375000", "142010.378000", "142010.381000", "142010.383000", "142010.386000", "142010.389000", "142010.392000", "142010.395000", "142010.399000", "142010.402000"],
      "InstanceCreationTime": ["141658.586000", "141658.589000", "141658.592000", "141658.595000", "141658.597000", "141658.600000", "141658.602000", "141658.605000", "141658.607000", "141658.610000", "141658.612000", "141658.615000", "141658.618000", "141658.621000", "141658.623000", "141658.631000", "141658.634000", "141658.637000", "141658.639000", "141658.642000", "141658.644000", "141658.647000", "141658.649000", "141658.652000", "141658.654000", "141658.657000", "141658.660000", "141658.669000", "141658.672000", "141658.674000", "141658.677000", "141658.679000", "141658.682000", "141658.684000", "141658.687000", "141738.581000", "141738.584000", "141738.587000", "141738.589000", "141738.592000", "141738.594000", "141738.607000", "141738.610000", "141738.612000", "141738.615000", "141738.617000", "141738.620000", "141738.623000", "141738.625000", "141738.628000", "141738.630000", "141738.633000", "141738.635000", "141738.638000", "141738.640000", "141738.646000", "141738.648000", "141738.651000", "141738.653000", "141738.656000", "141738.658000", "141738.661000", "141738.663000", "141738.666000", "141738.668000", "141738.671000", "141738.673000", "141738.676000", "141818.581000", "141818.584000", "141818.588000", "141818.590000", "141818.593000", "141818.596000", "141818.598000", "141818.601000", "141818.603000", "141818.606000", "141818.609000", "141818.611000", "141818.614000", "141818.616000", "141818.619000", "141818.621000", "141818.624000", "141818.627000", "141818.640000", "141818.643000", "141818.646000", "141818.648000", "141818.651000", "141818.653000", "141818.656000", "141818.658000", "141818.661000", "141818.663000", "141818.666000", "141818.668000", "141818.671000", "141818.673000", "141818.676000", "141858.582000", "141858.584000", "141858.587000", "141858.590000", "141858.592000", "141858.595000", "141858.597000", "141858.600000", "141858.602000", "141858.605000", "141858.607000", "141858.610000", "141858.613000", "141858.615000", "141858.618000", "141858.620000", "141858.623000", "141858.625000", "141858.628000", "141858.631000", "141858.633000", "141858.636000", "141858.638000", "141858.641000", "141858.643000", "141858.646000", "141858.649000", "141858.651000", "141858.654000", "141858.656000", "141858.659000", "141858.662000", "141858.664000", "141858.674000", "141938.581000", "141938.584000", "141938.587000", "141938.590000", "141938.592000", "141938.595000", "141938.597000", "141938.600000", "141938.602000", "141938.618000", "141938.620000", "141938.623000", "141938.626000", "141938.628000", "141938.631000", "141938.633000", "141938.636000", "141938.639000", "141938.641000", "141938.644000", "141938.646000", "141938.649000", "141938.651000", "141938.654000", "141938.656000", "141938.659000", "141938.661000", "141938.664000", "141938.667000", "141938.669000", "141938.672000", "141938.675000", "141938.677000", "142010.324000", "142010.326000", "142010.329000", "142010.332000", "142010.334000", "142010.337000", "142010.339000", "142010.342000", "142010.345000", "142010.353000", "142010.356000", "142010.358000", "142010.361000", "142010.364000", "142010.366000", "142010.369000", "142010.372000", "142010.375000", "142010.378000", "142010.381000", "142010.383000", "142010.386000", "142010.389000", "142010.392000", "142010.395000", "142010.399000", "142010.402000"],
      "InstanceNumber": [1, 2, 3, 4, 5, 6, 7, 8, 9, 10, 11, 12, 13, 14, 15, 16, 17, 18, 19, 20, 21, 22, 23, 24, 25, 26, 27, 28, 29, 30, 31, 32, 33, 34, 35, 36, 37, 38, 39, 40, 41, 42, 43, 44, 45, 46, 47, 48, 49, 50, 51, 52, 53, 54, 55, 56, 57, 58, 59, 60, 61, 62, 63, 64, 65, 66, 67, 68, 69, 70, 71, 72, 73, 74, 75, 76, 77, 78, 79, 80, 81, 82, 83, 84, 85, 86, 87, 88, 89, 90, 91, 92, 93, 94, 95, 96, 97, 98, 99, 100, 101, 102, 103, 104, 105, 106, 107, 108, 109, 110, 111, 112, 113, 114, 115, 116, 117, 118, 119, 120, 121, 122, 123, 124, 125, 126, 127, 128, 129, 130, 131, 132, 133, 134, 135, 136, 137, 138, 139, 140, 141, 142, 143, 144, 145, 146, 147, 148, 149, 150, 151, 152, 153, 154, 155, 156, 157, 158, 159, 160, 161, 162, 163, 164, 165, 166, 167, 168, 169, 170, 171, 172, 173, 174, 175, 176, 177, 178, 179, 180, 181, 182, 183, 184, 185, 186, 187, 188, 189, 190, 191, 192, 193, 194, 195],
      "LargestImagePixelValue": [2360, 2293, 2248, 2232, 2215, 2196, 2197, 2183, 2186, 2178, 2181, 2180, 2177, 2186, 2177, 2199, 2189, 2182, 2181, 2206, 2205, 2209, 2205, 2201, 2213, 2181, 2186, 2183, 2180, 2165, 2151, 2145, 2147, 2136, 2126, 2126, 2128, 2125, 2134, 2131, 2131, 2161, 2179, 2181, 2186, 2211, 2190, 2195, 2200, 2198, 2194, 2186, 2198, 2193, 2158, 2147, 2156, 2172, 2182, 2175, 2168, 2162, 2175, 2189, 2163, 2170, 2157, 2166, 2164, 2159, 2167, 2160, 2169, 2154, 2172, 2171, 2183, 2179, 2148, 2168, 2203, 2210, 2212, 2201, 2165, 2169, 2159, 2148, 2141, 2143, 2146, 2136, 2151, 2147, 2148, 2146, 2148, 2145, 2133, 2138, 2161, 2156, 2150, 2156, 2159, 2160, 2168, 2165, 2152, 2150, 2130, 2144, 2137, 2134, 2167, 2162, 2125, 2121, 2176, 2133, 2117, 2109, 2119, 2097, 2103, 2120, 2184, 2160, 2133, 2153, 2140, 2159, 2141, 2105, 2113, 2131, 2127, 2111, 2113, 2113, 2114, 2126, 2085, 1978, 1951, 2013, 1996, 1999, 2012, 2029, 2027, 2024, 2031, 2030, 2017, 2020, 2032, 2035, 2037, 2042, 2055, 2018, 2036, 2050, 2024, 2020, 2038, 2045, 2029, 2048, 2037, 2073, 2071, 2089, 2126, 2089, 2112, 2084, 2078, 2072, 2047, 2060, 2034, 2054, 2086, 2064, 2033, 2056, 2083, 2050, 2032, 2054, 2026, 2038, 2060],
      "WindowCenter": [607.0, 605.0, 603.0, 603.0, 602.0, 602.0, 602.0, 600.0, 600.0, 599.0, 600.0, 600.0, 600.0, 600.0, 600.0, 601.0, 600.0, 600.0, 600.0, 600.0, 600.0, 602.0, 601.0, 601.0, 602.0, 600.0, 600.0, 599.0, 600.0, 600.0, 600.0, 599.0, 598.0, 597.0, 596.0, 596.0, 597.0, 598.0, 598.0, 598.0, 599.0, 600.0, 600.0, 600.0, 601.0, 601.0, 601.0, 602.0, 601.0, 601.0, 601.0, 600.0, 600.0, 599.0, 598.0, 598.0, 599.0, 600.0, 601.0, 602.0, 601.0, 600.0, 600.0, 600.0, 600.0, 600.0, 600.0, 599.0, 599.0, 599.0, 599.0, 599.0, 599.0, 600.0, 601.0, 601.0, 602.0, 602.0, 602.0, 603.0, 603.0, 603.0, 604.0, 604.0, 604.0, 603.0, 601.0, 599.0, 598.0, 597.0, 597.0, 597.0, 597.0, 597.0, 598.0, 598.0, 599.0, 599.0, 600.0, 599.0, 599.0, 599.0, 599.0, 599.0, 599.0, 600.0, 600.0, 600.0, 600.0, 601.0, 601.0, 601.0, 601.0, 602.0, 603.0, 603.0, 602.0, 602.0, 602.0, 601.0, 600.0, 599.0, 599.0, 598.0, 598.0, 599.0, 600.0, 600.0, 600.0, 601.0, 601.0, 600.0, 599.0, 597.0, 596.0, 596.0, 595.0, 594.0, 594.0, 594.0, 595.0, 595.0, 595.0, 595.0, 595.0, 596.0, 596.0, 597.0, 598.0, 598.0, 598.0, 598.0, 598.0, 598.0, 597.0, 597.0, 597.0, 597.0, 597.0, 597.0, 598.0, 598.0, 599.0, 600.0, 600.0, 600.0, 601.0, 600.0, 599.0, 599.0, 599.0, 599.0, 600.0, 600.0, 601.0, 601.0, 601.0, 601.0, 600.0, 599.0, 598.0, 597.0, 596.0, 596.0, 595.0, 594.0, 594.0, 594.0, 595.0, 595.0, 595.0, 596.0, 596.0, 597.0, 597.0],
      "WindowWidth": [1297.0, 1290.0, 1286.0, 1285.0, 1283.0, 1282.0, 1282.0, 1279.0, 1278.0, 1276.0, 1277.0, 1279.0, 1279.0, 1279.0, 1279.0, 1279.0, 1278.0, 1277.0, 1277.0, 1278.0, 1279.0, 1282.0, 1281.0, 1281.0, 1282.0, 1279.0, 1278.0, 1277.0, 1279.0, 1279.0, 1277.0, 1276.0, 1274.0, 1272.0, 1270.0, 1270.0, 1271.0, 1274.0, 1274.0, 1275.0, 1277.0, 1278.0, 1278.0, 1279.0, 1280.0, 1281.0, 1282.0, 1282.0, 1281.0, 1281.0, 1280.0, 1278.0, 1278.0, 1276.0, 1274.0, 1274.0, 1277.0, 1279.0, 1281.0, 1282.0, 1280.0, 1279.0, 1279.0, 1278.0, 1278.0, 1278.0, 1278.0, 1277.0, 1276.0, 1277.0, 1276.0, 1277.0, 1277.0, 1279.0, 1281.0, 1282.0, 1283.0, 1284.0, 1284.0, 1285.0, 1285.0, 1286.0, 1287.0, 1287.0, 1287.0, 1285.0, 1281.0, 1277.0, 1273.0, 1272.0, 1271.0, 1271.0, 1272.0, 1273.0, 1274.0, 1275.0, 1276.0, 1277.0, 1278.0, 1277.0, 1277.0, 1276.0, 1276.0, 1277.0, 1277.0, 1278.0, 1278.0, 1278.0, 1280.0, 1280.0, 1280.0, 1282.0, 1282.0, 1284.0, 1286.0, 1285.0, 1284.0, 1283.0, 1283.0, 1280.0, 1278.0, 1277.0, 1277.0, 1275.0, 1275.0, 1277.0, 1279.0, 1277.0, 1278.0, 1280.0, 1280.0, 1278.0, 1275.0, 1271.0, 1269.0, 1268.0, 1266.0, 1265.0, 1264.0, 1265.0, 1266.0, 1266.0, 1268.0, 1269.0, 1268.0, 1270.0, 1269.0, 1272.0, 1274.0, 1275.0, 1275.0, 1275.0, 1276.0, 1275.0, 1274.0, 1273.0, 1272.0, 1272.0, 1273.0, 1274.0, 1276.0, 1275.0, 1277.0, 1279.0, 1280.0, 1281.0, 1282.0, 1280.0, 1279.0, 1278.0, 1277.0, 1278.0, 1279.0, 1279.0, 1281.0, 1280.0, 1282.0, 1281.0, 1279.0, 1277.0, 1275.0, 1273.0, 1269.0, 1269.0, 1266.0, 1265.0, 1265.0, 1265.0, 1267.0, 1267.0, 1269.0, 1271.0, 1271.0, 1273.0, 1272.0]
    },
    "slices": {}
  }
}