{
  "AcquisitionMatrixPE": 88,
  "AcquisitionNumber": 1,
  "AcquisitionTime": "14:11:22.950000",
  "BandwidthPerPixelPhaseEncode": 19.592,
  "BaseResolution": 88,
  "BodyPartExamined": "BRAIN",
  "ConsistencyInfo": "N4_VE11C_LATEST_20160120",
  "ConversionSoftware": "dcm2niix",
  "ConversionSoftwareVersion": "v1.0.20190902",
  "DerivedVendorReportedEchoSpacing": 0.000580014,
  "DeviceSerialNumber": "67050",
  "DwellTime": 2.6e-06,
  "EchoTime": 0.033,
  "EchoTrainLength": 88,
  "EffectiveEchoSpacing": 0.000580014,
  "FlipAngle": 62,
  "ImageOrientationPatientDICOM": [0.988856, -0.0243481, 0.146871, 0.0500932, 0.983429, -0.174237],
  "ImageType": [
    "ORIGINAL",
    "PRIMARY",
    "M",
    "ND",
    "MOSAIC"
],
  "ImagingFrequency": 123.251,
  "InPlanePhaseEncodingDirectionDICOM": "COL",
  "InstitutionAddress": "Olive_Street_60_Providence_RI_US_02912",
  "InstitutionName": "BROWN_UNIVERSITY_MRF",
  "InstitutionalDepartmentName": "Department",
  "MRAcquisitionType": "2D",
  "MagneticFieldStrength": 3,
  "Manufacturer": "Siemens",
  "ManufacturersModelName": "Prisma_fit",
  "Modality": "MR",
  "MultibandAccelerationFactor": 4,
  "PartialFourier": 1,
  "PatientPosition": "HFS",
  "PercentPhaseFOV": 100,
  "PhaseEncodingDirection": "j-",
  "PhaseEncodingSteps": 88,
  "PhaseResolution": 1,
  "PixelBandwidth": 2185,
  "ProcedureStepDescription": "ASHENHAV_1222",
  "ProtocolName": "func-bold_task-RDMlocalizer_run-01",
  "PulseSequenceDetails": "%SiemensSeq%_ep2d_bold",
  "ReceiveCoilActiveElements": "HC1-7;NC1",
  "ReceiveCoilName": "HeadNeck_64",
  "ReconMatrixPE": 88,
  "RefLinesPE": 8,
  "RepetitionTime": 1.2,
  "SAR": 0.0544268,
  "ScanOptions": "FS",
  "ScanningSequence": "EP",
  "SequenceName": "_epfid2d1_88",
  "SequenceVariant": "SK",
  "SeriesDescription": "func-bold_task-RDMlocalizer_run-01",
  "SeriesNumber": 19,
  "ShimSetting": [1794, -9124, 4395, 416, 3, -419, -67, -127],
  "SliceThickness": 2.4,
  "SliceTiming": [0.55, 0, 0.63, 0.0775, 0.7075, 0.1575, 0.785, 0.235, 0.865, 0.315, 0.9425, 0.3925, 1.0225, 0.4725, 1.1, 0.55, 0, 0.63, 0.0775, 0.7075, 0.1575, 0.785, 0.235, 0.865, 0.315, 0.9425, 0.3925, 1.0225, 0.4725, 1.1, 0.55, 0, 0.63, 0.0775, 0.7075, 0.1575, 0.785, 0.235, 0.865, 0.315, 0.9425, 0.3925, 1.0225, 0.4725, 1.1, 0.55, 0, 0.63, 0.0775, 0.7075, 0.1575, 0.785, 0.235, 0.865, 0.315, 0.9425, 0.3925, 1.0225, 0.4725, 1.1],
  "SoftwareVersions": "syngo_MR_E11",
  "SpacingBetweenSlices": 2.4,
  "StationName": "AWP67050",
  "TaskName": "RDMlocalizer",
  "TotalReadoutTime": 0.0504612,
  "TxRefAmp": 215.57,
  "dcmmeta_affine": [
    [-2.371006965637207, 0.1201099082827568, 0.33646735548973083, 94.85494232177734],
    [0.05838017538189888, 2.3579940795898438, -0.4311659634113312, -83.82442474365234],
    [0.3521563708782196, 0.41777268052101135, 2.3368537425994873, -85.03907012939453],
    [0.0, 0.0, 0.0, 1.0]
],
  "dcmmeta_reorient_transform": [
    [0.0, -1.0, 0.0, 87.0],
    [1.0, 0.0, 0.0, 0.0],
    [0.0, 0.0, 1.0, 0.0],
    [0.0, 0.0, 0.0, 1.0]
],
  "dcmmeta_shape": [88, 88, 60, 195],
  "dcmmeta_slice_dim": 2,
  "dcmmeta_version": 0.6,
  "global": {
    "const": {
      "AcquisitionMatrix": [88, 0, 0, 88],
      "AngioFlag": "N",
      "BitsAllocated": 16,
      "BitsStored": 12,
      "BodyPartExamined": "BRAIN",
      "Columns": 704,
      "DeidentificationMethodCodeSequence": [
        {
          "CodeMeaning": "XNAT DicomEdit 6 Script",
          "CodeValue": "3",
          "CodingSchemeDesignator": "XNAT",
          "CodingSchemeVersion": "1.0"}
],
      "EchoNumbers": 1,
      "EchoTime": 33.0,
      "EchoTrainLength": 88,
      "FlipAngle": 62.0,
      "HighBit": 11,
      "ImageOrientationPatient": [0.98885595786801, -0.0243481295229, 0.14687090650529, 0.05009323098221, 0.98342877403154, -0.1742369496306],
      "ImagePositionPatient": [-872.56847479931, -829.60209909805, -28.48302349509],
      "ImageType": [
        "ORIGINAL",
        "PRIMARY",
        "M",
        "ND",
        "MOSAIC"
],
      "ImagedNucleus": "1H",
      "ImagingFrequency": 123.250765,
      "InPlanePhaseEncodingDirection": "COL",
      "MRAcquisitionType": "2D",
      "MagneticFieldStrength": 3.0,
      "Manufacturer": "SIEMENS",
      "ManufacturerModelName": "Prisma_fit",
      "Modality": "MR",
      "NumberOfAverages": 1.0,
      "NumberOfPhaseEncodingSteps": 88,
      "PercentPhaseFieldOfView": 100.0,
      "PercentSampling": 100.0,
      "PerformedProcedureStepStartTime": "125256.752000",
      "PhotometricInterpretation": "MONOCHROME2",
      "PixelBandwidth": 2185.0,
      "PixelRepresentation": 0,
      "PixelSpacing": [2.3977272510529, 2.3977272510529],
      "ProtocolName": "func-bold_task-RDMlocalizer_run-01",
      "RepetitionTime": 1200.0,
      "Rows": 704,
      "SAR": 0.05442678661691,
      "SamplesPerPixel": 1,
      "ScanOptions": "FS",
      "ScanningSequence": "EP",
      "SequenceName": "*epfid2d1_88",
      "SequenceVariant": "SK",
      "SeriesDescription": "func-bold_task-RDMlocalizer_run-01",
      "SeriesNumber": 19,
      "SeriesTime": "141135.011000",
      "SliceLocation": -54.444183494684,
      "SliceThickness": 2.4000000953674,
      "SmallestImagePixelValue": 0,
      "SoftwareVersions": "syngo MR E11",
      "SpacingBetweenSlices": 2.4000000205378,
      "SpecificCharacterSet": "ISO_IR 100",
      "StudyID": "1",
      "StudyTime": "125256.653000",
      "TransmitCoilName": "Body",
      "VariableFlipAngleFlag": "N",
      "WindowCenterWidthExplanation": "Algo1",
      "dBdt": 0.0},
    "slices": {}
  },
  "time": {
    "samples": {
      "AcquisitionNumber": [1, 2, 3, 4, 5, 6, 7, 8, 9, 10, 11, 12, 13, 14, 15, 16, 17, 18, 19, 20, 21, 22, 23, 24, 25, 26, 27, 28, 29, 30, 31, 32, 33, 34, 35, 36, 37, 38, 39, 40, 41, 42, 43, 44, 45, 46, 47, 48, 49, 50, 51, 52, 53, 54, 55, 56, 57, 58, 59, 60, 61, 62, 63, 64, 65, 66, 67, 68, 69, 70, 71, 72, 73, 74, 75, 76, 77, 78, 79, 80, 81, 82, 83, 84, 85, 86, 87, 88, 89, 90, 91, 92, 93, 94, 95, 96, 97, 98, 99, 100, 101, 102, 103, 104, 105, 106, 107, 108, 109, 110, 111, 112, 113, 114, 115, 116, 117, 118, 119, 120, 121, 122, 123, 124, 125, 126, 127, 128, 129, 130, 131, 132, 133, 134, 135, 136, 137, 138, 139, 140, 141, 142, 143, 144, 145, 146, 147, 148, 149, 150, 151, 152, 153, 154, 155, 156, 157, 158, 159, 160, 161, 162, 163, 164, 165, 166, 167, 168, 169, 170, 171, 172, 173, 174, 175, 176, 177, 178, 179, 180, 181, 182, 183, 184, 185, 186, 187, 188, 189, 190, 191, 192, 193, 194, 195],
      "AcquisitionTime": ["141122.950000", "141124.150000", "141125.350000", "141126.550000", "141127.750000", "141128.950000", "141130.150000", "141131.350000", "141132.550000", "141133.750000", "141134.950000", "141136.150000", "141137.350000", "141138.550000", "141139.750000", "141140.950000", "141142.150000", "141143.350000", "141144.550000", "141145.750000", "141146.950000", "141148.150000", "141149.350000", "141150.550000", "141151.750000", "141152.950000", "141154.150000", "141155.350000", "141156.550000", "141157.750000", "141158.950000", "141200.150000", "141201.350000", "141202.550000", "141203.750000", "141204.950000", "141206.150000", "141207.350000", "141208.550000", "141209.750000", "141210.950000", "141212.150000", "141213.350000", "141214.550000", "141215.750000", "141216.950000", "141218.150000", "141219.350000", "141220.550000", "141221.750000", "141222.950000", "141224.150000", "141225.350000", "141226.550000", "141227.750000", "141228.950000", "141230.150000", "141231.350000", "141232.550000", "141233.750000", "141234.950000", "141236.150000", "141237.350000", "141238.550000", "141239.750000", "141240.950000", "141242.150000", "141243.350000", "141244.550000", "141245.750000", "141246.950000", "141248.150000", "141249.350000", "141250.550000", "141251.750000", "141252.950000", "141254.150000", "141255.350000", "141256.550000", "141257.750000", "141258.950000", "141300.150000", "141301.350000", "141302.550000", "141303.750000", "141304.950000", "141306.150000", "141307.350000", "141308.550000", "141309.750000", "141310.950000", "141312.150000", "141313.350000", "141314.550000", "141315.750000", "141316.950000", "141318.150000", "141319.350000", "141320.550000", "141321.750000", "141322.950000", "141324.150000", "141325.350000", "141326.550000", "141327.750000", "141328.950000", "141330.150000", "141331.350000", "141332.550000", "141333.750000", "141334.950000", "141336.150000", "141337.350000", "141338.550000", "141339.750000", "141340.950000", "141342.150000", "141343.350000", "141344.550000", "141345.750000", "141346.950000", "141348.150000", "141349.350000", "141350.550000", "141351.750000", "141352.950000", "141354.150000", "141355.350000", "141356.550000", "141357.750000", "141358.950000", "141400.150000", "141401.350000", "141402.550000", "141403.750000", "141404.950000", "141406.150000", "141407.350000", "141408.550000", "141409.750000", "141410.950000", "141412.150000", "141413.350000", "141414.550000", "141415.750000", "141416.950000", "141418.150000", "141419.350000", "141420.550000", "141421.750000", "141422.950000", "141424.150000", "141425.350000", "141426.550000", "141427.750000", "141428.950000", "141430.150000", "141431.350000", "141432.550000", "141433.750000", "141434.950000", "141436.150000", "141437.350000", "141438.550000", "141439.750000", "141440.950000", "141442.150000", "141443.350000", "141444.550000", "141445.750000", "141446.950000", "141448.150000", "141449.350000", "141450.550000", "141451.750000", "141452.950000", "141454.150000", "141455.350000", "141456.550000", "141457.750000", "141458.950000", "141500.150000", "141501.350000", "141502.550000", "141503.750000", "141504.950000", "141506.150000", "141507.350000", "141508.550000", "141509.750000", "141510.950000", "141512.150000", "141513.350000", "141514.550000", "141515.750000"],
      "ContentTime": ["141135.014000", "141135.019000", "141135.021000", "141135.024000", "141135.026000", "141135.029000", "141135.031000", "141135.054000", "141135.057000", "141215.011000", "141215.013000", "141215.016000", "141215.018000", "141215.021000", "141215.033000", "141215.036000", "141215.038000", "141215.041000", "141215.043000", "141215.046000", "141215.049000", "141215.052000", "141215.054000", "141215.057000", "141215.060000", "141215.063000", "141215.066000", "141215.068000", "141215.071000", "141215.074000", "141215.076000", "141215.079000", "141215.082000", "141215.084000", "141215.087000", "141215.089000", "141215.092000", "141215.094000", "141215.097000", "141215.100000", "141215.102000", "141215.107000", "141255.010000", "141255.012000", "141255.015000", "141255.018000", "141255.020000", "141255.023000", "141255.029000", "141255.032000", "141255.034000", "141255.037000", "141255.039000", "141255.042000", "141255.045000", "141255.047000", "141255.050000", "141255.052000", "141255.055000", "141255.058000", "141255.060000", "141255.063000", "141255.065000", "141255.068000", "141255.070000", "141255.073000", "141255.076000", "141255.078000", "141255.081000", "141255.083000", "141255.086000", "141255.088000", "141255.091000", "141255.093000", "141255.096000", "141255.098000", "141335.009000", "141335.012000", "141335.015000", "141335.018000", "141335.020000", "141335.023000", "141335.025000", "141335.028000", "141335.030000", "141335.033000", "141335.036000", "141335.038000", "141335.041000", "141335.043000", "141335.046000", "141335.048000", "141335.051000", "141335.053000", "141335.056000", "141335.058000", "141335.061000", "141335.064000", "141335.066000", "141335.069000", "141335.071000", "141335.074000", "141335.076000", "141335.079000", "141335.081000", "141335.084000", "141335.086000", "141335.089000", "141335.092000", "141415.010000", "141415.013000", "141415.016000", "141415.018000", "141415.021000", "141415.024000", "141415.026000", "141415.029000", "141415.031000", "141415.034000", "141415.036000", "141415.039000", "141415.042000", "141415.044000", "141415.047000", "141415.049000", "141415.052000", "141415.054000", "141415.057000", "141415.059000", "141415.062000", "141415.064000", "141415.067000", "141415.070000", "141415.072000", "141415.075000", "141415.077000", "141415.080000", "141415.083000", "141415.086000", "141415.089000", "141415.092000", "141415.095000", "141455.010000", "141455.012000", "141455.026000", "141455.029000", "141455.031000", "141455.034000", "141455.036000", "141455.039000", "141455.042000", "141455.044000", "141455.047000", "141455.050000", "141455.052000", "141455.055000", "141455.057000", "141455.060000", "141455.063000", "141455.065000", "141455.068000", "141455.070000", "141455.073000", "141455.075000", "141455.078000", "141455.081000", "141455.083000", "141455.086000", "141455.088000", "141455.091000", "141455.094000", "141455.096000", "141455.099000", "141455.101000", "141455.104000", "141455.106000", "141517.530000", "141517.533000", "141517.536000", "141517.539000", "141517.542000", "141517.545000", "141517.548000", "141517.554000", "141517.556000", "141517.559000", "141517.561000", "141517.564000", "141517.567000", "141517.569000", "141517.572000", "141517.575000", "141517.577000", "141517.580000", "141517.583000"],
      "InstanceCreationTime": ["141135.014000", "141135.019000", "141135.021000", "141135.024000", "141135.026000", "141135.029000", "141135.031000", "141135.054000", "141135.057000", "141215.011000", "141215.013000", "141215.016000", "141215.018000", "141215.021000", "141215.033000", "141215.036000", "141215.038000", "141215.041000", "141215.043000", "141215.046000", "141215.049000", "141215.052000", "141215.054000", "141215.057000", "141215.060000", "141215.063000", "141215.066000", "141215.068000", "141215.071000", "141215.074000", "141215.076000", "141215.079000", "141215.082000", "141215.084000", "141215.087000", "141215.089000", "141215.092000", "141215.094000", "141215.097000", "141215.100000", "141215.102000", "141215.107000", "141255.010000", "141255.012000", "141255.015000", "141255.018000", "141255.020000", "141255.023000", "141255.029000", "141255.032000", "141255.034000", "141255.037000", "141255.039000", "141255.042000", "141255.045000", "141255.047000", "141255.050000", "141255.052000", "141255.055000", "141255.058000", "141255.060000", "141255.063000", "141255.065000", "141255.068000", "141255.070000", "141255.073000", "141255.076000", "141255.078000", "141255.081000", "141255.083000", "141255.086000", "141255.088000", "141255.091000", "141255.093000", "141255.096000", "141255.098000", "141335.009000", "141335.012000", "141335.015000", "141335.018000", "141335.020000", "141335.023000", "141335.025000", "141335.028000", "141335.030000", "141335.033000", "141335.036000", "141335.038000", "141335.041000", "141335.043000", "141335.046000", "141335.048000", "141335.051000", "141335.053000", "141335.056000", "141335.058000", "141335.061000", "141335.064000", "141335.066000", "141335.069000", "141335.071000", "141335.074000", "141335.076000", "141335.079000", "141335.081000", "141335.084000", "141335.086000", "141335.089000", "141335.092000", "141415.010000", "141415.013000", "141415.016000", "141415.018000", "141415.021000", "141415.024000", "141415.026000", "141415.029000", "141415.031000", "141415.034000", "141415.036000", "141415.039000", "141415.042000", "141415.044000", "141415.047000", "141415.049000", "141415.052000", "141415.054000", "141415.057000", "141415.059000", "141415.062000", "141415.064000", "141415.067000", "141415.070000", "141415.072000", "141415.075000", "141415.077000", "141415.080000", "141415.083000", "141415.086000", "141415.089000", "141415.092000", "141415.095000", "141455.010000", "141455.012000", "141455.026000", "141455.029000", "141455.031000", "141455.034000", "141455.036000", "141455.039000", "141455.042000", "141455.044000", "141455.047000", "141455.050000", "141455.052000", "141455.055000", "141455.057000", "141455.060000", "141455.063000", "141455.065000", "141455.068000", "141455.070000", "141455.073000", "141455.075000", "141455.078000", "141455.081000", "141455.083000", "141455.086000", "141455.088000", "141455.091000", "141455.094000", "141455.096000", "141455.099000", "141455.101000", "141455.104000", "141455.106000", "141517.530000", "141517.533000", "141517.536000", "141517.539000", "141517.542000", "141517.545000", "141517.548000", "141517.554000", "141517.556000", "141517.559000", "141517.561000", "141517.564000", "141517.567000", "141517.569000", "141517.572000", "141517.575000", "141517.577000", "141517.580000", "141517.583000"],
      "InstanceNumber": [1, 2, 3, 4, 5, 6, 7, 8, 9, 10, 11, 12, 13, 14, 15, 16, 17, 18, 19, 20, 21, 22, 23, 24, 25, 26, 27, 28, 29, 30, 31, 32, 33, 34, 35, 36, 37, 38, 39, 40, 41, 42, 43, 44, 45, 46, 47, 48, 49, 50, 51, 52, 53, 54, 55, 56, 57, 58, 59, 60, 61, 62, 63, 64, 65, 66, 67, 68, 69, 70, 71, 72, 73, 74, 75, 76, 77, 78, 79, 80, 81, 82, 83, 84, 85, 86, 87, 88, 89, 90, 91, 92, 93, 94, 95, 96, 97, 98, 99, 100, 101, 102, 103, 104, 105, 106, 107, 108, 109, 110, 111, 112, 113, 114, 115, 116, 117, 118, 119, 120, 121, 122, 123, 124, 125, 126, 127, 128, 129, 130, 131, 132, 133, 134, 135, 136, 137, 138, 139, 140, 141, 142, 143, 144, 145, 146, 147, 148, 149, 150, 151, 152, 153, 154, 155, 156, 157, 158, 159, 160, 161, 162, 163, 164, 165, 166, 167, 168, 169, 170, 171, 172, 173, 174, 175, 176, 177, 178, 179, 180, 181, 182, 183, 184, 185, 186, 187, 188, 189, 190, 191, 192, 193, 194, 195],
      "LargestImagePixelValue": [2315, 2237, 2175, 2136, 2143, 2119, 2128, 2136, 2139, 2163, 2145, 2148, 2165, 2175, 2150, 2134, 2172, 2149, 2122, 2132, 2153, 2124, 2116, 2129, 2146, 2104, 2113, 2100, 2115, 2119, 2112, 2086, 2117, 2123, 2107, 2107, 2099, 2099, 2112, 2079, 2070, 2108, 2036, 2058, 2041, 2024, 2070, 2031, 2024, 2035, 2007, 2002, 1988, 1977, 2003, 2003, 1997, 2003, 2016, 2009, 2010, 2035, 2027, 2042, 2072, 2049, 2087, 2070, 2102, 2065, 2035, 2103, 2077, 2056, 2084, 2080, 2067, 2095, 2089, 2064, 2056, 2102, 2047, 2060, 2050, 2041, 2062, 2059, 2065, 2091, 2053, 2073, 2054, 2022, 2044, 2035, 2060, 2072, 2068, 2049, 2124, 2112, 2089, 2087, 2109, 2070, 2032, 2051, 2038, 2027, 2042, 2065, 2042, 2046, 2059, 2029, 2037, 2055, 2042, 2079, 2044, 2005, 2014, 2003, 1996, 1996, 2012, 2060, 2035, 2055, 2013, 1993, 2030, 2075, 2039, 2064, 2050, 2055, 2063, 2076, 2047, 2060, 2077, 2060, 2057, 2062, 2048, 2034, 2054, 2019, 2019, 2038, 2021, 2021, 2044, 2035, 2045, 2065, 2039, 2045, 2051, 2039, 2050, 2053, 2047, 2028, 1987, 2023, 2018, 2037, 2060, 2074, 2048, 2081, 2052, 2020, 2056, 2044, 2044, 2051, 2045, 2056, 2060, 2050, 2036, 2046, 2059, 2026, 2062, 2035, 2031, 2081, 2060, 2073, 2106],
      "WindowCenter": [607.0, 604.0, 601.0, 600.0, 600.0, 600.0, 600.0, 601.0, 601.0, 601.0, 601.0, 601.0, 602.0, 603.0, 603.0, 603.0, 603.0, 602.0, 602.0, 602.0, 602.0, 601.0, 601.0, 602.0, 601.0, 601.0, 601.0, 600.0, 600.0, 600.0, 600.0, 600.0, 600.0, 600.0, 600.0, 600.0, 600.0, 600.0, 601.0, 600.0, 601.0, 601.0, 600.0, 600.0, 599.0, 599.0, 600.0, 599.0, 599.0, 600.0, 599.0, 600.0, 600.0, 600.0, 600.0, 600.0, 599.0, 599.0, 600.0, 601.0, 602.0, 603.0, 603.0, 602.0, 602.0, 600.0, 600.0, 600.0, 600.0, 600.0, 600.0, 601.0, 600.0, 601.0, 601.0, 601.0, 601.0, 601.0, 601.0, 600.0, 600.0, 600.0, 599.0, 600.0, 599.0, 599.0, 600.0, 600.0, 600.0, 600.0, 599.0, 599.0, 598.0, 598.0, 598.0, 598.0, 598.0, 598.0, 599.0, 599.0, 600.0, 600.0, 599.0, 600.0, 600.0, 599.0, 598.0, 599.0, 598.0, 597.0, 598.0, 598.0, 599.0, 599.0, 599.0, 598.0, 597.0, 598.0, 596.0, 597.0, 596.0, 596.0, 596.0, 595.0, 595.0, 595.0, 596.0, 597.0, 598.0, 598.0, 598.0, 598.0, 598.0, 598.0, 597.0, 597.0, 597.0, 597.0, 597.0, 596.0, 596.0, 596.0, 597.0, 596.0, 598.0, 599.0, 599.0, 598.0, 598.0, 597.0, 596.0, 596.0, 596.0, 597.0, 598.0, 598.0, 599.0, 599.0, 599.0, 599.0, 600.0, 600.0, 600.0, 600.0, 599.0, 599.0, 598.0, 599.0, 600.0, 600.0, 600.0, 600.0, 599.0, 600.0, 600.0, 600.0, 600.0, 600.0, 601.0, 601.0, 601.0, 601.0, 601.0, 600.0, 600.0, 600.0, 600.0, 599.0, 599.0, 598.0, 597.0, 598.0, 597.0, 598.0, 598.0],
      "WindowWidth": [1297.0, 1288.0, 1282.0, 1280.0, 1280.0, 1279.0, 1279.0, 1280.0, 1280.0, 1281.0, 1280.0, 1282.0, 1284.0, 1285.0, 1286.0, 1286.0, 1287.0, 1284.0, 1284.0, 1283.0, 1283.0, 1281.0, 1281.0, 1282.0, 1282.0, 1281.0, 1282.0, 1279.0, 1279.0, 1279.0, 1278.0, 1278.0, 1279.0, 1279.0, 1279.0, 1279.0, 1278.0, 1279.0, 1281.0, 1280.0, 1281.0, 1282.0, 1279.0, 1278.0, 1277.0, 1277.0, 1279.0, 1277.0, 1277.0, 1279.0, 1278.0, 1280.0, 1281.0, 1281.0, 1281.0, 1280.0, 1279.0, 1279.0, 1280.0, 1282.0, 1285.0, 1287.0, 1286.0, 1285.0, 1283.0, 1280.0, 1280.0, 1280.0, 1280.0, 1279.0, 1279.0, 1281.0, 1280.0, 1281.0, 1282.0, 1281.0, 1281.0, 1282.0, 1281.0, 1280.0, 1280.0, 1280.0, 1278.0, 1278.0, 1277.0, 1277.0, 1279.0, 1279.0, 1278.0, 1279.0, 1278.0, 1276.0, 1275.0, 1274.0, 1275.0, 1274.0, 1275.0, 1274.0, 1276.0, 1277.0, 1278.0, 1278.0, 1277.0, 1279.0, 1279.0, 1277.0, 1275.0, 1277.0, 1275.0, 1274.0, 1275.0, 1275.0, 1276.0, 1277.0, 1277.0, 1274.0, 1274.0, 1273.0, 1271.0, 1271.0, 1270.0, 1270.0, 1270.0, 1268.0, 1268.0, 1269.0, 1270.0, 1273.0, 1274.0, 1275.0, 1275.0, 1275.0, 1274.0, 1274.0, 1272.0, 1272.0, 1271.0, 1271.0, 1271.0, 1271.0, 1269.0, 1270.0, 1271.0, 1271.0, 1274.0, 1276.0, 1276.0, 1275.0, 1274.0, 1272.0, 1271.0, 1271.0, 1271.0, 1273.0, 1276.0, 1276.0, 1278.0, 1277.0, 1277.0, 1278.0, 1279.0, 1280.0, 1280.0, 1279.0, 1278.0, 1277.0, 1275.0, 1278.0, 1279.0, 1279.0, 1279.0, 1279.0, 1278.0, 1280.0, 1279.0, 1279.0, 1281.0, 1280.0, 1281.0, 1282.0, 1281.0, 1281.0, 1281.0, 1279.0, 1279.0, 1279.0, 1279.0, 1277.0, 1277.0, 1274.0, 1274.0, 1274.0, 1273.0, 1274.0, 1274.0]
    },
    "slices": {}
  }
}