{
  "AcquisitionMatrixPE": 88,
  "AcquisitionNumber": 1,
  "AcquisitionTime": "12:59:38.377500",
  "BandwidthPerPixelPhaseEncode": 19.592,
  "BaseResolution": 88,
  "BodyPartExamined": "BRAIN",
  "ConsistencyInfo": "N4_VE11C_LATEST_20160120",
  "ConversionSoftware": "dcm2niix",
  "ConversionSoftwareVersion": "v1.0.20190902",
  "DerivedVendorReportedEchoSpacing": 0.000580014,
  "DeviceSerialNumber": "67050",
  "DwellTime": 2.6e-06,
  "EchoTime": 0.033,
  "EchoTrainLength": 88,
  "EffectiveEchoSpacing": 0.000580014,
  "FlipAngle": 62,
  "ImageOrientationPatientDICOM": [0.988856, -0.0243481, 0.146871, 0.0500932, 0.983429, -0.174237],
  "ImageType": [
    "ORIGINAL",
    "PRIMARY",
    "M",
    "ND",
    "MOSAIC"
],
  "ImagingFrequency": 123.251,
  "InPlanePhaseEncodingDirectionDICOM": "COL",
  "InstitutionAddress": "Olive_Street_60_Providence_RI_US_02912",
  "InstitutionName": "BROWN_UNIVERSITY_MRF",
  "InstitutionalDepartmentName": "Department",
  "MRAcquisitionType": "2D",
  "MagneticFieldStrength": 3,
  "Manufacturer": "Siemens",
  "ManufacturersModelName": "Prisma_fit",
  "Modality": "MR",
  "MultibandAccelerationFactor": 4,
  "PartialFourier": 1,
  "PatientPosition": "HFS",
  "PercentPhaseFOV": 100,
  "PhaseEncodingDirection": "j-",
  "PhaseEncodingSteps": 88,
  "PhaseResolution": 1,
  "PixelBandwidth": 2185,
  "ProcedureStepDescription": "ASHENHAV_1222",
  "ProtocolName": "func-bold_task-RDMmotion_run-01",
  "PulseSequenceDetails": "%SiemensSeq%_ep2d_bold",
  "ReceiveCoilActiveElements": "HC1-7;NC1",
  "ReceiveCoilName": "HeadNeck_64",
  "ReconMatrixPE": 88,
  "RefLinesPE": 8,
  "RepetitionTime": 1.2,
  "SAR": 0.0541391,
  "ScanOptions": "FS",
  "ScanningSequence": "EP",
  "SequenceName": "_epfid2d1_88",
  "SequenceVariant": "SK",
  "SeriesDescription": "func-bold_task-RDMmotion_run-01",
  "SeriesNumber": 7,
  "ShimSetting": [1794, -9124, 4395, 416, 3, -419, -67, -127],
  "SliceThickness": 2.4,
  "SliceTiming": [0.55, 0, 0.6275, 0.0775, 0.7075, 0.1575, 0.785, 0.235, 0.865, 0.315, 0.9425, 0.3925, 1.0225, 0.47, 1.1, 0.55, 0, 0.6275, 0.0775, 0.7075, 0.1575, 0.785, 0.235, 0.865, 0.315, 0.9425, 0.3925, 1.0225, 0.47, 1.1, 0.55, 0, 0.6275, 0.0775, 0.7075, 0.1575, 0.785, 0.235, 0.865, 0.315, 0.9425, 0.3925, 1.0225, 0.47, 1.1, 0.55, 0, 0.6275, 0.0775, 0.7075, 0.1575, 0.785, 0.235, 0.865, 0.315, 0.9425, 0.3925, 1.0225, 0.47, 1.1],
  "SoftwareVersions": "syngo_MR_E11",
  "SpacingBetweenSlices": 2.4,
  "StationName": "AWP67050",
  "TaskName": "RDMmotion",
  "TotalReadoutTime": 0.0504612,
  "TxRefAmp": 215.57,
  "dcmmeta_affine": [
    [-2.371006965637207, 0.1201099082827568, 0.33646735548973083, 94.85494232177734],
    [0.05838017538189888, 2.3579940795898438, -0.4311659634113312, -83.82442474365234],
    [0.3521563708782196, 0.41777268052101135, 2.3368537425994873, -85.03907012939453],
    [0.0, 0.0, 0.0, 1.0]
],
  "dcmmeta_reorient_transform": [
    [0.0, -1.0, 0.0, 87.0],
    [1.0, 0.0, 0.0, 0.0],
    [0.0, 0.0, 1.0, 0.0],
    [0.0, 0.0, 0.0, 1.0]
],
  "dcmmeta_shape": [88, 88, 60, 125],
  "dcmmeta_slice_dim": 2,
  "dcmmeta_version": 0.6,
  "global": {
    "const": {
      "AcquisitionMatrix": [88, 0, 0, 88],
      "AngioFlag": "N",
      "BitsAllocated": 16,
      "BitsStored": 12,
      "BodyPartExamined": "BRAIN",
      "Columns": 704,
      "DeidentificationMethodCodeSequence": [
        {
          "CodeMeaning": "XNAT DicomEdit 6 Script",
          "CodeValue": "3",
          "CodingSchemeDesignator": "XNAT",
          "CodingSchemeVersion": "1.0"}
],
      "EchoNumbers": 1,
      "EchoTime": 33.0,
      "EchoTrainLength": 88,
      "FlipAngle": 62.0,
      "HighBit": 11,
      "ImageOrientationPatient": [0.98885595786801, -0.0243481295229, 0.14687090650529, 0.05009323098221, 0.98342877403154, -0.1742369496306],
      "ImagePositionPatient": [-872.56847479931, -829.60209909805, -28.48302349509],
      "ImageType": [
        "ORIGINAL",
        "PRIMARY",
        "M",
        "ND",
        "MOSAIC"
],
      "ImagedNucleus": "1H",
      "ImagingFrequency": 123.250757,
      "InPlanePhaseEncodingDirection": "COL",
      "MRAcquisitionType": "2D",
      "MagneticFieldStrength": 3.0,
      "Manufacturer": "SIEMENS",
      "ManufacturerModelName": "Prisma_fit",
      "Modality": "MR",
      "NumberOfAverages": 1.0,
      "NumberOfPhaseEncodingSteps": 88,
      "PercentPhaseFieldOfView": 100.0,
      "PercentSampling": 100.0,
      "PerformedProcedureStepStartTime": "125256.752000",
      "PhotometricInterpretation": "MONOCHROME2",
      "PixelBandwidth": 2185.0,
      "PixelRepresentation": 0,
      "PixelSpacing": [2.3977272510529, 2.3977272510529],
      "ProtocolName": "func-bold_task-RDMmotion_run-01",
      "RepetitionTime": 1200.0,
      "Rows": 704,
      "SAR": 0.05413913239686,
      "SamplesPerPixel": 1,
      "ScanOptions": "FS",
      "ScanningSequence": "EP",
      "SequenceName": "*epfid2d1_88",
      "SequenceVariant": "SK",
      "SeriesDescription": "func-bold_task-RDMmotion_run-01",
      "SeriesNumber": 7,
      "SeriesTime": "130015.012000",
      "SliceLocation": -54.444183494684,
      "SliceThickness": 2.4000000953674,
      "SmallestImagePixelValue": 0,
      "SoftwareVersions": "syngo MR E11",
      "SpacingBetweenSlices": 2.4000000205378,
      "SpecificCharacterSet": "ISO_IR 100",
      "StudyID": "1",
      "StudyTime": "125256.653000",
      "TransmitCoilName": "Body",
      "VariableFlipAngleFlag": "N",
      "WindowCenterWidthExplanation": "Algo1",
      "dBdt": 0.0},
    "slices": {}
  },
  "time": {
    "samples": {
      "AcquisitionNumber": [1, 2, 3, 4, 5, 6, 7, 8, 9, 10, 11, 12, 13, 14, 15, 16, 17, 18, 19, 20, 21, 22, 23, 24, 25, 26, 27, 28, 29, 30, 31, 32, 33, 34, 35, 36, 37, 38, 39, 40, 41, 42, 43, 44, 45, 46, 47, 48, 49, 50, 51, 52, 53, 54, 55, 56, 57, 58, 59, 60, 61, 62, 63, 64, 65, 66, 67, 68, 69, 70, 71, 72, 73, 74, 75, 76, 77, 78, 79, 80, 81, 82, 83, 84, 85, 86, 87, 88, 89, 90, 91, 92, 93, 94, 95, 96, 97, 98, 99, 100, 101, 102, 103, 104, 105, 106, 107, 108, 109, 110, 111, 112, 113, 114, 115, 116, 117, 118, 119, 120, 121, 122, 123, 124, 125],
      "AcquisitionTime": ["125938.377500", "125939.577500", "125940.777500", "125941.977500", "125943.177500", "125944.377500", "125945.577500", "125946.777500", "125947.977500", "125949.177500", "125950.377500", "125951.577500", "125952.777500", "125953.977500", "125955.177500", "125956.377500", "125957.577500", "125958.777500", "125959.977500", "130001.177500", "130002.377500", "130003.577500", "130004.777500", "130005.977500", "130007.177500", "130008.377500", "130009.577500", "130010.777500", "130011.977500", "130013.177500", "130014.377500", "130015.577500", "130016.777500", "130017.977500", "130019.177500", "130020.377500", "130021.577500", "130022.777500", "130023.977500", "130025.177500", "130026.377500", "130027.577500", "130028.777500", "130029.977500", "130031.177500", "130032.377500", "130033.577500", "130034.777500", "130035.977500", "130037.177500", "130038.377500", "130039.577500", "130040.777500", "130041.977500", "130043.177500", "130044.377500", "130045.577500", "130046.777500", "130047.977500", "130049.177500", "130050.377500", "130051.577500", "130052.777500", "130053.977500", "130055.177500", "130056.377500", "130057.577500", "130058.777500", "130059.977500", "130101.177500", "130102.377500", "130103.577500", "130104.777500", "130105.977500", "130107.177500", "130108.377500", "130109.577500", "130110.777500", "130111.977500", "130113.177500", "130114.377500", "130115.577500", "130116.777500", "130117.977500", "130119.177500", "130120.377500", "130121.577500", "130122.777500", "130123.977500", "130125.177500", "130126.377500", "130127.577500", "130128.777500", "130129.977500", "130131.177500", "130132.377500", "130133.577500", "130134.777500", "130135.977500", "130137.177500", "130138.377500", "130139.577500", "130140.777500", "130141.977500", "130143.177500", "130144.377500", "130145.577500", "130146.777500", "130147.977500", "130149.177500", "130150.377500", "130151.577500", "130152.777500", "130153.977500", "130155.177500", "130156.377500", "130157.577500", "130158.777500", "130159.977500", "130201.177500", "130202.377500", "130203.577500", "130204.777500", "130205.977500", "130207.177500"],
      "ContentTime": ["130015.015000", "130015.019000", "130015.021000", "130015.024000", "130015.027000", "130015.035000", "130015.038000", "130015.040000", "130015.043000", "130015.046000", "130015.048000", "130015.051000", "130015.054000", "130015.057000", "130015.059000", "130015.062000", "130015.064000", "130015.067000", "130015.070000", "130015.072000", "130015.075000", "130015.078000", "130015.080000", "130015.083000", "130015.086000", "130015.088000", "130015.091000", "130015.094000", "130015.096000", "130015.099000", "130055.009000", "130055.012000", "130055.015000", "130055.017000", "130055.020000", "130055.022000", "130055.025000", "130055.027000", "130055.030000", "130055.033000", "130055.035000", "130055.047000", "130055.050000", "130055.052000", "130055.055000", "130055.057000", "130055.060000", "130055.063000", "130055.065000", "130055.068000", "130055.070000", "130055.073000", "130055.075000", "130055.078000", "130055.080000", "130055.083000", "130055.085000", "130055.088000", "130055.091000", "130055.093000", "130055.096000", "130055.098000", "130055.101000", "130135.010000", "130135.012000", "130135.015000", "130135.018000", "130135.020000", "130135.023000", "130135.026000", "130135.028000", "130135.031000", "130135.033000", "130135.036000", "130135.038000", "130135.041000", "130135.043000", "130135.046000", "130135.049000", "130135.051000", "130135.054000", "130135.056000", "130135.059000", "130135.062000", "130135.064000", "130135.071000", "130135.074000", "130135.076000", "130135.079000", "130135.081000", "130135.084000", "130135.086000", "130135.089000", "130135.092000", "130135.094000", "130135.097000", "130135.099000", "130208.516000", "130208.519000", "130208.521000", "130208.524000", "130208.526000", "130208.529000", "130208.532000", "130208.534000", "130208.537000", "130208.540000", "130208.542000", "130208.545000", "130208.547000", "130208.550000", "130208.552000", "130208.555000", "130208.558000", "130208.560000", "130208.563000", "130208.565000", "130208.568000", "130208.570000", "130208.573000", "130208.576000", "130208.578000", "130208.581000", "130208.583000", "130208.586000"],
      "InstanceCreationTime": ["130015.015000", "130015.019000", "130015.021000", "130015.024000", "130015.027000", "130015.035000", "130015.038000", "130015.040000", "130015.043000", "130015.046000", "130015.048000", "130015.051000", "130015.054000", "130015.057000", "130015.059000", "130015.062000", "130015.064000", "130015.067000", "130015.070000", "130015.072000", "130015.075000", "130015.078000", "130015.080000", "130015.083000", "130015.086000", "130015.088000", "130015.091000", "130015.094000", "130015.096000", "130015.099000", "130055.009000", "130055.012000", "130055.015000", "130055.017000", "130055.020000", "130055.022000", "130055.025000", "130055.027000", "130055.030000", "130055.033000", "130055.035000", "130055.047000", "130055.050000", "130055.052000", "130055.055000", "130055.057000", "130055.060000", "130055.063000", "130055.065000", "130055.068000", "130055.070000", "130055.073000", "130055.075000", "130055.078000", "130055.080000", "130055.083000", "130055.085000", "130055.088000", "130055.091000", "130055.093000", "130055.096000", "130055.098000", "130055.101000", "130135.010000", "130135.012000", "130135.015000", "130135.018000", "130135.020000", "130135.023000", "130135.026000", "130135.028000", "130135.031000", "130135.033000", "130135.036000", "130135.038000", "130135.041000", "130135.043000", "130135.046000", "130135.049000", "130135.051000", "130135.054000", "130135.056000", "130135.059000", "130135.062000", "130135.064000", "130135.071000", "130135.074000", "130135.076000", "130135.079000", "130135.081000", "130135.084000", "130135.086000", "130135.089000", "130135.092000", "130135.094000", "130135.097000", "130135.099000", "130208.516000", "130208.519000", "130208.521000", "130208.524000", "130208.526000", "130208.529000", "130208.532000", "130208.534000", "130208.537000", "130208.540000", "130208.542000", "130208.545000", "130208.547000", "130208.550000", "130208.552000", "130208.555000", "130208.558000", "130208.560000", "130208.563000", "130208.565000", "130208.568000", "130208.570000", "130208.573000", "130208.576000", "130208.578000", "130208.581000", "130208.583000", "130208.586000"],
      "InstanceNumber": [1, 2, 3, 4, 5, 6, 7, 8, 9, 10, 11, 12, 13, 14, 15, 16, 17, 18, 19, 20, 21, 22, 23, 24, 25, 26, 27, 28, 29, 30, 31, 32, 33, 34, 35, 36, 37, 38, 39, 40, 41, 42, 43, 44, 45, 46, 47, 48, 49, 50, 51, 52, 53, 54, 55, 56, 57, 58, 59, 60, 61, 62, 63, 64, 65, 66, 67, 68, 69, 70, 71, 72, 73, 74, 75, 76, 77, 78, 79, 80, 81, 82, 83, 84, 85, 86, 87, 88, 89, 90, 91, 92, 93, 94, 95, 96, 97, 98, 99, 100, 101, 102, 103, 104, 105, 106, 107, 108, 109, 110, 111, 112, 113, 114, 115, 116, 117, 118, 119, 120, 121, 122, 123, 124, 125],
      "LargestImagePixelValue": [2287, 2167, 2115, 2100, 2069, 2058, 2055, 2044, 2042, 2059, 2022, 2044, 2011, 2039, 2031, 2044, 2020, 2010, 2037, 2013, 2037, 2029, 2025, 2021, 2021, 2025, 2046, 2020, 2013, 2025, 2030, 2026, 2028, 2030, 2022, 2026, 2031, 2022, 2034, 2048, 2057, 2030, 2058, 2051, 2036, 2039, 2048, 2034, 2032, 2032, 2025, 2040, 2040, 2020, 2030, 2042, 2027, 2056, 2036, 2062, 2045, 2025, 2036, 2047, 2055, 2066, 2059, 2048, 2061, 2047, 2061, 2049, 2050, 2034, 2039, 2031, 2052, 2043, 2037, 2051, 2042, 2041, 2043, 2045, 2046, 2037, 2048, 2025, 2039, 2034, 2022, 2036, 2020, 2026, 2024, 2012, 2022, 2024, 2031, 2013, 2012, 2031, 2034, 2016, 2032, 2026, 2015, 2033, 2027, 2021, 2027, 2014, 2011, 2002, 2024, 2026, 2018, 2005, 2004, 2013, 2004, 2003, 2009, 2017, 2003],
      "WindowCenter": [610.0, 606.0, 605.0, 603.0, 603.0, 603.0, 603.0, 603.0, 603.0, 602.0, 602.0, 602.0, 602.0, 602.0, 602.0, 602.0, 602.0, 601.0, 601.0, 602.0, 602.0, 602.0, 602.0, 602.0, 601.0, 602.0, 602.0, 602.0, 602.0, 602.0, 602.0, 602.0, 602.0, 602.0, 602.0, 602.0, 602.0, 602.0, 602.0, 602.0, 602.0, 602.0, 602.0, 602.0, 602.0, 602.0, 602.0, 602.0, 601.0, 601.0, 601.0, 601.0, 601.0, 600.0, 601.0, 601.0, 600.0, 601.0, 601.0, 601.0, 601.0, 601.0, 602.0, 602.0, 602.0, 602.0, 602.0, 602.0, 603.0, 602.0, 603.0, 603.0, 603.0, 602.0, 602.0, 602.0, 601.0, 601.0, 601.0, 601.0, 601.0, 602.0, 602.0, 601.0, 600.0, 599.0, 599.0, 598.0, 599.0, 599.0, 598.0, 599.0, 599.0, 601.0, 601.0, 601.0, 601.0, 601.0, 601.0, 600.0, 600.0, 601.0, 601.0, 601.0, 601.0, 601.0, 601.0, 601.0, 601.0, 601.0, 601.0, 601.0, 601.0, 601.0, 601.0, 601.0, 601.0, 600.0, 600.0, 601.0, 601.0, 601.0, 601.0, 601.0, 601.0],
      "WindowWidth": [1305.0, 1295.0, 1291.0, 1287.0, 1286.0, 1286.0, 1286.0, 1285.0, 1285.0, 1285.0, 1283.0, 1284.0, 1283.0, 1284.0, 1284.0, 1284.0, 1284.0, 1282.0, 1283.0, 1283.0, 1285.0, 1285.0, 1284.0, 1284.0, 1283.0, 1283.0, 1284.0, 1283.0, 1284.0, 1283.0, 1284.0, 1284.0, 1283.0, 1284.0, 1283.0, 1284.0, 1284.0, 1283.0, 1285.0, 1285.0, 1284.0, 1285.0, 1285.0, 1284.0, 1284.0, 1284.0, 1285.0, 1284.0, 1283.0, 1283.0, 1282.0, 1281.0, 1282.0, 1280.0, 1281.0, 1281.0, 1280.0, 1281.0, 1281.0, 1282.0, 1283.0, 1282.0, 1284.0, 1285.0, 1285.0, 1285.0, 1283.0, 1284.0, 1286.0, 1285.0, 1287.0, 1286.0, 1287.0, 1285.0, 1285.0, 1283.0, 1283.0, 1282.0, 1281.0, 1282.0, 1283.0, 1284.0, 1283.0, 1281.0, 1279.0, 1278.0, 1277.0, 1276.0, 1276.0, 1276.0, 1276.0, 1276.0, 1278.0, 1282.0, 1283.0, 1282.0, 1282.0, 1281.0, 1281.0, 1281.0, 1279.0, 1281.0, 1281.0, 1281.0, 1283.0, 1282.0, 1282.0, 1283.0, 1282.0, 1282.0, 1282.0, 1283.0, 1283.0, 1282.0, 1283.0, 1282.0, 1281.0, 1280.0, 1280.0, 1282.0, 1282.0, 1282.0, 1283.0, 1282.0, 1282.0]
    },
    "slices": {}
  }
}