{
  "AcquisitionMatrixPE": 88,
  "AcquisitionNumber": 1,
  "AcquisitionTime": "12:18:48.217500",
  "BandwidthPerPixelPhaseEncode": 19.592,
  "BaseResolution": 88,
  "BodyPartExamined": "BRAIN",
  "ConsistencyInfo": "N4_VE11C_LATEST_20160120",
  "ConversionSoftware": "dcm2niix",
  "ConversionSoftwareVersion": "v1.0.20190902",
  "DerivedVendorReportedEchoSpacing": 0.000580014,
  "DeviceSerialNumber": "67050",
  "DwellTime": 2.6e-06,
  "EchoTime": 0.033,
  "EchoTrainLength": 88,
  "EffectiveEchoSpacing": 0.000580014,
  "FlipAngle": 62,
  "ImageOrientationPatientDICOM": [0.999162, 0.0322067, 0.0252737, -0.0277346, 0.986599, -0.16079],
  "ImageType": [
    "ORIGINAL",
    "PRIMARY",
    "M",
    "ND",
    "MOSAIC"
],
  "ImagingFrequency": 123.251,
  "InPlanePhaseEncodingDirectionDICOM": "COL",
  "InstitutionAddress": "Olive_Street_60_Providence_RI_US_02912",
  "InstitutionName": "BROWN_UNIVERSITY_MRF",
  "InstitutionalDepartmentName": "Department",
  "MRAcquisitionType": "2D",
  "MagneticFieldStrength": 3,
  "Manufacturer": "Siemens",
  "ManufacturersModelName": "Prisma_fit",
  "Modality": "MR",
  "MultibandAccelerationFactor": 4,
  "PartialFourier": 1,
  "PatientPosition": "HFS",
  "PercentPhaseFOV": 100,
  "PhaseEncodingDirection": "j-",
  "PhaseEncodingSteps": 88,
  "PhaseResolution": 1,
  "PixelBandwidth": 2185,
  "ProcedureStepDescription": "ASHENHAV_1222",
  "ProtocolName": "func-bold_task-RDMmotion_run-04",
  "PulseSequenceDetails": "%SiemensSeq%_ep2d_bold",
  "ReceiveCoilActiveElements": "HC1-7",
  "ReceiveCoilName": "HeadNeck_64",
  "ReconMatrixPE": 88,
  "RefLinesPE": 8,
  "RepetitionTime": 1.2,
  "SAR": 0.0513239,
  "ScanOptions": "FS",
  "ScanningSequence": "EP",
  "SequenceName": "_epfid2d1_88",
  "SequenceVariant": "SK",
  "SeriesDescription": "func-bold_task-RDMmotion_run-04",
  "SeriesNumber": 13,
  "ShimSetting": [1767, -9057, 4450, 426, -56, -141, -82, 20],
  "SliceThickness": 2.4,
  "SliceTiming": [0.55, 0, 0.6275, 0.0775, 0.7075, 0.1575, 0.785, 0.235, 0.865, 0.3125, 0.9425, 0.3925, 1.0225, 0.47, 1.1, 0.55, 0, 0.6275, 0.0775, 0.7075, 0.1575, 0.785, 0.235, 0.865, 0.3125, 0.9425, 0.3925, 1.0225, 0.47, 1.1, 0.55, 0, 0.6275, 0.0775, 0.7075, 0.1575, 0.785, 0.235, 0.865, 0.3125, 0.9425, 0.3925, 1.0225, 0.47, 1.1, 0.55, 0, 0.6275, 0.0775, 0.7075, 0.1575, 0.785, 0.235, 0.865, 0.3125, 0.9425, 0.3925, 1.0225, 0.47, 1.1],
  "SoftwareVersions": "syngo_MR_E11",
  "SpacingBetweenSlices": 2.4,
  "StationName": "AWP67050",
  "TaskName": "RDMmotion",
  "TotalReadoutTime": 0.0504612,
  "TxRefAmp": 218.178,
  "dcmmeta_affine": [
    [-2.395717144012451, -0.06649994850158691, 0.07227249443531036, 112.29190826416016],
    [-0.07722286134958267, 2.3655951023101807, -0.3838900029659271, -84.8451919555664],
    [0.060599494725465775, 0.38553038239479065, 2.3679959774017334, -72.6089859008789],
    [0.0, 0.0, 0.0, 1.0]
],
  "dcmmeta_reorient_transform": [
    [0.0, -1.0, 0.0, 87.0],
    [1.0, 0.0, 0.0, 0.0],
    [0.0, 0.0, 1.0, 0.0],
    [0.0, 0.0, 0.0, 1.0]
],
  "dcmmeta_shape": [88, 88, 60, 125],
  "dcmmeta_slice_dim": 2,
  "dcmmeta_version": 0.6,
  "global": {
    "const": {
      "AcquisitionMatrix": [88, 0, 0, 88],
      "AngioFlag": "N",
      "BitsAllocated": 16,
      "BitsStored": 12,
      "BodyPartExamined": "BRAIN",
      "Columns": 704,
      "DeidentificationMethodCodeSequence": [
        {
          "CodeMeaning": "XNAT DicomEdit 6 Script",
          "CodeValue": "3",
          "CodingSchemeDesignator": "XNAT",
          "CodingSchemeVersion": "1.0"}
],
      "EchoNumbers": 1,
      "EchoTime": 33.0,
      "EchoTrainLength": 88,
      "FlipAngle": 62.0,
      "HighBit": 11,
      "ImageOrientationPatient": [0.99916163255886, 0.03220669045964, 0.02527372374532, -0.0277345769912, 0.98659890153255, -0.1607899273396],
      "ImagePositionPatient": [-823.90528339132, -873.34950338313, 61.010875300192],
      "ImageType": [
        "ORIGINAL",
        "PRIMARY",
        "M",
        "ND",
        "MOSAIC"
],
      "ImagedNucleus": "1H",
      "ImagingFrequency": 123.25052,
      "InPlanePhaseEncodingDirection": "COL",
      "MRAcquisitionType": "2D",
      "MagneticFieldStrength": 3.0,
      "Manufacturer": "SIEMENS",
      "ManufacturerModelName": "Prisma_fit",
      "Modality": "MR",
      "NumberOfAverages": 1.0,
      "NumberOfPhaseEncodingSteps": 88,
      "PercentPhaseFieldOfView": 100.0,
      "PercentSampling": 100.0,
      "PerformedProcedureStepStartTime": "112439.776000",
      "PhotometricInterpretation": "MONOCHROME2",
      "PixelBandwidth": 2185.0,
      "PixelRepresentation": 0,
      "PixelSpacing": [2.3977272510529, 2.3977272510529],
      "ProtocolName": "func-bold_task-RDMmotion_run-04",
      "RepetitionTime": 1200.0,
      "Rows": 704,
      "SAR": 0.05132391624365,
      "SamplesPerPixel": 1,
      "ScanOptions": "FS",
      "ScanningSequence": "EP",
      "SequenceName": "*epfid2d1_88",
      "SequenceVariant": "SK",
      "SeriesDescription": "func-bold_task-RDMmotion_run-04",
      "SeriesNumber": 13,
      "SeriesTime": "121920.432000",
      "SliceLocation": -54.68789509372,
      "SliceThickness": 2.4000000953674,
      "SmallestImagePixelValue": 0,
      "SoftwareVersions": "syngo MR E11",
      "SpacingBetweenSlices": 2.3999999383085,
      "SpecificCharacterSet": "ISO_IR 100",
      "StudyID": "1",
      "StudyTime": "112439.701000",
      "TransmitCoilName": "Body",
      "VariableFlipAngleFlag": "N",
      "WindowCenterWidthExplanation": "Algo1",
      "dBdt": 0.0},
    "slices": {}
  },
  "time": {
    "samples": {
      "AcquisitionNumber": [1, 2, 3, 4, 5, 6, 7, 8, 9, 10, 11, 12, 13, 14, 15, 16, 17, 18, 19, 20, 21, 22, 23, 24, 25, 26, 27, 28, 29, 30, 31, 32, 33, 34, 35, 36, 37, 38, 39, 40, 41, 42, 43, 44, 45, 46, 47, 48, 49, 50, 51, 52, 53, 54, 55, 56, 57, 58, 59, 60, 61, 62, 63, 64, 65, 66, 67, 68, 69, 70, 71, 72, 73, 74, 75, 76, 77, 78, 79, 80, 81, 82, 83, 84, 85, 86, 87, 88, 89, 90, 91, 92, 93, 94, 95, 96, 97, 98, 99, 100, 101, 102, 103, 104, 105, 106, 107, 108, 109, 110, 111, 112, 113, 114, 115, 116, 117, 118, 119, 120, 121, 122, 123, 124, 125],
      "AcquisitionTime": ["121848.217500", "121849.417500", "121850.617500", "121851.817500", "121853.017500", "121854.217500", "121855.417500", "121856.617500", "121857.817500", "121859.017500", "121900.217500", "121901.417500", "121902.617500", "121903.817500", "121905.017500", "121906.217500", "121907.417500", "121908.617500", "121909.817500", "121911.017500", "121912.217500", "121913.417500", "121914.617500", "121915.817500", "121917.017500", "121918.217500", "121919.417500", "121920.617500", "121921.817500", "121923.017500", "121924.217500", "121925.417500", "121926.617500", "121927.817500", "121929.017500", "121930.217500", "121931.417500", "121932.617500", "121933.817500", "121935.017500", "121936.217500", "121937.417500", "121938.617500", "121939.817500", "121941.017500", "121942.217500", "121943.417500", "121944.617500", "121945.817500", "121947.017500", "121948.217500", "121949.417500", "121950.617500", "121951.817500", "121953.017500", "121954.217500", "121955.417500", "121956.617500", "121957.817500", "121959.017500", "122000.217500", "122001.417500", "122002.617500", "122003.817500", "122005.017500", "122006.217500", "122007.417500", "122008.617500", "122009.817500", "122011.017500", "122012.217500", "122013.417500", "122014.617500", "122015.817500", "122017.017500", "122018.217500", "122019.417500", "122020.617500", "122021.817500", "122023.017500", "122024.217500", "122025.417500", "122026.617500", "122027.817500", "122029.017500", "122030.217500", "122031.417500", "122032.617500", "122033.817500", "122035.017500", "122036.217500", "122037.417500", "122038.617500", "122039.817500", "122041.017500", "122042.217500", "122043.417500", "122044.617500", "122045.817500", "122047.017500", "122048.217500", "122049.417500", "122050.617500", "122051.817500", "122053.017500", "122054.217500", "122055.417500", "122056.617500", "122057.817500", "122059.017500", "122100.217500", "122101.417500", "122102.617500", "122103.817500", "122105.017500", "122106.217500", "122107.417500", "122108.617500", "122109.817500", "122111.017500", "122112.217500", "122113.417500", "122114.617500", "122115.817500", "122117.017500"],
      "ContentTime": ["121920.436000", "121920.439000", "121920.446000", "121920.453000", "121920.456000", "121920.458000", "121920.461000", "121920.463000", "121920.466000", "121920.469000", "121920.475000", "121920.478000", "121920.480000", "121920.483000", "121920.486000", "121920.488000", "121920.491000", "121920.493000", "121920.496000", "121920.499000", "121920.501000", "121920.504000", "121920.506000", "121920.509000", "121920.511000", "121920.514000", "122000.433000", "122000.436000", "122000.438000", "122000.441000", "122000.443000", "122000.446000", "122000.448000", "122000.451000", "122000.453000", "122000.457000", "122000.459000", "122000.462000", "122000.464000", "122000.467000", "122000.470000", "122000.472000", "122000.475000", "122000.477000", "122000.480000", "122000.482000", "122000.493000", "122000.495000", "122000.498000", "122000.500000", "122000.503000", "122000.505000", "122000.508000", "122000.511000", "122000.513000", "122000.516000", "122000.519000", "122000.521000", "122000.524000", "122040.431000", "122040.434000", "122040.437000", "122040.439000", "122040.442000", "122040.445000", "122040.447000", "122040.450000", "122040.453000", "122040.455000", "122040.458000", "122040.461000", "122040.463000", "122040.466000", "122040.468000", "122040.471000", "122040.474000", "122040.476000", "122040.479000", "122040.482000", "122040.484000", "122040.487000", "122040.490000", "122040.492000", "122040.495000", "122040.498000", "122040.500000", "122040.503000", "122040.506000", "122040.508000", "122040.511000", "122040.513000", "122040.516000", "122118.868000", "122118.871000", "122118.874000", "122118.877000", "122118.880000", "122118.885000", "122118.888000", "122118.891000", "122118.894000", "122118.896000", "122118.899000", "122118.902000", "122118.904000", "122118.907000", "122118.909000", "122118.912000", "122118.915000", "122118.917000", "122118.920000", "122118.922000", "122118.925000", "122118.928000", "122118.930000", "122118.933000", "122118.935000", "122118.938000", "122118.941000", "122118.943000", "122118.946000", "122118.949000", "122118.951000", "122118.954000", "122118.956000"],
      "InstanceCreationTime": ["121920.436000", "121920.439000", "121920.446000", "121920.453000", "121920.456000", "121920.458000", "121920.461000", "121920.463000", "121920.466000", "121920.469000", "121920.475000", "121920.478000", "121920.480000", "121920.483000", "121920.486000", "121920.488000", "121920.491000", "121920.493000", "121920.496000", "121920.499000", "121920.501000", "121920.504000", "121920.506000", "121920.509000", "121920.511000", "121920.514000", "122000.433000", "122000.436000", "122000.438000", "122000.441000", "122000.443000", "122000.446000", "122000.448000", "122000.451000", "122000.453000", "122000.457000", "122000.459000", "122000.462000", "122000.464000", "122000.467000", "122000.470000", "122000.472000", "122000.475000", "122000.477000", "122000.480000", "122000.482000", "122000.493000", "122000.495000", "122000.498000", "122000.500000", "122000.503000", "122000.505000", "122000.508000", "122000.511000", "122000.513000", "122000.516000", "122000.519000", "122000.521000", "122000.524000", "122040.431000", "122040.434000", "122040.437000", "122040.439000", "122040.442000", "122040.445000", "122040.447000", "122040.450000", "122040.453000", "122040.455000", "122040.458000", "122040.461000", "122040.463000", "122040.466000", "122040.468000", "122040.471000", "122040.474000", "122040.476000", "122040.479000", "122040.482000", "122040.484000", "122040.487000", "122040.490000", "122040.492000", "122040.495000", "122040.498000", "122040.500000", "122040.503000", "122040.506000", "122040.508000", "122040.511000", "122040.513000", "122040.516000", "122118.868000", "122118.871000", "122118.874000", "122118.877000", "122118.880000", "122118.885000", "122118.888000", "122118.891000", "122118.894000", "122118.896000", "122118.899000", "122118.902000", "122118.904000", "122118.907000", "122118.909000", "122118.912000", "122118.915000", "122118.917000", "122118.920000", "122118.922000", "122118.925000", "122118.928000", "122118.930000", "122118.933000", "122118.935000", "122118.938000", "122118.941000", "122118.943000", "122118.946000", "122118.949000", "122118.951000", "122118.954000", "122118.956000"],
      "InstanceNumber": [1, 2, 3, 4, 5, 6, 7, 8, 9, 10, 11, 12, 13, 14, 15, 16, 17, 18, 19, 20, 21, 22, 23, 24, 25, 26, 27, 28, 29, 30, 31, 32, 33, 34, 35, 36, 37, 38, 39, 40, 41, 42, 43, 44, 45, 46, 47, 48, 49, 50, 51, 52, 53, 54, 55, 56, 57, 58, 59, 60, 61, 62, 63, 64, 65, 66, 67, 68, 69, 70, 71, 72, 73, 74, 75, 76, 77, 78, 79, 80, 81, 82, 83, 84, 85, 86, 87, 88, 89, 90, 91, 92, 93, 94, 95, 96, 97, 98, 99, 100, 101, 102, 103, 104, 105, 106, 107, 108, 109, 110, 111, 112, 113, 114, 115, 116, 117, 118, 119, 120, 121, 122, 123, 124, 125],
      "LargestImagePixelValue": [3301, 3309, 3246, 3198, 3214, 3192, 3194, 3105, 3096, 3076, 3105, 3121, 3120, 3089, 3075, 3042, 2996, 2996, 2994, 2998, 2999, 3078, 3098, 3040, 3044, 3038, 3051, 3027, 3008, 3049, 3020, 3062, 3051, 2988, 3002, 3031, 3018, 2953, 3020, 2970, 2953, 3051, 3068, 3071, 3142, 3116, 3075, 3095, 3102, 3079, 3094, 3116, 3104, 3094, 3046, 3069, 3027, 3054, 3082, 3058, 3116, 3177, 3157, 3122, 3094, 3073, 3031, 3050, 3120, 3143, 3140, 3109, 3057, 3076, 3074, 3105, 3105, 3132, 3144, 3117, 3158, 3155, 3175, 3167, 3234, 3232, 3135, 3141, 3077, 3047, 3020, 2988, 3032, 3010, 2978, 2963, 2966, 3009, 3003, 3042, 3054, 2977, 3078, 3055, 2998, 3021, 2991, 3015, 3049, 3024, 3074, 3023, 2925, 2979, 2923, 2918, 2975, 3041, 3075, 3085, 3121, 3134, 3076, 3095, 3085],
      "WindowCenter": [673.0, 672.0, 670.0, 669.0, 669.0, 669.0, 668.0, 667.0, 666.0, 666.0, 666.0, 666.0, 667.0, 666.0, 665.0, 665.0, 664.0, 664.0, 664.0, 664.0, 664.0, 666.0, 667.0, 666.0, 666.0, 666.0, 665.0, 664.0, 664.0, 664.0, 664.0, 665.0, 665.0, 664.0, 665.0, 665.0, 664.0, 664.0, 664.0, 663.0, 663.0, 663.0, 664.0, 665.0, 666.0, 666.0, 666.0, 665.0, 665.0, 665.0, 666.0, 666.0, 666.0, 666.0, 665.0, 665.0, 664.0, 665.0, 665.0, 665.0, 666.0, 666.0, 667.0, 666.0, 665.0, 665.0, 664.0, 665.0, 666.0, 667.0, 667.0, 667.0, 666.0, 666.0, 666.0, 666.0, 666.0, 666.0, 666.0, 666.0, 666.0, 666.0, 667.0, 667.0, 668.0, 669.0, 667.0, 666.0, 665.0, 665.0, 664.0, 663.0, 664.0, 664.0, 663.0, 664.0, 664.0, 664.0, 664.0, 665.0, 666.0, 665.0, 665.0, 665.0, 665.0, 665.0, 665.0, 665.0, 665.0, 664.0, 664.0, 663.0, 662.0, 662.0, 661.0, 662.0, 663.0, 664.0, 665.0, 666.0, 666.0, 666.0, 665.0, 666.0, 665.0],
      "WindowWidth": [1455.0, 1450.0, 1446.0, 1444.0, 1444.0, 1443.0, 1440.0, 1437.0, 1435.0, 1435.0, 1435.0, 1435.0, 1437.0, 1435.0, 1434.0, 1433.0, 1432.0, 1431.0, 1431.0, 1431.0, 1432.0, 1436.0, 1438.0, 1436.0, 1435.0, 1435.0, 1433.0, 1431.0, 1430.0, 1431.0, 1431.0, 1434.0, 1433.0, 1431.0, 1433.0, 1432.0, 1432.0, 1431.0, 1430.0, 1428.0, 1428.0, 1429.0, 1430.0, 1432.0, 1436.0, 1436.0, 1434.0, 1433.0, 1433.0, 1433.0, 1435.0, 1436.0, 1436.0, 1434.0, 1432.0, 1433.0, 1432.0, 1433.0, 1433.0, 1434.0, 1435.0, 1436.0, 1437.0, 1434.0, 1434.0, 1433.0, 1432.0, 1433.0, 1436.0, 1438.0, 1439.0, 1438.0, 1436.0, 1435.0, 1435.0, 1436.0, 1436.0, 1437.0, 1436.0, 1435.0, 1435.0, 1435.0, 1437.0, 1438.0, 1441.0, 1443.0, 1439.0, 1436.0, 1434.0, 1432.0, 1430.0, 1429.0, 1431.0, 1431.0, 1429.0, 1430.0, 1430.0, 1431.0, 1432.0, 1434.0, 1435.0, 1432.0, 1433.0, 1434.0, 1433.0, 1432.0, 1434.0, 1434.0, 1433.0, 1431.0, 1432.0, 1429.0, 1426.0, 1425.0, 1425.0, 1427.0, 1429.0, 1432.0, 1433.0, 1434.0, 1435.0, 1434.0, 1433.0, 1434.0, 1433.0]
    },
    "slices": {}
  }
}