{
  "AcquisitionMatrixPE": 88,
  "AcquisitionNumber": 1,
  "AcquisitionTime": "12:10:4.737500",
  "BandwidthPerPixelPhaseEncode": 19.592,
  "BaseResolution": 88,
  "BodyPartExamined": "BRAIN",
  "ConsistencyInfo": "N4_VE11C_LATEST_20160120",
  "ConversionSoftware": "dcm2niix",
  "ConversionSoftwareVersion": "v1.0.20190902",
  "DerivedVendorReportedEchoSpacing": 0.000580014,
  "DeviceSerialNumber": "67050",
  "DwellTime": 2.6e-06,
  "EchoTime": 0.033,
  "EchoTrainLength": 88,
  "EffectiveEchoSpacing": 0.000580014,
  "FlipAngle": 62,
  "ImageOrientationPatientDICOM": [0.999162, 0.0322067, 0.0252737, -0.0277346, 0.986599, -0.16079],
  "ImageType": [
    "ORIGINAL",
    "PRIMARY",
    "M",
    "ND",
    "MOSAIC"
],
  "ImagingFrequency": 123.251,
  "InPlanePhaseEncodingDirectionDICOM": "COL",
  "InstitutionAddress": "Olive_Street_60_Providence_RI_US_02912",
  "InstitutionName": "BROWN_UNIVERSITY_MRF",
  "InstitutionalDepartmentName": "Department",
  "MRAcquisitionType": "2D",
  "MagneticFieldStrength": 3,
  "Manufacturer": "Siemens",
  "ManufacturersModelName": "Prisma_fit",
  "Modality": "MR",
  "MultibandAccelerationFactor": 4,
  "PartialFourier": 1,
  "PatientPosition": "HFS",
  "PercentPhaseFOV": 100,
  "PhaseEncodingDirection": "j-",
  "PhaseEncodingSteps": 88,
  "PhaseResolution": 1,
  "PixelBandwidth": 2185,
  "ProcedureStepDescription": "ASHENHAV_1222",
  "ProtocolName": "func-bold_task-RDMcolor_run-03",
  "PulseSequenceDetails": "%SiemensSeq%_ep2d_bold",
  "ReceiveCoilActiveElements": "HC1-7",
  "ReceiveCoilName": "HeadNeck_64",
  "ReconMatrixPE": 88,
  "RefLinesPE": 8,
  "RepetitionTime": 1.2,
  "SAR": 0.0518502,
  "ScanOptions": "FS",
  "ScanningSequence": "EP",
  "SequenceName": "_epfid2d1_88",
  "SequenceVariant": "SK",
  "SeriesDescription": "func-bold_task-RDMcolor_run-03",
  "SeriesNumber": 12,
  "ShimSetting": [1767, -9057, 4450, 426, -56, -141, -82, 20],
  "SliceThickness": 2.4,
  "SliceTiming": [0.55, 0, 0.63, 0.0775, 0.7075, 0.1575, 0.785, 0.235, 0.865, 0.315, 0.9425, 0.3925, 1.0225, 0.4725, 1.1, 0.55, 0, 0.63, 0.0775, 0.7075, 0.1575, 0.785, 0.235, 0.865, 0.315, 0.9425, 0.3925, 1.0225, 0.4725, 1.1, 0.55, 0, 0.63, 0.0775, 0.7075, 0.1575, 0.785, 0.235, 0.865, 0.315, 0.9425, 0.3925, 1.0225, 0.4725, 1.1, 0.55, 0, 0.63, 0.0775, 0.7075, 0.1575, 0.785, 0.235, 0.865, 0.315, 0.9425, 0.3925, 1.0225, 0.4725, 1.1],
  "SoftwareVersions": "syngo_MR_E11",
  "SpacingBetweenSlices": 2.4,
  "StationName": "AWP67050",
  "TaskName": "RDMcolor",
  "TotalReadoutTime": 0.0504612,
  "TxRefAmp": 218.178,
  "dcmmeta_affine": [
    [-2.395717144012451, -0.06649994850158691, 0.07227249443531036, 112.29190826416016],
    [-0.07722286134958267, 2.3655951023101807, -0.3838900029659271, -84.8451919555664],
    [0.060599494725465775, 0.38553038239479065, 2.3679959774017334, -72.6089859008789],
    [0.0, 0.0, 0.0, 1.0]
],
  "dcmmeta_reorient_transform": [
    [0.0, -1.0, 0.0, 87.0],
    [1.0, 0.0, 0.0, 0.0],
    [0.0, 0.0, 1.0, 0.0],
    [0.0, 0.0, 0.0, 1.0]
],
  "dcmmeta_shape": [88, 88, 60, 392],
  "dcmmeta_slice_dim": 2,
  "dcmmeta_version": 0.6,
  "global": {
    "const": {
      "AcquisitionMatrix": [88, 0, 0, 88],
      "AngioFlag": "N",
      "BitsAllocated": 16,
      "BitsStored": 12,
      "BodyPartExamined": "BRAIN",
      "Columns": 704,
      "DeidentificationMethodCodeSequence": [
        {
          "CodeMeaning": "XNAT DicomEdit 6 Script",
          "CodeValue": "3",
          "CodingSchemeDesignator": "XNAT",
          "CodingSchemeVersion": "1.0"}
],
      "EchoNumbers": 1,
      "EchoTime": 33.0,
      "EchoTrainLength": 88,
      "FlipAngle": 62.0,
      "HighBit": 11,
      "ImageOrientationPatient": [0.99916163255886, 0.03220669045964, 0.02527372374532, -0.0277345769912, 0.98659890153255, -0.1607899273396],
      "ImagePositionPatient": [-823.90528339132, -873.34950338313, 61.010875300192],
      "ImageType": [
        "ORIGINAL",
        "PRIMARY",
        "M",
        "ND",
        "MOSAIC"
],
      "ImagedNucleus": "1H",
      "ImagingFrequency": 123.250517,
      "InPlanePhaseEncodingDirection": "COL",
      "MRAcquisitionType": "2D",
      "MagneticFieldStrength": 3.0,
      "Manufacturer": "SIEMENS",
      "ManufacturerModelName": "Prisma_fit",
      "Modality": "MR",
      "NumberOfAverages": 1.0,
      "NumberOfPhaseEncodingSteps": 88,
      "PercentPhaseFieldOfView": 100.0,
      "PercentSampling": 100.0,
      "PerformedProcedureStepStartTime": "112439.776000",
      "PhotometricInterpretation": "MONOCHROME2",
      "PixelBandwidth": 2185.0,
      "PixelRepresentation": 0,
      "PixelSpacing": [2.3977272510529, 2.3977272510529],
      "ProtocolName": "func-bold_task-RDMcolor_run-03",
      "RepetitionTime": 1200.0,
      "Rows": 704,
      "SAR": 0.05185021594023,
      "SamplesPerPixel": 1,
      "ScanOptions": "FS",
      "ScanningSequence": "EP",
      "SequenceName": "*epfid2d1_88",
      "SequenceVariant": "SK",
      "SeriesDescription": "func-bold_task-RDMcolor_run-03",
      "SeriesNumber": 12,
      "SeriesTime": "121040.277000",
      "SliceLocation": -54.68789509372,
      "SliceThickness": 2.4000000953674,
      "SmallestImagePixelValue": 0,
      "SoftwareVersions": "syngo MR E11",
      "SpacingBetweenSlices": 2.3999999383085,
      "SpecificCharacterSet": "ISO_IR 100",
      "StudyID": "1",
      "StudyTime": "112439.701000",
      "TransmitCoilName": "Body",
      "VariableFlipAngleFlag": "N",
      "WindowCenterWidthExplanation": "Algo1",
      "dBdt": 0.0},
    "slices": {}
  },
  "time": {
    "samples": {
      "AcquisitionNumber": [1, 2, 3, 4, 5, 6, 7, 8, 9, 10, 11, 12, 13, 14, 15, 16, 17, 18, 19, 20, 21, 22, 23, 24, 25, 26, 27, 28, 29, 30, 31, 32, 33, 34, 35, 36, 37, 38, 39, 40, 41, 42, 43, 44, 45, 46, 47, 48, 49, 50, 51, 52, 53, 54, 55, 56, 57, 58, 59, 60, 61, 62, 63, 64, 65, 66, 67, 68, 69, 70, 71, 72, 73, 74, 75, 76, 77, 78, 79, 80, 81, 82, 83, 84, 85, 86, 87, 88, 89, 90, 91, 92, 93, 94, 95, 96, 97, 98, 99, 100, 101, 102, 103, 104, 105, 106, 107, 108, 109, 110, 111, 112, 113, 114, 115, 116, 117, 118, 119, 120, 121, 122, 123, 124, 125, 126, 127, 128, 129, 130, 131, 132, 133, 134, 135, 136, 137, 138, 139, 140, 141, 142, 143, 144, 145, 146, 147, 148, 149, 150, 151, 152, 153, 154, 155, 156, 157, 158, 159, 160, 161, 162, 163, 164, 165, 166, 167, 168, 169, 170, 171, 172, 173, 174, 175, 176, 177, 178, 179, 180, 181, 182, 183, 184, 185, 186, 187, 188, 189, 190, 191, 192, 193, 194, 195, 196, 197, 198, 199, 200, 201, 202, 203, 204, 205, 206, 207, 208, 209, 210, 211, 212, 213, 214, 215, 216, 217, 218, 219, 220, 221, 222, 223, 224, 225, 226, 227, 228, 229, 230, 231, 232, 233, 234, 235, 236, 237, 238, 239, 240, 241, 242, 243, 244, 245, 246, 247, 248, 249, 250, 251, 252, 253, 254, 255, 256, 257, 258, 259, 260, 261, 262, 263, 264, 265, 266, 267, 268, 269, 270, 271, 272, 273, 274, 275, 276, 277, 278, 279, 280, 281, 282, 283, 284, 285, 286, 287, 288, 289, 290, 291, 292, 293, 294, 295, 296, 297, 298, 299, 300, 301, 302, 303, 304, 305, 306, 307, 308, 309, 310, 311, 312, 313, 314, 315, 316, 317, 318, 319, 320, 321, 322, 323, 324, 325, 326, 327, 328, 329, 330, 331, 332, 333, 334, 335, 336, 337, 338, 339, 340, 341, 342, 343, 344, 345, 346, 347, 348, 349, 350, 351, 352, 353, 354, 355, 356, 357, 358, 359, 360, 361, 362, 363, 364, 365, 366, 367, 368, 369, 370, 371, 372, 373, 374, 375, 376, 377, 378, 379, 380, 381, 382, 383, 384, 385, 386, 387, 388, 389, 390, 391, 392],
      "AcquisitionTime": ["121004.737500", "121005.937500", "121007.137500", "121008.337500", "121009.537500", "121010.737500", "121011.937500", "121013.137500", "121014.337500", "121015.537500", "121016.737500", "121017.937500", "121019.137500", "121020.337500", "121021.537500", "121022.737500", "121023.937500", "121025.137500", "121026.337500", "121027.537500", "121028.737500", "121029.937500", "121031.137500", "121032.337500", "121033.537500", "121034.737500", "121035.937500", "121037.137500", "121038.337500", "121039.537500", "121040.737500", "121041.937500", "121043.137500", "121044.337500", "121045.537500", "121046.737500", "121047.937500", "121049.137500", "121050.337500", "121051.537500", "121052.737500", "121053.937500", "121055.137500", "121056.337500", "121057.537500", "121058.737500", "121059.937500", "121101.137500", "121102.337500", "121103.537500", "121104.737500", "121105.937500", "121107.137500", "121108.337500", "121109.537500", "121110.737500", "121111.937500", "121113.137500", "121114.337500", "121115.537500", "121116.737500", "121117.937500", "121119.137500", "121120.337500", "121121.537500", "121122.737500", "121123.937500", "121125.137500", "121126.337500", "121127.537500", "121128.737500", "121129.937500", "121131.137500", "121132.337500", "121133.537500", "121134.737500", "121135.937500", "121137.137500", "121138.337500", "121139.537500", "121140.737500", "121141.937500", "121143.137500", "121144.337500", "121145.537500", "121146.737500", "121147.937500", "121149.137500", "121150.337500", "121151.537500", "121152.737500", "121153.937500", "121155.137500", "121156.337500", "121157.537500", "121158.737500", "121159.937500", "121201.137500", "121202.337500", "121203.537500", "121204.737500", "121205.937500", "121207.137500", "121208.337500", "121209.537500", "121210.737500", "121211.937500", "121213.137500", "121214.337500", "121215.537500", "121216.737500", "121217.937500", "121219.137500", "121220.337500", "121221.537500", "121222.737500", "121223.937500", "121225.137500", "121226.337500", "121227.537500", "121228.737500", "121229.937500", "121231.137500", "121232.337500", "121233.537500", "121234.737500", "121235.937500", "121237.137500", "121238.337500", "121239.537500", "121240.737500", "121241.937500", "121243.137500", "121244.337500", "121245.537500", "121246.737500", "121247.937500", "121249.137500", "121250.337500", "121251.537500", "121252.737500", "121253.937500", "121255.137500", "121256.337500", "121257.537500", "121258.737500", "121259.937500", "121301.137500", "121302.337500", "121303.537500", "121304.737500", "121305.937500", "121307.137500", "121308.337500", "121309.537500", "121310.737500", "121311.937500", "121313.137500", "121314.337500", "121315.537500", "121316.737500", "121317.937500", "121319.137500", "121320.337500", "121321.537500", "121322.737500", "121323.937500", "121325.137500", "121326.337500", "121327.537500", "121328.737500", "121329.937500", "121331.137500", "121332.337500", "121333.537500", "121334.737500", "121335.937500", "121337.137500", "121338.337500", "121339.537500", "121340.737500", "121341.937500", "121343.137500", "121344.337500", "121345.537500", "121346.737500", "121347.937500", "121349.137500", "121350.337500", "121351.537500", "121352.737500", "121353.937500", "121355.137500", "121356.337500", "121357.537500", "121358.737500", "121359.937500", "121401.137500", "121402.337500", "121403.537500", "121404.737500", "121405.937500", "121407.137500", "121408.337500", "121409.537500", "121410.737500", "121411.937500", "121413.137500", "121414.337500", "121415.537500", "121416.737500", "121417.937500", "121419.137500", "121420.337500", "121421.537500", "121422.737500", "121423.937500", "121425.137500", "121426.337500", "121427.537500", "121428.737500", "121429.937500", "121431.137500", "121432.337500", "121433.537500", "121434.737500", "121435.937500", "121437.137500", "121438.337500", "121439.537500", "121440.737500", "121441.937500", "121443.137500", "121444.337500", "121445.537500", "121446.737500", "121447.937500", "121449.137500", "121450.337500", "121451.537500", "121452.737500", "121453.937500", "121455.137500", "121456.337500", "121457.537500", "121458.737500", "121459.937500", "121501.137500", "121502.337500", "121503.537500", "121504.737500", "121505.937500", "121507.137500", "121508.337500", "121509.537500", "121510.737500", "121511.937500", "121513.137500", "121514.337500", "121515.537500", "121516.737500", "121517.937500", "121519.137500", "121520.337500", "121521.537500", "121522.737500", "121523.937500", "121525.137500", "121526.337500", "121527.537500", "121528.737500", "121529.937500", "121531.137500", "121532.337500", "121533.537500", "121534.737500", "121535.937500", "121537.137500", "121538.337500", "121539.537500", "121540.737500", "121541.937500", "121543.137500", "121544.337500", "121545.537500", "121546.737500", "121547.937500", "121549.137500", "121550.337500", "121551.537500", "121552.737500", "121553.937500", "121555.137500", "121556.337500", "121557.537500", "121558.737500", "121559.937500", "121601.137500", "121602.337500", "121603.537500", "121604.737500", "121605.937500", "121607.137500", "121608.337500", "121609.537500", "121610.737500", "121611.937500", "121613.137500", "121614.337500", "121615.537500", "121616.737500", "121617.937500", "121619.137500", "121620.337500", "121621.537500", "121622.737500", "121623.937500", "121625.137500", "121626.337500", "121627.537500", "121628.737500", "121629.937500", "121631.137500", "121632.337500", "121633.537500", "121634.737500", "121635.937500", "121637.137500", "121638.337500", "121639.537500", "121640.737500", "121641.937500", "121643.137500", "121644.337500", "121645.537500", "121646.737500", "121647.937500", "121649.137500", "121650.337500", "121651.537500", "121652.737500", "121653.937500", "121655.137500", "121656.337500", "121657.537500", "121658.737500", "121659.937500", "121701.137500", "121702.337500", "121703.537500", "121704.737500", "121705.937500", "121707.137500", "121708.337500", "121709.537500", "121710.737500", "121711.937500", "121713.137500", "121714.337500", "121715.537500", "121716.737500", "121717.937500", "121719.137500", "121720.337500", "121721.537500", "121722.737500", "121723.937500", "121725.137500", "121726.337500", "121727.537500", "121728.737500", "121729.937500", "121731.137500", "121732.337500", "121733.537500", "121734.737500", "121735.937500", "121737.137500", "121738.337500", "121739.537500", "121740.737500", "121741.937500", "121743.137500", "121744.337500", "121745.537500", "121746.737500", "121747.937500", "121749.137500", "121750.337500", "121751.537500", "121752.737500", "121753.937500"],
      "ContentTime": ["121040.280000", "121040.283000", "121040.293000", "121040.296000", "121040.298000", "121040.301000", "121040.309000", "121040.311000", "121040.314000", "121040.317000", "121040.319000", "121040.322000", "121040.325000", "121040.327000", "121040.330000", "121040.338000", "121040.340000", "121040.343000", "121040.346000", "121040.348000", "121040.351000", "121040.354000", "121040.365000", "121040.378000", "121040.380000", "121040.383000", "121040.386000", "121040.388000", "121040.391000", "121120.274000", "121120.277000", "121120.280000", "121120.283000", "121120.285000", "121120.288000", "121120.290000", "121120.293000", "121120.295000", "121120.298000", "121120.301000", "121120.303000", "121120.306000", "121120.314000", "121120.316000", "121120.319000", "121120.322000", "121120.324000", "121120.327000", "121120.329000", "121120.332000", "121120.335000", "121120.337000", "121120.340000", "121120.342000", "121120.345000", "121120.357000", "121120.359000", "121120.362000", "121120.365000", "121120.367000", "121120.370000", "121120.373000", "121200.274000", "121200.278000", "121200.280000", "121200.283000", "121200.285000", "121200.288000", "121200.291000", "121200.293000", "121200.296000", "121200.299000", "121200.301000", "121200.304000", "121200.307000", "121200.309000", "121200.312000", "121200.315000", "121200.317000", "121200.320000", "121200.323000", "121200.325000", "121200.328000", "121200.331000", "121200.333000", "121200.336000", "121200.339000", "121200.341000", "121200.344000", "121200.346000", "121200.349000", "121200.351000", "121200.361000", "121200.364000", "121200.366000", "121240.275000", "121240.278000", "121240.281000", "121240.284000", "121240.286000", "121240.289000", "121240.291000", "121240.294000", "121240.297000", "121240.299000", "121240.302000", "121240.304000", "121240.307000", "121240.310000", "121240.312000", "121240.322000", "121240.325000", "121240.328000", "121240.330000", "121240.333000", "121240.335000", "121240.338000", "121240.341000", "121240.343000", "121240.346000", "121240.348000", "121240.351000", "121240.354000", "121240.356000", "121240.359000", "121240.361000", "121240.364000", "121240.367000", "121240.369000", "121320.275000", "121320.277000", "121320.280000", "121320.283000", "121320.285000", "121320.288000", "121320.291000", "121320.293000", "121320.296000", "121320.298000", "121320.301000", "121320.304000", "121320.306000", "121320.309000", "121320.312000", "121320.314000", "121320.317000", "121320.319000", "121320.322000", "121320.325000", "121320.327000", "121320.330000", "121320.332000", "121320.335000", "121320.338000", "121320.340000", "121320.343000", "121320.345000", "121320.348000", "121320.351000", "121320.353000", "121320.356000", "121320.358000", "121400.275000", "121400.278000", "121400.280000", "121400.283000", "121400.285000", "121400.288000", "121400.291000", "121400.293000", "121400.296000", "121400.299000", "121400.301000", "121400.304000", "121400.306000", "121400.309000", "121400.312000", "121400.314000", "121400.317000", "121400.320000", "121400.322000", "121400.325000", "121400.328000", "121400.347000", "121400.350000", "121400.352000", "121400.355000", "121400.357000", "121400.360000", "121400.363000", "121400.365000", "121400.368000", "121400.371000", "121400.373000", "121400.376000", "121440.275000", "121440.277000", "121440.280000", "121440.290000", "121440.292000", "121440.295000", "121440.297000", "121440.300000", "121440.303000", "121440.305000", "121440.308000", "121440.311000", "121440.313000", "121440.316000", "121440.318000", "121440.321000", "121440.324000", "121440.326000", "121440.329000", "121440.332000", "121440.334000", "121440.337000", "121440.339000", "121440.342000", "121440.345000", "121440.347000", "121440.350000", "121440.352000", "121440.355000", "121440.358000", "121440.360000", "121440.363000", "121440.365000", "121440.368000", "121520.276000", "121520.278000", "121520.281000", "121520.284000", "121520.287000", "121520.293000", "121520.295000", "121520.298000", "121520.301000", "121520.304000", "121520.306000", "121520.309000", "121520.312000", "121520.314000", "121520.317000", "121520.319000", "121520.322000", "121520.324000", "121520.327000", "121520.330000", "121520.333000", "121520.335000", "121520.338000", "121520.341000", "121520.343000", "121520.346000", "121520.348000", "121520.351000", "121520.354000", "121520.356000", "121520.359000", "121520.361000", "121520.364000", "121600.275000", "121600.277000", "121600.280000", "121600.283000", "121600.286000", "121600.288000", "121600.291000", "121600.293000", "121600.296000", "121600.298000", "121600.301000", "121600.304000", "121600.307000", "121600.309000", "121600.312000", "121600.314000", "121600.317000", "121600.320000", "121600.322000", "121600.325000", "121600.327000", "121600.330000", "121600.332000", "121600.335000", "121600.338000", "121600.340000", "121600.343000", "121600.345000", "121600.348000", "121600.351000", "121600.353000", "121600.356000", "121600.359000", "121640.275000", "121640.277000", "121640.280000", "121640.283000", "121640.285000", "121640.288000", "121640.290000", "121640.294000", "121640.296000", "121640.299000", "121640.302000", "121640.304000", "121640.307000", "121640.310000", "121640.312000", "121640.315000", "121640.317000", "121640.320000", "121640.323000", "121640.334000", "121640.336000", "121640.339000", "121640.342000", "121640.345000", "121640.347000", "121640.350000", "121640.352000", "121640.355000", "121640.357000", "121640.360000", "121640.363000", "121640.365000", "121640.368000", "121640.370000", "121720.276000", "121720.278000", "121720.281000", "121720.284000", "121720.286000", "121720.289000", "121720.292000", "121720.294000", "121720.297000", "121720.299000", "121720.302000", "121720.305000", "121720.307000", "121720.310000", "121720.313000", "121720.315000", "121720.318000", "121720.320000", "121720.323000", "121720.326000", "121720.328000", "121720.331000", "121720.333000", "121720.336000", "121720.339000", "121720.341000", "121720.344000", "121720.346000", "121720.349000", "121720.352000", "121720.354000", "121720.357000", "121720.359000", "121755.866000", "121755.958000", "121755.961000", "121755.964000", "121755.966000", "121755.969000", "121755.972000", "121755.974000", "121755.977000", "121755.979000", "121755.982000", "121755.984000", "121755.987000", "121755.990000", "121755.992000", "121755.995000", "121755.998000", "121756.001000", "121756.022000", "121756.025000", "121756.027000", "121756.035000", "121756.038000", "121756.040000", "121756.043000", "121756.046000", "121756.048000", "121756.051000", "121756.054000", "121756.056000"],
      "InstanceCreationTime": ["121040.280000", "121040.283000", "121040.293000", "121040.296000", "121040.298000", "121040.301000", "121040.309000", "121040.311000", "121040.314000", "121040.317000", "121040.319000", "121040.322000", "121040.325000", "121040.327000", "121040.330000", "121040.338000", "121040.340000", "121040.343000", "121040.346000", "121040.348000", "121040.351000", "121040.354000", "121040.365000", "121040.378000", "121040.380000", "121040.383000", "121040.386000", "121040.388000", "121040.391000", "121120.274000", "121120.277000", "121120.280000", "121120.283000", "121120.285000", "121120.288000", "121120.290000", "121120.293000", "121120.295000", "121120.298000", "121120.301000", "121120.303000", "121120.306000", "121120.314000", "121120.316000", "121120.319000", "121120.322000", "121120.324000", "121120.327000", "121120.329000", "121120.332000", "121120.335000", "121120.337000", "121120.340000", "121120.342000", "121120.345000", "121120.357000", "121120.359000", "121120.362000", "121120.365000", "121120.367000", "121120.370000", "121120.373000", "121200.274000", "121200.278000", "121200.280000", "121200.283000", "121200.285000", "121200.288000", "121200.291000", "121200.293000", "121200.296000", "121200.299000", "121200.301000", "121200.304000", "121200.307000", "121200.309000", "121200.312000", "121200.315000", "121200.317000", "121200.320000", "121200.323000", "121200.325000", "121200.328000", "121200.331000", "121200.333000", "121200.336000", "121200.339000", "121200.341000", "121200.344000", "121200.346000", "121200.349000", "121200.351000", "121200.361000", "121200.364000", "121200.366000", "121240.275000", "121240.278000", "121240.281000", "121240.284000", "121240.286000", "121240.289000", "121240.291000", "121240.294000", "121240.297000", "121240.299000", "121240.302000", "121240.304000", "121240.307000", "121240.310000", "121240.312000", "121240.322000", "121240.325000", "121240.328000", "121240.330000", "121240.333000", "121240.335000", "121240.338000", "121240.341000", "121240.343000", "121240.346000", "121240.348000", "121240.351000", "121240.354000", "121240.356000", "121240.359000", "121240.361000", "121240.364000", "121240.367000", "121240.369000", "121320.275000", "121320.277000", "121320.280000", "121320.283000", "121320.285000", "121320.288000", "121320.291000", "121320.293000", "121320.296000", "121320.298000", "121320.301000", "121320.304000", "121320.306000", "121320.309000", "121320.312000", "121320.314000", "121320.317000", "121320.319000", "121320.322000", "121320.325000", "121320.327000", "121320.330000", "121320.332000", "121320.335000", "121320.338000", "121320.340000", "121320.343000", "121320.345000", "121320.348000", "121320.351000", "121320.353000", "121320.356000", "121320.358000", "121400.275000", "121400.278000", "121400.280000", "121400.283000", "121400.285000", "121400.288000", "121400.291000", "121400.293000", "121400.296000", "121400.299000", "121400.301000", "121400.304000", "121400.306000", "121400.309000", "121400.312000", "121400.314000", "121400.317000", "121400.320000", "121400.322000", "121400.325000", "121400.328000", "121400.347000", "121400.350000", "121400.352000", "121400.355000", "121400.357000", "121400.360000", "121400.363000", "121400.365000", "121400.368000", "121400.371000", "121400.373000", "121400.376000", "121440.275000", "121440.277000", "121440.280000", "121440.290000", "121440.292000", "121440.295000", "121440.297000", "121440.300000", "121440.303000", "121440.305000", "121440.308000", "121440.311000", "121440.313000", "121440.316000", "121440.318000", "121440.321000", "121440.324000", "121440.326000", "121440.329000", "121440.332000", "121440.334000", "121440.337000", "121440.339000", "121440.342000", "121440.345000", "121440.347000", "121440.350000", "121440.352000", "121440.355000", "121440.358000", "121440.360000", "121440.363000", "121440.365000", "121440.368000", "121520.276000", "121520.278000", "121520.281000", "121520.284000", "121520.287000", "121520.293000", "121520.295000", "121520.298000", "121520.301000", "121520.304000", "121520.306000", "121520.309000", "121520.312000", "121520.314000", "121520.317000", "121520.319000", "121520.322000", "121520.324000", "121520.327000", "121520.330000", "121520.333000", "121520.335000", "121520.338000", "121520.341000", "121520.343000", "121520.346000", "121520.348000", "121520.351000", "121520.354000", "121520.356000", "121520.359000", "121520.361000", "121520.364000", "121600.275000", "121600.277000", "121600.280000", "121600.283000", "121600.286000", "121600.288000", "121600.291000", "121600.293000", "121600.296000", "121600.298000", "121600.301000", "121600.304000", "121600.307000", "121600.309000", "121600.312000", "121600.314000", "121600.317000", "121600.320000", "121600.322000", "121600.325000", "121600.327000", "121600.330000", "121600.332000", "121600.335000", "121600.338000", "121600.340000", "121600.343000", "121600.345000", "121600.348000", "121600.351000", "121600.353000", "121600.356000", "121600.359000", "121640.275000", "121640.277000", "121640.280000", "121640.283000", "121640.285000", "121640.288000", "121640.290000", "121640.294000", "121640.296000", "121640.299000", "121640.302000", "121640.304000", "121640.307000", "121640.310000", "121640.312000", "121640.315000", "121640.317000", "121640.320000", "121640.323000", "121640.334000", "121640.336000", "121640.339000", "121640.342000", "121640.345000", "121640.347000", "121640.350000", "121640.352000", "121640.355000", "121640.357000", "121640.360000", "121640.363000", "121640.365000", "121640.368000", "121640.370000", "121720.276000", "121720.278000", "121720.281000", "121720.284000", "121720.286000", "121720.289000", "121720.292000", "121720.294000", "121720.297000", "121720.299000", "121720.302000", "121720.305000", "121720.307000", "121720.310000", "121720.313000", "121720.315000", "121720.318000", "121720.320000", "121720.323000", "121720.326000", "121720.328000", "121720.331000", "121720.333000", "121720.336000", "121720.339000", "121720.341000", "121720.344000", "121720.346000", "121720.349000", "121720.352000", "121720.354000", "121720.357000", "121720.359000", "121755.866000", "121755.958000", "121755.961000", "121755.964000", "121755.966000", "121755.969000", "121755.972000", "121755.974000", "121755.977000", "121755.979000", "121755.982000", "121755.984000", "121755.987000", "121755.990000", "121755.992000", "121755.995000", "121755.998000", "121756.001000", "121756.022000", "121756.025000", "121756.027000", "121756.035000", "121756.038000", "121756.040000", "121756.043000", "121756.046000", "121756.048000", "121756.051000", "121756.054000", "121756.056000"],
      "InstanceNumber": [1, 2, 3, 4, 5, 6, 7, 8, 9, 10, 11, 12, 13, 14, 15, 16, 17, 18, 19, 20, 21, 22, 23, 24, 25, 26, 27, 28, 29, 30, 31, 32, 33, 34, 35, 36, 37, 38, 39, 40, 41, 42, 43, 44, 45, 46, 47, 48, 49, 50, 51, 52, 53, 54, 55, 56, 57, 58, 59, 60, 61, 62, 63, 64, 65, 66, 67, 68, 69, 70, 71, 72, 73, 74, 75, 76, 77, 78, 79, 80, 81, 82, 83, 84, 85, 86, 87, 88, 89, 90, 91, 92, 93, 94, 95, 96, 97, 98, 99, 100, 101, 102, 103, 104, 105, 106, 107, 108, 109, 110, 111, 112, 113, 114, 115, 116, 117, 118, 119, 120, 121, 122, 123, 124, 125, 126, 127, 128, 129, 130, 131, 132, 133, 134, 135, 136, 137, 138, 139, 140, 141, 142, 143, 144, 145, 146, 147, 148, 149, 150, 151, 152, 153, 154, 155, 156, 157, 158, 159, 160, 161, 162, 163, 164, 165, 166, 167, 168, 169, 170, 171, 172, 173, 174, 175, 176, 177, 178, 179, 180, 181, 182, 183, 184, 185, 186, 187, 188, 189, 190, 191, 192, 193, 194, 195, 196, 197, 198, 199, 200, 201, 202, 203, 204, 205, 206, 207, 208, 209, 210, 211, 212, 213, 214, 215, 216, 217, 218, 219, 220, 221, 222, 223, 224, 225, 226, 227, 228, 229, 230, 231, 232, 233, 234, 235, 236, 237, 238, 239, 240, 241, 242, 243, 244, 245, 246, 247, 248, 249, 250, 251, 252, 253, 254, 255, 256, 257, 258, 259, 260, 261, 262, 263, 264, 265, 266, 267, 268, 269, 270, 271, 272, 273, 274, 275, 276, 277, 278, 279, 280, 281, 282, 283, 284, 285, 286, 287, 288, 289, 290, 291, 292, 293, 294, 295, 296, 297, 298, 299, 300, 301, 302, 303, 304, 305, 306, 307, 308, 309, 310, 311, 312, 313, 314, 315, 316, 317, 318, 319, 320, 321, 322, 323, 324, 325, 326, 327, 328, 329, 330, 331, 332, 333, 334, 335, 336, 337, 338, 339, 340, 341, 342, 343, 344, 345, 346, 347, 348, 349, 350, 351, 352, 353, 354, 355, 356, 357, 358, 359, 360, 361, 362, 363, 364, 365, 366, 367, 368, 369, 370, 371, 372, 373, 374, 375, 376, 377, 378, 379, 380, 381, 382, 383, 384, 385, 386, 387, 388, 389, 390, 391, 392],
