{
  "AcquisitionMatrixPE": 88,
  "AcquisitionNumber": 1,
  "AcquisitionTime": "17:29:43.630000",
  "BandwidthPerPixelPhaseEncode": 19.592,
  "BaseResolution": 88,
  "BodyPartExamined": "BRAIN",
  "ConsistencyInfo": "N4_VE11C_LATEST_20160120",
  "ConversionSoftware": "dcm2niix",
  "ConversionSoftwareVersion": "v1.0.20190902",
  "DerivedVendorReportedEchoSpacing": 0.000580014,
  "DeviceSerialNumber": "67050",
  "DwellTime": 2.6e-06,
  "EchoTime": 0.033,
  "EchoTrainLength": 88,
  "EffectiveEchoSpacing": 0.000580014,
  "FlipAngle": 62,
  "ImageOrientationPatientDICOM": [0.99636, -0.0332566, 0.0784873, 0.0347937, 0.999227, -0.0182979],
  "ImageType": [
    "ORIGINAL",
    "PRIMARY",
    "M",
    "ND",
    "MOSAIC"
],
  "ImagingFrequency": 123.251,
  "InPlanePhaseEncodingDirectionDICOM": "COL",
  "InstitutionAddress": "Olive_Street_60_Providence_RI_US_02912",
  "InstitutionName": "BROWN_UNIVERSITY_MRF",
  "InstitutionalDepartmentName": "Department",
  "MRAcquisitionType": "2D",
  "MagneticFieldStrength": 3,
  "Manufacturer": "Siemens",
  "ManufacturersModelName": "Prisma_fit",
  "Modality": "MR",
  "MultibandAccelerationFactor": 4,
  "PartialFourier": 1,
  "PatientPosition": "HFS",
  "PercentPhaseFOV": 100,
  "PhaseEncodingDirection": "j-",
  "PhaseEncodingSteps": 88,
  "PhaseResolution": 1,
  "PixelBandwidth": 2185,
  "ProcedureStepDescription": "ASHENHAV_1222",
  "ProtocolName": "func-bold_task-RDMcolor_run-03",
  "PulseSequenceDetails": "%SiemensSeq%_ep2d_bold",
  "ReceiveCoilActiveElements": "HC1-7",
  "ReceiveCoilName": "HeadNeck_64",
  "ReconMatrixPE": 88,
  "RefLinesPE": 8,
  "RepetitionTime": 1.2,
  "SAR": 0.0470544,
  "ScanOptions": "FS",
  "ScanningSequence": "EP",
  "SequenceName": "_epfid2d1_88",
  "SequenceVariant": "SK",
  "SeriesDescription": "func-bold_task-RDMcolor_run-03",
  "SeriesNumber": 12,
  "ShimSetting": [1761, -9051, 4189, 364, -95, -156, 33, -30],
  "SliceThickness": 2.4,
  "SliceTiming": [0.5525, 0, 0.63, 0.08, 0.71, 0.1575, 0.7875, 0.2375, 0.865, 0.315, 0.945, 0.395, 1.0225, 0.4725, 1.1025, 0.5525, 0, 0.63, 0.08, 0.71, 0.1575, 0.7875, 0.2375, 0.865, 0.315, 0.945, 0.395, 1.0225, 0.4725, 1.1025, 0.5525, 0, 0.63, 0.08, 0.71, 0.1575, 0.7875, 0.2375, 0.865, 0.315, 0.945, 0.395, 1.0225, 0.4725, 1.1025, 0.5525, 0, 0.63, 0.08, 0.71, 0.1575, 0.7875, 0.2375, 0.865, 0.315, 0.945, 0.395, 1.0225, 0.4725, 1.1025],
  "SoftwareVersions": "syngo_MR_E11",
  "SpacingBetweenSlices": 2.4,
  "StationName": "AWP67050",
  "TaskName": "RDMcolor",
  "TotalReadoutTime": 0.0504612,
  "TxRefAmp": 245.597,
  "dcmmeta_affine": [
    [-2.389000177383423, 0.08342572301626205, 0.18676340579986572, 101.08338928222656],
    [0.07974020391702652, 2.395873785018921, -0.05030921474099159, -101.17401123046875],
    [0.18819110095500946, 0.04387340322136879, 2.392193078994751, -105.59710693359375],
    [0.0, 0.0, 0.0, 1.0]
],
  "dcmmeta_reorient_transform": [
    [0.0, -1.0, 0.0, 87.0],
    [1.0, 0.0, 0.0, 0.0],
    [0.0, 0.0, 1.0, 0.0],
    [0.0, 0.0, 0.0, 1.0]
],
  "dcmmeta_shape": [88, 88, 60, 392],
  "dcmmeta_slice_dim": 2,
  "dcmmeta_version": 0.6,
  "global": {
    "const": {
      "AcquisitionMatrix": [88, 0, 0, 88],
      "AngioFlag": "N",
      "BitsAllocated": 16,
      "BitsStored": 12,
      "BodyPartExamined": "BRAIN",
      "Columns": 704,
      "DeidentificationMethodCodeSequence": [
        {
          "CodeMeaning": "XNAT DicomEdit 6 Script",
          "CodeValue": "3",
          "CodingSchemeDesignator": "XNAT",
          "CodingSchemeVersion": "1.0"}
],
      "EchoNumbers": 1,
      "EchoTime": 33.0,
      "EchoTrainLength": 88,
      "FlipAngle": 62.0,
      "HighBit": 11,
      "ImageOrientationPatient": [0.9963602489556, -0.0332565792711, 0.07848728710001, 0.03479366553274, 0.99922699485552, -0.018297912198],
      "ImagePositionPatient": [-869.84858548764, -820.63615343411, -146.22997722176],
      "ImageType": [
        "ORIGINAL",
        "PRIMARY",
        "M",
        "ND",
        "MOSAIC"
],
      "ImagedNucleus": "1H",
      "ImagingFrequency": 123.25087,
      "InPlanePhaseEncodingDirection": "COL",
      "MRAcquisitionType": "2D",
      "MagneticFieldStrength": 3.0,
      "Manufacturer": "SIEMENS",
      "ManufacturerModelName": "Prisma_fit",
      "Modality": "MR",
      "NumberOfAverages": 1.0,
      "NumberOfPhaseEncodingSteps": 88,
      "PercentPhaseFieldOfView": 100.0,
      "PercentSampling": 100.0,
      "PerformedProcedureStepStartTime": "164923.935000",
      "PhotometricInterpretation": "MONOCHROME2",
      "PixelBandwidth": 2185.0,
      "PixelRepresentation": 0,
      "PixelSpacing": [2.3977272510529, 2.3977272510529],
      "ProtocolName": "func-bold_task-RDMcolor_run-03",
      "RepetitionTime": 1200.0,
      "Rows": 704,
      "SAR": 0.04705440239855,
      "SamplesPerPixel": 1,
      "ScanOptions": "FS",
      "ScanningSequence": "EP",
      "SequenceName": "*epfid2d1_88",
      "SequenceVariant": "SK",
      "SeriesDescription": "func-bold_task-RDMcolor_run-03",
      "SeriesNumber": 12,
      "SeriesTime": "173024.411000",
      "SliceLocation": -95.266678059944,
      "SliceThickness": 2.4000000953674,
      "SmallestImagePixelValue": 0,
      "SoftwareVersions": "syngo MR E11",
      "SpacingBetweenSlices": 2.3999999427365,
      "SpecificCharacterSet": "ISO_IR 100",
      "StudyID": "1",
      "StudyTime": "164923.865000",
      "TransmitCoilName": "Body",
      "VariableFlipAngleFlag": "N",
      "WindowCenterWidthExplanation": "Algo1",
      "dBdt": 0.0},
    "slices": {}
  },
  "time": {
    "samples": {
      "AcquisitionNumber": [1, 2, 3, 4, 5, 6, 7, 8, 9, 10, 11, 12, 13, 14, 15, 16, 17, 18, 19, 20, 21, 22, 23, 24, 25, 26, 27, 28, 29, 30, 31, 32, 33, 34, 35, 36, 37, 38, 39, 40, 41, 42, 43, 44, 45, 46, 47, 48, 49, 50, 51, 52, 53, 54, 55, 56, 57, 58, 59, 60, 61, 62, 63, 64, 65, 66, 67, 68, 69, 70, 71, 72, 73, 74, 75, 76, 77, 78, 79, 80, 81, 82, 83, 84, 85, 86, 87, 88, 89, 90, 91, 92, 93, 94, 95, 96, 97, 98, 99, 100, 101, 102, 103, 104, 105, 106, 107, 108, 109, 110, 111, 112, 113, 114, 115, 116, 117, 118, 119, 120, 121, 122, 123, 124, 125, 126, 127, 128, 129, 130, 131, 132, 133, 134, 135, 136, 137, 138, 139, 140, 141, 142, 143, 144, 145, 146, 147, 148, 149, 150, 151, 152, 153, 154, 155, 156, 157, 158, 159, 160, 161, 162, 163, 164, 165, 166, 167, 168, 169, 170, 171, 172, 173, 174, 175, 176, 177, 178, 179, 180, 181, 182, 183, 184, 185, 186, 187, 188, 189, 190, 191, 192, 193, 194, 195, 196, 197, 198, 199, 200, 201, 202, 203, 204, 205, 206, 207, 208, 209, 210, 211, 212, 213, 214, 215, 216, 217, 218, 219, 220, 221, 222, 223, 224, 225, 226, 227, 228, 229, 230, 231, 232, 233, 234, 235, 236, 237, 238, 239, 240, 241, 242, 243, 244, 245, 246, 247, 248, 249, 250, 251, 252, 253, 254, 255, 256, 257, 258, 259, 260, 261, 262, 263, 264, 265, 266, 267, 268, 269, 270, 271, 272, 273, 274, 275, 276, 277, 278, 279, 280, 281, 282, 283, 284, 285, 286, 287, 288, 289, 290, 291, 292, 293, 294, 295, 296, 297, 298, 299, 300, 301, 302, 303, 304, 305, 306, 307, 308, 309, 310, 311, 312, 313, 314, 315, 316, 317, 318, 319, 320, 321, 322, 323, 324, 325, 326, 327, 328, 329, 330, 331, 332, 333, 334, 335, 336, 337, 338, 339, 340, 341, 342, 343, 344, 345, 346, 347, 348, 349, 350, 351, 352, 353, 354, 355, 356, 357, 358, 359, 360, 361, 362, 363, 364, 365, 366, 367, 368, 369, 370, 371, 372, 373, 374, 375, 376, 377, 378, 379, 380, 381, 382, 383, 384, 385, 386, 387, 388, 389, 390, 391, 392],
      "AcquisitionTime": ["172943.630000", "172944.830000", "172946.030000", "172947.230000", "172948.430000", "172949.630000", "172950.830000", "172952.030000", "172953.230000", "172954.430000", "172955.630000", "172956.830000", "172958.030000", "172959.230000", "173000.430000", "173001.630000", "173002.830000", "173004.030000", "173005.230000", "173006.430000", "173007.630000", "173008.830000", "173010.030000", "173011.230000", "173012.430000", "173013.630000", "173014.830000", "173016.030000", "173017.230000", "173018.430000", "173019.630000", "173020.830000", "173022.030000", "173023.230000", "173024.430000", "173025.630000", "173026.830000", "173028.030000", "173029.230000", "173030.430000", "173031.630000", "173032.830000", "173034.030000", "173035.230000", "173036.430000", "173037.630000", "173038.830000", "173040.030000", "173041.230000", "173042.430000", "173043.630000", "173044.830000", "173046.030000", "173047.230000", "173048.430000", "173049.630000", "173050.830000", "173052.030000", "173053.230000", "173054.430000", "173055.630000", "173056.830000", "173058.030000", "173059.230000", "173100.430000", "173101.630000", "173102.830000", "173104.030000", "173105.230000", "173106.430000", "173107.630000", "173108.830000", "173110.030000", "173111.230000", "173112.430000", "173113.630000", "173114.830000", "173116.030000", "173117.230000", "173118.430000", "173119.630000", "173120.830000", "173122.030000", "173123.230000", "173124.430000", "173125.630000", "173126.830000", "173128.030000", "173129.230000", "173130.430000", "173131.630000", "173132.830000", "173134.030000", "173135.230000", "173136.430000", "173137.630000", "173138.830000", "173140.030000", "173141.230000", "173142.430000", "173143.630000", "173144.830000", "173146.030000", "173147.230000", "173148.430000", "173149.630000", "173150.830000", "173152.030000", "173153.230000", "173154.430000", "173155.630000", "173156.830000", "173158.030000", "173159.230000", "173200.430000", "173201.630000", "173202.830000", "173204.030000", "173205.230000", "173206.430000", "173207.630000", "173208.830000", "173210.030000", "173211.230000", "173212.430000", "173213.630000", "173214.830000", "173216.030000", "173217.230000", "173218.430000", "173219.630000", "173220.830000", "173222.030000", "173223.230000", "173224.430000", "173225.630000", "173226.830000", "173228.030000", "173229.230000", "173230.430000", "173231.630000", "173232.830000", "173234.030000", "173235.230000", "173236.430000", "173237.630000", "173238.830000", "173240.030000", "173241.230000", "173242.430000", "173243.630000", "173244.830000", "173246.030000", "173247.230000", "173248.430000", "173249.630000", "173250.830000", "173252.030000", "173253.230000", "173254.430000", "173255.630000", "173256.830000", "173258.030000", "173259.230000", "173300.430000", "173301.630000", "173302.830000", "173304.030000", "173305.230000", "173306.430000", "173307.630000", "173308.830000", "173310.030000", "173311.230000", "173312.430000", "173313.630000", "173314.830000", "173316.030000", "173317.230000", "173318.430000", "173319.630000", "173320.830000", "173322.030000", "173323.230000", "173324.430000", "173325.630000", "173326.830000", "173328.030000", "173329.230000", "173330.430000", "173331.630000", "173332.830000", "173334.030000", "173335.230000", "173336.430000", "173337.630000", "173338.830000", "173340.030000", "173341.230000", "173342.430000", "173343.630000", "173344.830000", "173346.030000", "173347.230000", "173348.430000", "173349.630000", "173350.830000", "173352.030000", "173353.230000", "173354.430000", "173355.630000", "173356.830000", "173358.030000", "173359.230000", "173400.430000", "173401.630000", "173402.830000", "173404.030000", "173405.230000", "173406.430000", "173407.630000", "173408.830000", "173410.030000", "173411.230000", "173412.430000", "173413.630000", "173414.830000", "173416.030000", "173417.230000", "173418.430000", "173419.630000", "173420.830000", "173422.030000", "173423.230000", "173424.430000", "173425.630000", "173426.830000", "173428.030000", "173429.230000", "173430.430000", "173431.630000", "173432.830000", "173434.030000", "173435.230000", "173436.430000", "173437.630000", "173438.830000", "173440.030000", "173441.230000", "173442.430000", "173443.630000", "173444.830000", "173446.030000", "173447.230000", "173448.430000", "173449.630000", "173450.830000", "173452.030000", "173453.230000", "173454.430000", "173455.630000", "173456.830000", "173458.030000", "173459.230000", "173500.430000", "173501.630000", "173502.830000", "173504.030000", "173505.230000", "173506.430000", "173507.630000", "173508.830000", "173510.030000", "173511.230000", "173512.430000", "173513.630000", "173514.830000", "173516.030000", "173517.230000", "173518.430000", "173519.630000", "173520.830000", "173522.030000", "173523.230000", "173524.430000", "173525.630000", "173526.830000", "173528.030000", "173529.230000", "173530.430000", "173531.630000", "173532.830000", "173534.030000", "173535.230000", "173536.430000", "173537.630000", "173538.830000", "173540.030000", "173541.230000", "173542.430000", "173543.630000", "173544.830000", "173546.030000", "173547.230000", "173548.430000", "173549.630000", "173550.830000", "173552.030000", "173553.230000", "173554.430000", "173555.630000", "173556.830000", "173558.030000", "173559.230000", "173600.430000", "173601.630000", "173602.830000", "173604.030000", "173605.230000", "173606.430000", "173607.630000", "173608.830000", "173610.030000", "173611.230000", "173612.430000", "173613.630000", "173614.830000", "173616.030000", "173617.230000", "173618.430000", "173619.630000", "173620.830000", "173622.030000", "173623.230000", "173624.430000", "173625.630000", "173626.830000", "173628.030000", "173629.230000", "173630.430000", "173631.630000", "173632.830000", "173634.030000", "173635.230000", "173636.430000", "173637.630000", "173638.830000", "173640.030000", "173641.230000", "173642.430000", "173643.630000", "173644.830000", "173646.030000", "173647.230000", "173648.430000", "173649.630000", "173650.830000", "173652.030000", "173653.230000", "173654.430000", "173655.630000", "173656.830000", "173658.030000", "173659.230000", "173700.430000", "173701.630000", "173702.830000", "173704.030000", "173705.230000", "173706.430000", "173707.630000", "173708.830000", "173710.030000", "173711.230000", "173712.430000", "173713.630000", "173714.830000", "173716.030000", "173717.230000", "173718.430000", "173719.630000", "173720.830000", "173722.030000", "173723.230000", "173724.430000", "173725.630000", "173726.830000", "173728.030000", "173729.230000", "173730.430000", "173731.630000", "173732.830000"],
      "ContentTime": ["173024.415000", "173024.419000", "173024.422000", "173024.425000", "173024.428000", "173024.431000", "173024.433000", "173024.436000", "173024.438000", "173024.441000", "173024.444000", "173024.446000", "173024.449000", "173024.451000", "173024.454000", "173024.456000", "173024.459000", "173024.462000", "173024.464000", "173024.467000", "173024.470000", "173024.472000", "173024.475000", "173024.477000", "173024.483000", "173024.486000", "173024.488000", "173024.491000", "173024.494000", "173024.496000", "173024.499000", "173024.502000", "173024.504000", "173104.411000", "173104.414000", "173104.417000", "173104.420000", "173104.423000", "173104.425000", "173104.428000", "173104.431000", "173104.433000", "173104.436000", "173104.439000", "173104.442000", "173104.444000", "173104.447000", "173104.449000", "173104.452000", "173104.455000", "173104.457000", "173104.460000", "173104.462000", "173104.465000", "173104.468000", "173104.470000", "173104.473000", "173104.475000", "173104.478000", "173104.481000", "173104.483000", "173104.486000", "173104.488000", "173104.491000", "173104.494000", "173104.497000", "173104.499000", "173144.411000", "173144.414000", "173144.417000", "173144.420000", "173144.422000", "173144.425000", "173144.427000", "173144.430000", "173144.433000", "173144.435000", "173144.438000", "173144.441000", "173144.443000", "173144.446000", "173144.448000", "173144.451000", "173144.453000", "173144.456000", "173144.459000", "173144.461000", "173144.464000", "173144.466000", "173144.469000", "173144.473000", "173144.476000", "173144.478000", "173144.481000", "173144.483000", "173144.492000", "173144.495000", "173144.497000", "173144.500000", "173144.503000", "173224.411000", "173224.413000", "173224.416000", "173224.419000", "173224.421000", "173224.424000", "173224.426000", "173224.429000", "173224.432000", "173224.434000", "173224.437000", "173224.440000", "173224.442000", "173224.445000", "173224.448000", "173224.450000", "173224.453000", "173224.456000", "173224.459000", "173224.462000", "173224.465000", "173224.467000", "173224.470000", "173224.472000", "173224.475000", "173224.477000", "173224.480000", "173224.483000", "173224.485000", "173224.488000", "173224.490000", "173224.493000", "173224.496000", "173304.412000", "173304.414000", "173304.417000", "173304.420000", "173304.422000", "173304.425000", "173304.428000", "173304.430000", "173304.433000", "173304.436000", "173304.438000", "173304.441000", "173304.443000", "173304.446000", "173304.449000", "173304.451000", "173304.454000", "173304.457000", "173304.459000", "173304.462000", "173304.464000", "173304.467000", "173304.470000", "173304.472000", "173304.475000", "173304.477000", "173304.480000", "173304.483000", "173304.485000", "173304.488000", "173304.490000", "173304.493000", "173304.496000", "173304.498000", "173344.411000", "173344.414000", "173344.424000", "173344.447000", "173344.450000", "173344.452000", "173344.455000", "173344.458000", "173344.460000", "173344.463000", "173344.466000", "173344.468000", "173344.471000", "173344.474000", "173344.477000", "173344.480000", "173344.482000", "173344.485000", "173344.488000", "173344.490000", "173344.493000", "173344.495000", "173344.498000", "173344.500000", "173344.503000", "173344.506000", "173344.508000", "173344.511000", "173344.513000", "173344.516000", "173344.519000", "173344.521000", "173344.524000", "173424.410000", "173424.414000", "173424.416000", "173424.419000", "173424.421000", "173424.424000", "173424.427000", "173424.429000", "173424.432000", "173424.435000", "173424.437000", "173424.440000", "173424.443000", "173424.446000", "173424.449000", "173424.451000", "173424.454000", "173424.457000", "173424.460000", "173424.462000", "173424.465000", "173424.467000", "173424.470000", "173424.473000", "173424.475000", "173424.478000", "173424.481000", "173424.484000", "173424.486000", "173424.489000", "173424.491000", "173424.494000", "173424.497000", "173504.411000", "173504.413000", "173504.416000", "173504.419000", "173504.421000", "173504.424000", "173504.427000", "173504.429000", "173504.432000", "173504.434000", "173504.437000", "173504.439000", "173504.443000", "173504.445000", "173504.452000", "173504.455000", "173504.458000", "173504.460000", "173504.463000", "173504.465000", "173504.468000", "173504.471000", "173504.474000", "173504.476000", "173504.479000", "173504.481000", "173504.484000", "173504.487000", "173504.489000", "173504.492000", "173504.494000", "173504.497000", "173504.500000", "173504.502000", "173544.412000", "173544.415000", "173544.417000", "173544.420000", "173544.423000", "173544.425000", "173544.428000", "173544.431000", "173544.433000", "173544.436000", "173544.438000", "173544.441000", "173544.444000", "173544.446000", "173544.449000", "173544.451000", "173544.454000", "173544.457000", "173544.459000", "173544.462000", "173544.465000", "173544.467000", "173544.471000", "173544.474000", "173544.476000", "173544.479000", "173544.482000", "173544.484000", "173544.487000", "173544.490000", "173544.492000", "173544.495000", "173544.497000", "173624.412000", "173624.414000", "173624.417000", "173624.420000", "173624.423000", "173624.425000", "173624.428000", "173624.431000", "173624.434000", "173624.436000", "173624.439000", "173624.441000", "173624.444000", "173624.447000", "173624.449000", "173624.452000", "173624.454000", "173624.457000", "173624.460000", "173624.462000", "173624.465000", "173624.468000", "173624.470000", "173624.473000", "173624.475000", "173624.478000", "173624.481000", "173624.483000", "173624.486000", "173624.489000", "173624.491000", "173624.494000", "173624.496000", "173704.411000", "173704.413000", "173704.416000", "173704.419000", "173704.422000", "173704.424000", "173704.427000", "173704.429000", "173704.432000", "173704.435000", "173704.437000", "173704.440000", "173704.442000", "173704.445000", "173704.448000", "173704.450000", "173704.453000", "173704.455000", "173704.458000", "173704.461000", "173704.463000", "173704.466000", "173704.469000", "173704.471000", "173704.474000", "173704.477000", "173704.479000", "173704.482000", "173704.485000", "173704.487000", "173704.490000", "173704.492000", "173704.495000", "173704.498000", "173724.411000", "173724.413000", "173724.416000", "173724.419000", "173724.422000", "173724.424000", "173724.427000", "173724.429000", "173724.432000", "173724.435000", "173724.437000", "173724.440000", "173724.443000", "173724.445000", "173724.448000", "173724.451000", "173734.080000", "173734.083000", "173734.085000", "173734.088000", "173734.091000", "173734.093000", "173734.096000", "173734.098000", "173734.101000"],
      "InstanceCreationTime": ["173024.415000", "173024.419000", "173024.422000", "173024.425000", "173024.428000", "173024.431000", "173024.433000", "173024.436000", "173024.438000", "173024.441000", "173024.444000", "173024.446000", "173024.449000", "173024.451000", "173024.454000", "173024.456000", "173024.459000", "173024.462000", "173024.464000", "173024.467000", "173024.470000", "173024.472000", "173024.475000", "173024.477000", "173024.483000", "173024.486000", "173024.488000", "173024.491000", "173024.494000", "173024.496000", "173024.499000", "173024.502000", "173024.504000", "173104.411000", "173104.414000", "173104.417000", "173104.420000", "173104.423000", "173104.425000", "173104.428000", "173104.431000", "173104.433000", "173104.436000", "173104.439000", "173104.442000", "173104.444000", "173104.447000", "173104.449000", "173104.452000", "173104.455000", "173104.457000", "173104.460000", "173104.462000", "173104.465000", "173104.468000", "173104.470000", "173104.473000", "173104.475000", "173104.478000", "173104.481000", "173104.483000", "173104.486000", "173104.488000", "173104.491000", "173104.494000", "173104.497000", "173104.499000", "173144.411000", "173144.414000", "173144.417000", "173144.420000", "173144.422000", "173144.425000", "173144.427000", "173144.430000", "173144.433000", "173144.435000", "173144.438000", "173144.441000", "173144.443000", "173144.446000", "173144.448000", "173144.451000", "173144.453000", "173144.456000", "173144.459000", "173144.461000", "173144.464000", "173144.466000", "173144.469000", "173144.473000", "173144.476000", "173144.478000", "173144.481000", "173144.483000", "173144.492000", "173144.495000", "173144.497000", "173144.500000", "173144.503000", "173224.411000", "173224.413000", "173224.416000", "173224.419000", "173224.421000", "173224.424000", "173224.426000", "173224.429000", "173224.432000", "173224.434000", "173224.437000", "173224.440000", "173224.442000", "173224.445000", "173224.448000", "173224.450000", "173224.453000", "173224.456000", "173224.459000", "173224.462000", "173224.465000", "173224.467000", "173224.470000", "173224.472000", "173224.475000", "173224.477000", "173224.480000", "173224.483000", "173224.485000", "173224.488000", "173224.490000", "173224.493000", "173224.496000", "173304.412000", "173304.414000", "173304.417000", "173304.420000", "173304.422000", "173304.425000", "173304.428000", "173304.430000", "173304.433000", "173304.436000", "173304.438000", "173304.441000", "173304.443000", "173304.446000", "173304.449000", "173304.451000", "173304.454000", "173304.457000", "173304.459000", "173304.462000", "173304.464000", "173304.467000", "173304.470000", "173304.472000", "173304.475000", "173304.477000", "173304.480000", "173304.483000", "173304.485000", "173304.488000", "173304.490000", "173304.493000", "173304.496000", "173304.498000", "173344.411000", "173344.414000", "173344.424000", "173344.447000", "173344.450000", "173344.452000", "173344.455000", "173344.458000", "173344.460000", "173344.463000", "173344.466000", "173344.468000", "173344.471000", "173344.474000", "173344.477000", "173344.480000", "173344.482000", "173344.485000", "173344.488000", "173344.490000", "173344.493000", "173344.495000", "173344.498000", "173344.500000", "173344.503000", "173344.506000", "173344.508000", "173344.511000", "173344.513000", "173344.516000", "173344.519000", "173344.521000", "173344.524000", "173424.410000", "173424.414000", "173424.416000", "173424.419000", "173424.421000", "173424.424000", "173424.427000", "173424.429000", "173424.432000", "173424.435000", "173424.437000", "173424.440000", "173424.443000", "173424.446000", "173424.449000", "173424.451000", "173424.454000", "173424.457000", "173424.460000", "173424.462000", "173424.465000", "173424.467000", "173424.470000", "173424.473000", "173424.475000", "173424.478000", "173424.481000", "173424.484000", "173424.486000", "173424.489000", "173424.491000", "173424.494000", "173424.497000", "173504.411000", "173504.413000", "173504.416000", "173504.419000", "173504.421000", "173504.424000", "173504.427000", "173504.429000", "173504.432000", "173504.434000", "173504.437000", "173504.439000", "173504.443000", "173504.445000", "173504.452000", "173504.455000", "173504.458000", "173504.460000", "173504.463000", "173504.465000", "173504.468000", "173504.471000", "173504.474000", "173504.476000", "173504.479000", "173504.481000", "173504.484000", "173504.487000", "173504.489000", "173504.492000", "173504.494000", "173504.497000", "173504.500000", "173504.502000", "173544.412000", "173544.415000", "173544.417000", "173544.420000", "173544.423000", "173544.425000", "173544.428000", "173544.431000", "173544.433000", "173544.436000", "173544.438000", "173544.441000", "173544.444000", "173544.446000", "173544.449000", "173544.451000", "173544.454000", "173544.457000", "173544.459000", "173544.462000", "173544.465000", "173544.467000", "173544.471000", "173544.474000", "173544.476000", "173544.479000", "173544.482000", "173544.484000", "173544.487000", "173544.490000", "173544.492000", "173544.495000", "173544.497000", "173624.412000", "173624.414000", "173624.417000", "173624.420000", "173624.423000", "173624.425000", "173624.428000", "173624.431000", "173624.434000", "173624.436000", "173624.439000", "173624.441000", "173624.444000", "173624.447000", "173624.449000", "173624.452000", "173624.454000", "173624.457000", "173624.460000", "173624.462000", "173624.465000", "173624.468000", "173624.470000", "173624.473000", "173624.475000", "173624.478000", "173624.481000", "173624.483000", "173624.486000", "173624.489000", "173624.491000", "173624.494000", "173624.496000", "173704.411000", "173704.413000", "173704.416000", "173704.419000", "173704.422000", "173704.424000", "173704.427000", "173704.429000", "173704.432000", "173704.435000", "173704.437000", "173704.440000", "173704.442000", "173704.445000", "173704.448000", "173704.450000", "173704.453000", "173704.455000", "173704.458000", "173704.461000", "173704.463000", "173704.466000", "173704.469000", "173704.471000", "173704.474000", "173704.477000", "173704.479000", "173704.482000", "173704.485000", "173704.487000", "173704.490000", "173704.492000", "173704.495000", "173704.498000", "173724.411000", "173724.413000", "173724.416000", "173724.419000", "173724.422000", "173724.424000", "173724.427000", "173724.429000", "173724.432000", "173724.435000", "173724.437000", "173724.440000", "173724.443000", "173724.445000", "173724.448000", "173724.451000", "173734.080000", "173734.083000", "173734.085000", "173734.088000", "173734.091000", "173734.093000", "173734.096000", "173734.098000", "173734.101000"],
      "InstanceNumber": [1, 2, 3, 4, 5, 6, 7, 8, 9, 10, 11, 12, 13, 14, 15, 16, 17, 18, 19, 20, 21, 22, 23, 24, 25, 26, 27, 28, 29, 30, 31, 32, 33, 34, 35, 36, 37, 38, 39, 40, 41, 42, 43, 44, 45, 46, 47, 48, 49, 50, 51, 52, 53, 54, 55, 56, 57, 58, 59, 60, 61, 62, 63, 64, 65, 66, 67, 68, 69, 70, 71, 72, 73, 74, 75, 76, 77, 78, 79, 80, 81, 82, 83, 84, 85, 86, 87, 88, 89, 90, 91, 92, 93, 94, 95, 96, 97, 98, 99, 100, 101, 102, 103, 104, 105, 106, 107, 108, 109, 110, 111, 112, 113, 114, 115, 116, 117, 118, 119, 120, 121, 122, 123, 124, 125, 126, 127, 128, 129, 130, 131, 132, 133, 134, 135, 136, 137, 138, 139, 140, 141, 142, 143, 144, 145, 146, 147, 148, 149, 150, 151, 152, 153, 154, 155, 156, 157, 158, 159, 160, 161, 162, 163, 164, 165, 166, 167, 168, 169, 170, 171, 172, 173, 174, 175, 176, 177, 178, 179, 180, 181, 182, 183, 184, 185, 186, 187, 188, 189, 190, 191, 192, 193, 194, 195, 196, 197, 198, 199, 200, 201, 202, 203, 204, 205, 206, 207, 208, 209, 210, 211, 212, 213, 214, 215, 216, 217, 218, 219, 220, 221, 222, 223, 224, 225, 226, 227, 228, 229, 230, 231, 232, 233, 234, 235, 236, 237, 238, 239, 240, 241, 242, 243, 244, 245, 246, 247, 248, 249, 250, 251, 252, 253, 254, 255, 256, 257, 258, 259, 260, 261, 262, 263, 264, 265, 266, 267, 268, 269, 270, 271, 272, 273, 274, 275, 276, 277, 278, 279, 280, 281, 282, 283, 284, 285, 286, 287, 288, 289, 290, 291, 292, 293, 294, 295, 296, 297, 298, 299, 300, 301, 302, 303, 304, 305, 306, 307, 308, 309, 310, 311, 312, 313, 314, 315, 316, 317, 318, 319, 320, 321, 322, 323, 324, 325, 326, 327, 328, 329, 330, 331, 332, 333, 334, 335, 336, 337, 338, 339, 340, 341, 342, 343, 344, 345, 346, 347, 348, 349, 350, 351, 352, 353, 354, 355, 356, 357, 358, 359, 360, 361, 362, 363, 364, 365, 366, 367, 368, 369, 370, 371, 372, 373, 374, 375, 376, 377, 378, 379, 380, 381, 382, 383, 384, 385, 386, 387, 388, 389, 390, 391, 392],
