{
  "AcquisitionMatrixPE": 88,
  "AcquisitionNumber": 1,
  "AcquisitionTime": "18:15:7.972500",
  "BandwidthPerPixelPhaseEncode": 19.592,
  "BaseResolution": 88,
  "BodyPartExamined": "BRAIN",
  "ConsistencyInfo": "N4_VE11C_LATEST_20160120",
  "ConversionSoftware": "dcm2niix",
  "ConversionSoftwareVersion": "v1.0.20190902",
  "DerivedVendorReportedEchoSpacing": 0.000580014,
  "DeviceSerialNumber": "67050",
  "DwellTime": 2.6e-06,
  "EchoTime": 0.033,
  "EchoTrainLength": 88,
  "EffectiveEchoSpacing": 0.000580014,
  "FlipAngle": 62,
  "ImageOrientationPatientDICOM": [0.99636, -0.0332566, 0.0784873, 0.0347937, 0.999227, -0.0182979],
  "ImageType": [
    "ORIGINAL",
    "PRIMARY",
    "M",
    "ND",
    "MOSAIC"
],
  "ImagingFrequency": 123.251,
  "InPlanePhaseEncodingDirectionDICOM": "COL",
  "InstitutionAddress": "Olive_Street_60_Providence_RI_US_02912",
  "InstitutionName": "BROWN_UNIVERSITY_MRF",
  "InstitutionalDepartmentName": "Department",
  "MRAcquisitionType": "2D",
  "MagneticFieldStrength": 3,
  "Manufacturer": "Siemens",
  "ManufacturersModelName": "Prisma_fit",
  "Modality": "MR",
  "MultibandAccelerationFactor": 4,
  "PartialFourier": 1,
  "PatientPosition": "HFS",
  "PercentPhaseFOV": 100,
  "PhaseEncodingDirection": "j-",
  "PhaseEncodingSteps": 88,
  "PhaseResolution": 1,
  "PixelBandwidth": 2185,
  "ProcedureStepDescription": "ASHENHAV_1222",
  "ProtocolName": "func-bold_task-RDMlocalizer_run-01",
  "PulseSequenceDetails": "%SiemensSeq%_ep2d_bold",
  "ReceiveCoilActiveElements": "HC1-7",
  "ReceiveCoilName": "HeadNeck_64",
  "ReconMatrixPE": 88,
  "RefLinesPE": 8,
  "RepetitionTime": 1.2,
  "SAR": 0.0468243,
  "ScanOptions": "FS",
  "ScanningSequence": "EP",
  "SequenceName": "_epfid2d1_88",
  "SequenceVariant": "SK",
  "SeriesDescription": "func-bold_task-RDMlocalizer_run-01",
  "SeriesNumber": 19,
  "ShimSetting": [1761, -9051, 4189, 364, -95, -156, 33, -30],
  "SliceThickness": 2.4,
  "SliceTiming": [0.55, 0, 0.63, 0.0775, 0.7075, 0.1575, 0.7875, 0.235, 0.865, 0.315, 0.9425, 0.3925, 1.0225, 0.4725, 1.1, 0.55, 0, 0.63, 0.0775, 0.7075, 0.1575, 0.7875, 0.235, 0.865, 0.315, 0.9425, 0.3925, 1.0225, 0.4725, 1.1, 0.55, 0, 0.63, 0.0775, 0.7075, 0.1575, 0.7875, 0.235, 0.865, 0.315, 0.9425, 0.3925, 1.0225, 0.4725, 1.1, 0.55, 0, 0.63, 0.0775, 0.7075, 0.1575, 0.7875, 0.235, 0.865, 0.315, 0.9425, 0.3925, 1.0225, 0.4725, 1.1],
  "SoftwareVersions": "syngo_MR_E11",
  "SpacingBetweenSlices": 2.4,
  "StationName": "AWP67050",
  "TaskName": "RDMlocalizer",
  "TotalReadoutTime": 0.0504612,
  "TxRefAmp": 245.597,
  "dcmmeta_affine": [
    [-2.389000177383423, 0.08342572301626205, 0.18676340579986572, 101.08338928222656],
    [0.07974020391702652, 2.395873785018921, -0.05030921474099159, -101.17401123046875],
    [0.18819110095500946, 0.04387340322136879, 2.392193078994751, -105.59710693359375],
    [0.0, 0.0, 0.0, 1.0]
],
  "dcmmeta_reorient_transform": [
    [0.0, -1.0, 0.0, 87.0],
    [1.0, 0.0, 0.0, 0.0],
    [0.0, 0.0, 1.0, 0.0],
    [0.0, 0.0, 0.0, 1.0]
],
  "dcmmeta_shape": [88, 88, 60, 195],
  "dcmmeta_slice_dim": 2,
  "dcmmeta_version": 0.6,
  "global": {
    "const": {
      "AcquisitionMatrix": [88, 0, 0, 88],
      "AngioFlag": "N",
      "BitsAllocated": 16,
      "BitsStored": 12,
      "BodyPartExamined": "BRAIN",
      "Columns": 704,
      "DeidentificationMethodCodeSequence": [
        {
          "CodeMeaning": "XNAT DicomEdit 6 Script",
          "CodeValue": "3",
          "CodingSchemeDesignator": "XNAT",
          "CodingSchemeVersion": "1.0"}
],
      "EchoNumbers": 1,
      "EchoTime": 33.0,
      "EchoTrainLength": 88,
      "FlipAngle": 62.0,
      "HighBit": 11,
      "ImageOrientationPatient": [0.9963602489556, -0.0332565792711, 0.07848728710001, 0.03479366553274, 0.99922699485552, -0.018297912198],
      "ImagePositionPatient": [-869.84858548764, -820.63615343411, -146.22997722176],
      "ImageType": [
        "ORIGINAL",
        "PRIMARY",
        "M",
        "ND",
        "MOSAIC"
],
      "ImagedNucleus": "1H",
      "ImagingFrequency": 123.250871,
      "InPlanePhaseEncodingDirection": "COL",
      "MRAcquisitionType": "2D",
      "MagneticFieldStrength": 3.0,
      "Manufacturer": "SIEMENS",
      "ManufacturerModelName": "Prisma_fit",
      "Modality": "MR",
      "NumberOfAverages": 1.0,
      "NumberOfPhaseEncodingSteps": 88,
      "PercentPhaseFieldOfView": 100.0,
      "PercentSampling": 100.0,
      "PerformedProcedureStepStartTime": "164923.935000",
      "PhotometricInterpretation": "MONOCHROME2",
      "PixelBandwidth": 2185.0,
      "PixelRepresentation": 0,
      "PixelSpacing": [2.3977272510529, 2.3977272510529],
      "ProtocolName": "func-bold_task-RDMlocalizer_run-01",
      "RepetitionTime": 1200.0,
      "Rows": 704,
      "SAR": 0.04682425701881,
      "SamplesPerPixel": 1,
      "ScanOptions": "FS",
      "ScanningSequence": "EP",
      "SequenceName": "*epfid2d1_88",
      "SequenceVariant": "SK",
      "SeriesDescription": "func-bold_task-RDMlocalizer_run-01",
      "SeriesNumber": 19,
      "SeriesTime": "181542.196000",
      "SliceLocation": -95.266678059944,
      "SliceThickness": 2.4000000953674,
      "SmallestImagePixelValue": 0,
      "SoftwareVersions": "syngo MR E11",
      "SpacingBetweenSlices": 2.3999999427365,
      "SpecificCharacterSet": "ISO_IR 100",
      "StudyID": "1",
      "StudyTime": "164923.865000",
      "TransmitCoilName": "Body",
      "VariableFlipAngleFlag": "N",
      "WindowCenterWidthExplanation": "Algo1",
      "dBdt": 0.0},
    "slices": {}
  },
  "time": {
    "samples": {
      "AcquisitionNumber": [1, 2, 3, 4, 5, 6, 7, 8, 9, 10, 11, 12, 13, 14, 15, 16, 17, 18, 19, 20, 21, 22, 23, 24, 25, 26, 27, 28, 29, 30, 31, 32, 33, 34, 35, 36, 37, 38, 39, 40, 41, 42, 43, 44, 45, 46, 47, 48, 49, 50, 51, 52, 53, 54, 55, 56, 57, 58, 59, 60, 61, 62, 63, 64, 65, 66, 67, 68, 69, 70, 71, 72, 73, 74, 75, 76, 77, 78, 79, 80, 81, 82, 83, 84, 85, 86, 87, 88, 89, 90, 91, 92, 93, 94, 95, 96, 97, 98, 99, 100, 101, 102, 103, 104, 105, 106, 107, 108, 109, 110, 111, 112, 113, 114, 115, 116, 117, 118, 119, 120, 121, 122, 123, 124, 125, 126, 127, 128, 129, 130, 131, 132, 133, 134, 135, 136, 137, 138, 139, 140, 141, 142, 143, 144, 145, 146, 147, 148, 149, 150, 151, 152, 153, 154, 155, 156, 157, 158, 159, 160, 161, 162, 163, 164, 165, 166, 167, 168, 169, 170, 171, 172, 173, 174, 175, 176, 177, 178, 179, 180, 181, 182, 183, 184, 185, 186, 187, 188, 189, 190, 191, 192, 193, 194, 195],
      "AcquisitionTime": ["181507.972500", "181509.172500", "181510.372500", "181511.572500", "181512.772500", "181513.972500", "181515.172500", "181516.372500", "181517.572500", "181518.772500", "181519.972500", "181521.172500", "181522.372500", "181523.572500", "181524.772500", "181525.972500", "181527.172500", "181528.372500", "181529.572500", "181530.772500", "181531.972500", "181533.172500", "181534.372500", "181535.572500", "181536.772500", "181537.972500", "181539.172500", "181540.372500", "181541.572500", "181542.772500", "181543.972500", "181545.172500", "181546.372500", "181547.572500", "181548.772500", "181549.972500", "181551.172500", "181552.372500", "181553.572500", "181554.772500", "181555.972500", "181557.172500", "181558.372500", "181559.572500", "181600.772500", "181601.972500", "181603.172500", "181604.372500", "181605.572500", "181606.772500", "181607.972500", "181609.172500", "181610.372500", "181611.572500", "181612.772500", "181613.972500", "181615.172500", "181616.372500", "181617.572500", "181618.772500", "181619.972500", "181621.172500", "181622.372500", "181623.572500", "181624.772500", "181625.972500", "181627.172500", "181628.372500", "181629.572500", "181630.772500", "181631.972500", "181633.172500", "181634.372500", "181635.572500", "181636.772500", "181637.972500", "181639.172500", "181640.372500", "181641.572500", "181642.772500", "181643.972500", "181645.172500", "181646.372500", "181647.572500", "181648.772500", "181649.972500", "181651.172500", "181652.372500", "181653.572500", "181654.772500", "181655.972500", "181657.172500", "181658.372500", "181659.572500", "181700.772500", "181701.972500", "181703.172500", "181704.372500", "181705.572500", "181706.772500", "181707.972500", "181709.172500", "181710.372500", "181711.572500", "181712.772500", "181713.972500", "181715.172500", "181716.372500", "181717.572500", "181718.772500", "181719.972500", "181721.172500", "181722.372500", "181723.572500", "181724.772500", "181725.972500", "181727.172500", "181728.372500", "181729.572500", "181730.772500", "181731.972500", "181733.172500", "181734.372500", "181735.572500", "181736.772500", "181737.972500", "181739.172500", "181740.372500", "181741.572500", "181742.772500", "181743.972500", "181745.172500", "181746.372500", "181747.572500", "181748.772500", "181749.972500", "181751.172500", "181752.372500", "181753.572500", "181754.772500", "181755.972500", "181757.172500", "181758.372500", "181759.572500", "181800.772500", "181801.972500", "181803.172500", "181804.372500", "181805.572500", "181806.772500", "181807.972500", "181809.172500", "181810.372500", "181811.572500", "181812.772500", "181813.972500", "181815.172500", "181816.372500", "181817.572500", "181818.772500", "181819.972500", "181821.172500", "181822.372500", "181823.572500", "181824.772500", "181825.972500", "181827.172500", "181828.372500", "181829.572500", "181830.772500", "181831.972500", "181833.172500", "181834.372500", "181835.572500", "181836.772500", "181837.972500", "181839.172500", "181840.372500", "181841.572500", "181842.772500", "181843.972500", "181845.172500", "181846.372500", "181847.572500", "181848.772500", "181849.972500", "181851.172500", "181852.372500", "181853.572500", "181854.772500", "181855.972500", "181857.172500", "181858.372500", "181859.572500", "181900.772500"],
      "ContentTime": ["181542.200000", "181542.203000", "181542.206000", "181542.209000", "181542.211000", "181542.223000", "181542.226000", "181542.229000", "181542.231000", "181542.234000", "181542.236000", "181542.239000", "181542.248000", "181542.251000", "181542.254000", "181542.256000", "181542.259000", "181542.261000", "181542.264000", "181542.267000", "181542.269000", "181542.272000", "181542.275000", "181542.277000", "181542.280000", "181542.282000", "181542.285000", "181542.288000", "181622.194000", "181622.197000", "181622.200000", "181622.203000", "181622.205000", "181622.208000", "181622.211000", "181622.213000", "181622.216000", "181622.218000", "181622.221000", "181622.241000", "181622.244000", "181622.246000", "181622.249000", "181622.252000", "181622.254000", "181622.257000", "181622.259000", "181622.271000", "181622.273000", "181622.276000", "181622.279000", "181622.281000", "181622.284000", "181622.287000", "181622.289000", "181622.292000", "181622.294000", "181622.297000", "181622.300000", "181622.302000", "181622.305000", "181702.194000", "181702.197000", "181702.200000", "181702.203000", "181702.205000", "181702.208000", "181702.211000", "181702.213000", "181702.216000", "181702.218000", "181702.221000", "181702.223000", "181702.226000", "181702.229000", "181702.231000", "181702.234000", "181702.236000", "181702.239000", "181702.242000", "181702.244000", "181702.247000", "181702.250000", "181702.252000", "181702.255000", "181702.257000", "181702.262000", "181702.264000", "181702.267000", "181702.269000", "181702.272000", "181702.275000", "181702.277000", "181702.280000", "181702.282000", "181722.196000", "181722.198000", "181722.201000", "181722.204000", "181722.206000", "181722.209000", "181722.212000", "181722.224000", "181722.226000", "181722.229000", "181722.231000", "181722.234000", "181722.237000", "181722.239000", "181722.242000", "181722.245000", "181802.196000", "181802.198000", "181802.201000", "181802.204000", "181802.206000", "181802.209000", "181802.212000", "181802.214000", "181802.217000", "181802.220000", "181802.222000", "181802.225000", "181802.227000", "181802.230000", "181802.233000", "181802.235000", "181802.238000", "181802.240000", "181802.244000", "181802.246000", "181802.249000", "181802.251000", "181802.254000", "181802.257000", "181802.259000", "181802.262000", "181802.265000", "181802.267000", "181802.270000", "181802.272000", "181802.275000", "181802.277000", "181802.280000", "181802.283000", "181842.195000", "181842.197000", "181842.201000", "181842.203000", "181842.206000", "181842.208000", "181842.211000", "181842.214000", "181842.216000", "181842.219000", "181842.221000", "181842.224000", "181842.227000", "181842.229000", "181842.232000", "181842.235000", "181842.237000", "181842.240000", "181842.242000", "181842.245000", "181842.248000", "181842.250000", "181842.253000", "181842.256000", "181842.258000", "181842.261000", "181842.263000", "181842.266000", "181842.269000", "181842.271000", "181842.274000", "181842.277000", "181842.280000", "181902.031000", "181902.034000", "181902.036000", "181902.039000", "181902.041000", "181902.044000", "181902.047000", "181902.049000", "181902.052000", "181902.055000", "181902.057000", "181902.066000", "181902.069000", "181902.071000", "181902.074000", "181902.077000", "181902.079000"],
      "InstanceCreationTime": ["181542.200000", "181542.203000", "181542.206000", "181542.209000", "181542.211000", "181542.223000", "181542.226000", "181542.229000", "181542.231000", "181542.234000", "181542.236000", "181542.239000", "181542.248000", "181542.251000", "181542.254000", "181542.256000", "181542.259000", "181542.261000", "181542.264000", "181542.267000", "181542.269000", "181542.272000", "181542.275000", "181542.277000", "181542.280000", "181542.282000", "181542.285000", "181542.288000", "181622.194000", "181622.197000", "181622.200000", "181622.203000", "181622.205000", "181622.208000", "181622.211000", "181622.213000", "181622.216000", "181622.218000", "181622.221000", "181622.241000", "181622.244000", "181622.246000", "181622.249000", "181622.252000", "181622.254000", "181622.257000", "181622.259000", "181622.271000", "181622.273000", "181622.276000", "181622.279000", "181622.281000", "181622.284000", "181622.287000", "181622.289000", "181622.292000", "181622.294000", "181622.297000", "181622.300000", "181622.302000", "181622.305000", "181702.194000", "181702.197000", "181702.200000", "181702.203000", "181702.205000", "181702.208000", "181702.211000", "181702.213000", "181702.216000", "181702.218000", "181702.221000", "181702.223000", "181702.226000", "181702.229000", "181702.231000", "181702.234000", "181702.236000", "181702.239000", "181702.242000", "181702.244000", "181702.247000", "181702.250000", "181702.252000", "181702.255000", "181702.257000", "181702.262000", "181702.264000", "181702.267000", "181702.269000", "181702.272000", "181702.275000", "181702.277000", "181702.280000", "181702.282000", "181722.196000", "181722.198000", "181722.201000", "181722.204000", "181722.206000", "181722.209000", "181722.212000", "181722.224000", "181722.226000", "181722.229000", "181722.231000", "181722.234000", "181722.237000", "181722.239000", "181722.242000", "181722.245000", "181802.196000", "181802.198000", "181802.201000", "181802.204000", "181802.206000", "181802.209000", "181802.212000", "181802.214000", "181802.217000", "181802.220000", "181802.222000", "181802.225000", "181802.227000", "181802.230000", "181802.233000", "181802.235000", "181802.238000", "181802.240000", "181802.244000", "181802.246000", "181802.249000", "181802.251000", "181802.254000", "181802.257000", "181802.259000", "181802.262000", "181802.265000", "181802.267000", "181802.270000", "181802.272000", "181802.275000", "181802.277000", "181802.280000", "181802.283000", "181842.195000", "181842.197000", "181842.201000", "181842.203000", "181842.206000", "181842.208000", "181842.211000", "181842.214000", "181842.216000", "181842.219000", "181842.221000", "181842.224000", "181842.227000", "181842.229000", "181842.232000", "181842.235000", "181842.237000", "181842.240000", "181842.242000", "181842.245000", "181842.248000", "181842.250000", "181842.253000", "181842.256000", "181842.258000", "181842.261000", "181842.263000", "181842.266000", "181842.269000", "181842.271000", "181842.274000", "181842.277000", "181842.280000", "181902.031000", "181902.034000", "181902.036000", "181902.039000", "181902.041000", "181902.044000", "181902.047000", "181902.049000", "181902.052000", "181902.055000", "181902.057000", "181902.066000", "181902.069000", "181902.071000", "181902.074000", "181902.077000", "181902.079000"],
      "InstanceNumber": [1, 2, 3, 4, 5, 6, 7, 8, 9, 10, 11, 12, 13, 14, 15, 16, 17, 18, 19, 20, 21, 22, 23, 24, 25, 26, 27, 28, 29, 30, 31, 32, 33, 34, 35, 36, 37, 38, 39, 40, 41, 42, 43, 44, 45, 46, 47, 48, 49, 50, 51, 52, 53, 54, 55, 56, 57, 58, 59, 60, 61, 62, 63, 64, 65, 66, 67, 68, 69, 70, 71, 72, 73, 74, 75, 76, 77, 78, 79, 80, 81, 82, 83, 84, 85, 86, 87, 88, 89, 90, 91, 92, 93, 94, 95, 96, 97, 98, 99, 100, 101, 102, 103, 104, 105, 106, 107, 108, 109, 110, 111, 112, 113, 114, 115, 116, 117, 118, 119, 120, 121, 122, 123, 124, 125, 126, 127, 128, 129, 130, 131, 132, 133, 134, 135, 136, 137, 138, 139, 140, 141, 142, 143, 144, 145, 146, 147, 148, 149, 150, 151, 152, 153, 154, 155, 156, 157, 158, 159, 160, 161, 162, 163, 164, 165, 166, 167, 168, 169, 170, 171, 172, 173, 174, 175, 176, 177, 178, 179, 180, 181, 182, 183, 184, 185, 186, 187, 188, 189, 190, 191, 192, 193, 194, 195],
      "LargestImagePixelValue": [2116, 2026, 2003, 1974, 1975, 1967, 1974, 1973, 1978, 1978, 1973, 1981, 1992, 1981, 1980, 1990, 1968, 1982, 1968, 1983, 1969, 1986, 1965, 1966, 1977, 1991, 1958, 1962, 1964, 1991, 1986, 1966, 1986, 1972, 1973, 1973, 1995, 1981, 2005, 1983, 1983, 1969, 1984, 1978, 1968, 1973, 1952, 1969, 1964, 1969, 1969, 1952, 1947, 1951, 1954, 1935, 1941, 1942, 1927, 1981, 1965, 1995, 1960, 1973, 1983, 1970, 1968, 1977, 1988, 1972, 1973, 1984, 1973, 1951, 1964, 1967, 1959, 1980, 1968, 1967, 1958, 1997, 1996, 1983, 1997, 1982, 1982, 1988, 1992, 1992, 1985, 1984, 1980, 1999, 1987, 1983, 1969, 1972, 1960, 1966, 1969, 1957, 1981, 1946, 1974, 1959, 1950, 1976, 1962, 1980, 1972, 1987, 1958, 1975, 1988, 1972, 1963, 1969, 1962, 1982, 1977, 1976, 1975, 1978, 1965, 1958, 1964, 1965, 1978, 1964, 1955, 1958, 1973, 1969, 1965, 1956, 1954, 1978, 1958, 1970, 1968, 1962, 1976, 1983, 2001, 1972, 1988, 1975, 1990, 1957, 1973, 1958, 1990, 1969, 1957, 1970, 1959, 1977, 1947, 1950, 1966, 1962, 1961, 1950, 1969, 1980, 1962, 1969, 1962, 1996, 1963, 1971, 1963, 1968, 1962, 1954, 1990, 1954, 1977, 1968, 1964, 1954, 1956, 1952, 1964, 1965, 1975, 1970, 1969, 1951, 1966, 1976, 1962, 1976, 1995],
      "WindowCenter": [568.0, 564.0, 563.0, 562.0, 562.0, 561.0, 562.0, 562.0, 562.0, 562.0, 563.0, 563.0, 563.0, 562.0, 562.0, 562.0, 561.0, 562.0, 562.0, 562.0, 562.0, 562.0, 562.0, 562.0, 562.0, 562.0, 561.0, 562.0, 562.0, 563.0, 562.0, 562.0, 561.0, 561.0, 561.0, 561.0, 561.0, 561.0, 561.0, 560.0, 560.0, 559.0, 560.0, 560.0, 561.0, 561.0, 560.0, 560.0, 559.0, 559.0, 558.0, 560.0, 561.0, 560.0, 560.0, 558.0, 558.0, 558.0, 558.0, 561.0, 562.0, 564.0, 563.0, 563.0, 562.0, 561.0, 560.0, 560.0, 560.0, 560.0, 560.0, 560.0, 560.0, 560.0, 560.0, 559.0, 559.0, 561.0, 560.0, 561.0, 562.0, 563.0, 562.0, 562.0, 561.0, 560.0, 561.0, 561.0, 563.0, 563.0, 563.0, 562.0, 562.0, 562.0, 561.0, 561.0, 561.0, 562.0, 561.0, 561.0, 561.0, 561.0, 561.0, 560.0, 561.0, 560.0, 561.0, 561.0, 561.0, 561.0, 561.0, 560.0, 559.0, 559.0, 560.0, 561.0, 561.0, 561.0, 561.0, 561.0, 560.0, 560.0, 561.0, 560.0, 560.0, 561.0, 561.0, 561.0, 561.0, 561.0, 561.0, 562.0, 562.0, 561.0, 561.0, 561.0, 561.0, 561.0, 561.0, 561.0, 562.0, 562.0, 562.0, 563.0, 563.0, 563.0, 563.0, 562.0, 562.0, 561.0, 561.0, 561.0, 562.0, 561.0, 561.0, 561.0, 560.0, 560.0, 559.0, 560.0, 559.0, 560.0, 561.0, 561.0, 562.0, 562.0, 562.0, 561.0, 561.0, 562.0, 561.0, 562.0, 561.0, 561.0, 561.0, 560.0, 561.0, 560.0, 561.0, 560.0, 560.0, 560.0, 560.0, 560.0, 561.0, 561.0, 561.0, 562.0, 561.0, 561.0, 562.0, 563.0, 563.0, 563.0, 564.0],
      "WindowWidth": [1210.0, 1201.0, 1197.0, 1195.0, 1195.0, 1194.0, 1195.0, 1195.0, 1196.0, 1197.0, 1197.0, 1197.0, 1197.0, 1196.0, 1195.0, 1195.0, 1194.0, 1195.0, 1195.0, 1196.0, 1196.0, 1196.0, 1196.0, 1196.0, 1195.0, 1195.0, 1193.0, 1195.0, 1196.0, 1197.0, 1196.0, 1195.0, 1193.0, 1192.0, 1193.0, 1194.0, 1194.0, 1193.0, 1193.0, 1191.0, 1190.0, 1190.0, 1191.0, 1191.0, 1192.0, 1193.0, 1192.0, 1190.0, 1190.0, 1188.0, 1188.0, 1190.0, 1193.0, 1192.0, 1190.0, 1187.0, 1186.0, 1186.0, 1188.0, 1193.0, 1197.0, 1201.0, 1199.0, 1198.0, 1197.0, 1195.0, 1193.0, 1192.0, 1190.0, 1190.0, 1190.0, 1191.0, 1190.0, 1190.0, 1191.0, 1190.0, 1190.0, 1193.0, 1192.0, 1194.0, 1195.0, 1197.0, 1197.0, 1195.0, 1194.0, 1192.0, 1194.0, 1194.0, 1197.0, 1197.0, 1198.0, 1197.0, 1196.0, 1195.0, 1193.0, 1193.0, 1193.0, 1195.0, 1194.0, 1194.0, 1194.0, 1194.0, 1194.0, 1192.0, 1193.0, 1192.0, 1194.0, 1195.0, 1195.0, 1194.0, 1193.0, 1192.0, 1189.0, 1190.0, 1192.0, 1193.0, 1194.0, 1195.0, 1194.0, 1194.0, 1193.0, 1192.0, 1193.0, 1192.0, 1193.0, 1194.0, 1194.0, 1194.0, 1195.0, 1194.0, 1195.0, 1196.0, 1196.0, 1195.0, 1194.0, 1194.0, 1193.0, 1193.0, 1193.0, 1193.0, 1195.0, 1196.0, 1197.0, 1198.0, 1199.0, 1198.0, 1198.0, 1197.0, 1197.0, 1195.0, 1194.0, 1194.0, 1195.0, 1194.0, 1194.0, 1193.0, 1192.0, 1192.0, 1190.0, 1191.0, 1190.0, 1191.0, 1193.0, 1194.0, 1197.0, 1197.0, 1196.0, 1194.0, 1194.0, 1195.0, 1194.0, 1195.0, 1194.0, 1193.0, 1193.0, 1192.0, 1194.0, 1192.0, 1193.0, 1192.0, 1191.0, 1191.0, 1191.0, 1191.0, 1193.0, 1194.0, 1194.0, 1195.0, 1194.0, 1194.0, 1195.0, 1197.0, 1197.0, 1199.0, 1200.0]
    },
    "slices": {}
  }
}