{
  "AcquisitionMatrixPE": 88,
  "AcquisitionNumber": 1,
  "AcquisitionTime": "17:41:42.022500",
  "BandwidthPerPixelPhaseEncode": 19.592,
  "BaseResolution": 88,
  "BodyPartExamined": "BRAIN",
  "ConsistencyInfo": "N4_VE11C_LATEST_20160120",
  "ConversionSoftware": "dcm2niix",
  "ConversionSoftwareVersion": "v1.0.20190902",
  "DerivedVendorReportedEchoSpacing": 0.000580014,
  "DeviceSerialNumber": "67050",
  "DwellTime": 2.6e-06,
  "EchoTime": 0.033,
  "EchoTrainLength": 88,
  "EffectiveEchoSpacing": 0.000580014,
  "FlipAngle": 62,
  "ImageOrientationPatientDICOM": [0.99636, -0.0332566, 0.0784873, 0.0347937, 0.999227, -0.0182979],
  "ImageType": [
    "ORIGINAL",
    "PRIMARY",
    "M",
    "ND",
    "MOSAIC"
],
  "ImagingFrequency": 123.251,
  "InPlanePhaseEncodingDirectionDICOM": "COL",
  "InstitutionAddress": "Olive_Street_60_Providence_RI_US_02912",
  "InstitutionName": "BROWN_UNIVERSITY_MRF",
  "InstitutionalDepartmentName": "Department",
  "MRAcquisitionType": "2D",
  "MagneticFieldStrength": 3,
  "Manufacturer": "Siemens",
  "ManufacturersModelName": "Prisma_fit",
  "Modality": "MR",
  "MultibandAccelerationFactor": 4,
  "PartialFourier": 1,
  "PatientPosition": "HFS",
  "PercentPhaseFOV": 100,
  "PhaseEncodingDirection": "j-",
  "PhaseEncodingSteps": 88,
  "PhaseResolution": 1,
  "PixelBandwidth": 2185,
  "ProcedureStepDescription": "ASHENHAV_1222",
  "ProtocolName": "func-bold_task-RDMcolor_run-04",
  "PulseSequenceDetails": "%SiemensSeq%_ep2d_bold",
  "ReceiveCoilActiveElements": "HC1-7",
  "ReceiveCoilName": "HeadNeck_64",
  "ReconMatrixPE": 88,
  "RefLinesPE": 8,
  "RepetitionTime": 1.2,
  "SAR": 0.0470544,
  "ScanOptions": "FS",
  "ScanningSequence": "EP",
  "SequenceName": "_epfid2d1_88",
  "SequenceVariant": "SK",
  "SeriesDescription": "func-bold_task-RDMcolor_run-04",
  "SeriesNumber": 14,
  "ShimSetting": [1761, -9051, 4189, 364, -95, -156, 33, -30],
  "SliceThickness": 2.4,
  "SliceTiming": [0.55, 0, 0.6275, 0.0775, 0.7075, 0.155, 0.785, 0.235, 0.865, 0.3125, 0.9425, 0.3925, 1.0225, 0.47, 1.1, 0.55, 0, 0.6275, 0.0775, 0.7075, 0.155, 0.785, 0.235, 0.865, 0.3125, 0.9425, 0.3925, 1.0225, 0.47, 1.1, 0.55, 0, 0.6275, 0.0775, 0.7075, 0.155, 0.785, 0.235, 0.865, 0.3125, 0.9425, 0.3925, 1.0225, 0.47, 1.1, 0.55, 0, 0.6275, 0.0775, 0.7075, 0.155, 0.785, 0.235, 0.865, 0.3125, 0.9425, 0.3925, 1.0225, 0.47, 1.1],
  "SoftwareVersions": "syngo_MR_E11",
  "SpacingBetweenSlices": 2.4,
  "StationName": "AWP67050",
  "TaskName": "RDMcolor",
  "TotalReadoutTime": 0.0504612,
  "TxRefAmp": 245.597,
  "dcmmeta_affine": [
    [-2.389000177383423, 0.08342572301626205, 0.18676340579986572, 101.08338928222656],
    [0.07974020391702652, 2.395873785018921, -0.05030921474099159, -101.17401123046875],
    [0.18819110095500946, 0.04387340322136879, 2.392193078994751, -105.59710693359375],
    [0.0, 0.0, 0.0, 1.0]
],
  "dcmmeta_reorient_transform": [
    [0.0, -1.0, 0.0, 87.0],
    [1.0, 0.0, 0.0, 0.0],
    [0.0, 0.0, 1.0, 0.0],
    [0.0, 0.0, 0.0, 1.0]
],
  "dcmmeta_shape": [88, 88, 60, 392],
  "dcmmeta_slice_dim": 2,
  "dcmmeta_version": 0.6,
  "global": {
    "const": {
      "AcquisitionMatrix": [88, 0, 0, 88],
      "AngioFlag": "N",
      "BitsAllocated": 16,
      "BitsStored": 12,
      "BodyPartExamined": "BRAIN",
      "Columns": 704,
      "DeidentificationMethodCodeSequence": [
        {
          "CodeMeaning": "XNAT DicomEdit 6 Script",
          "CodeValue": "3",
          "CodingSchemeDesignator": "XNAT",
          "CodingSchemeVersion": "1.0"}
],
      "EchoNumbers": 1,
      "EchoTime": 33.0,
      "EchoTrainLength": 88,
      "FlipAngle": 62.0,
      "HighBit": 11,
      "ImageOrientationPatient": [0.9963602489556, -0.0332565792711, 0.07848728710001, 0.03479366553274, 0.99922699485552, -0.018297912198],
      "ImagePositionPatient": [-869.84858548764, -820.63615343411, -146.22997722176],
      "ImageType": [
        "ORIGINAL",
        "PRIMARY",
        "M",
        "ND",
        "MOSAIC"
],
      "ImagedNucleus": "1H",
      "ImagingFrequency": 123.25087,
      "InPlanePhaseEncodingDirection": "COL",
      "MRAcquisitionType": "2D",
      "MagneticFieldStrength": 3.0,
      "Manufacturer": "SIEMENS",
      "ManufacturerModelName": "Prisma_fit",
      "Modality": "MR",
      "NumberOfAverages": 1.0,
      "NumberOfPhaseEncodingSteps": 88,
      "PercentPhaseFieldOfView": 100.0,
      "PercentSampling": 100.0,
      "PerformedProcedureStepStartTime": "164923.935000",
      "PhotometricInterpretation": "MONOCHROME2",
      "PixelBandwidth": 2185.0,
      "PixelRepresentation": 0,
      "PixelSpacing": [2.3977272510529, 2.3977272510529],
      "ProtocolName": "func-bold_task-RDMcolor_run-04",
      "RepetitionTime": 1200.0,
      "Rows": 704,
      "SAR": 0.04705440239855,
      "SamplesPerPixel": 1,
      "ScanOptions": "FS",
      "ScanningSequence": "EP",
      "SequenceName": "*epfid2d1_88",
      "SequenceVariant": "SK",
      "SeriesDescription": "func-bold_task-RDMcolor_run-04",
      "SeriesNumber": 14,
      "SeriesTime": "174217.645000",
      "SliceLocation": -95.266678059944,
      "SliceThickness": 2.4000000953674,
      "SmallestImagePixelValue": 0,
      "SoftwareVersions": "syngo MR E11",
      "SpacingBetweenSlices": 2.3999999427365,
      "SpecificCharacterSet": "ISO_IR 100",
      "StudyID": "1",
      "StudyTime": "164923.865000",
      "TransmitCoilName": "Body",
      "VariableFlipAngleFlag": "N",
      "WindowCenterWidthExplanation": "Algo1",
      "dBdt": 0.0},
    "slices": {}
  },
  "time": {
    "samples": {
      "AcquisitionNumber": [1, 2, 3, 4, 5, 6, 7, 8, 9, 10, 11, 12, 13, 14, 15, 16, 17, 18, 19, 20, 21, 22, 23, 24, 25, 26, 27, 28, 29, 30, 31, 32, 33, 34, 35, 36, 37, 38, 39, 40, 41, 42, 43, 44, 45, 46, 47, 48, 49, 50, 51, 52, 53, 54, 55, 56, 57, 58, 59, 60, 61, 62, 63, 64, 65, 66, 67, 68, 69, 70, 71, 72, 73, 74, 75, 76, 77, 78, 79, 80, 81, 82, 83, 84, 85, 86, 87, 88, 89, 90, 91, 92, 93, 94, 95, 96, 97, 98, 99, 100, 101, 102, 103, 104, 105, 106, 107, 108, 109, 110, 111, 112, 113, 114, 115, 116, 117, 118, 119, 120, 121, 122, 123, 124, 125, 126, 127, 128, 129, 130, 131, 132, 133, 134, 135, 136, 137, 138, 139, 140, 141, 142, 143, 144, 145, 146, 147, 148, 149, 150, 151, 152, 153, 154, 155, 156, 157, 158, 159, 160, 161, 162, 163, 164, 165, 166, 167, 168, 169, 170, 171, 172, 173, 174, 175, 176, 177, 178, 179, 180, 181, 182, 183, 184, 185, 186, 187, 188, 189, 190, 191, 192, 193, 194, 195, 196, 197, 198, 199, 200, 201, 202, 203, 204, 205, 206, 207, 208, 209, 210, 211, 212, 213, 214, 215, 216, 217, 218, 219, 220, 221, 222, 223, 224, 225, 226, 227, 228, 229, 230, 231, 232, 233, 234, 235, 236, 237, 238, 239, 240, 241, 242, 243, 244, 245, 246, 247, 248, 249, 250, 251, 252, 253, 254, 255, 256, 257, 258, 259, 260, 261, 262, 263, 264, 265, 266, 267, 268, 269, 270, 271, 272, 273, 274, 275, 276, 277, 278, 279, 280, 281, 282, 283, 284, 285, 286, 287, 288, 289, 290, 291, 292, 293, 294, 295, 296, 297, 298, 299, 300, 301, 302, 303, 304, 305, 306, 307, 308, 309, 310, 311, 312, 313, 314, 315, 316, 317, 318, 319, 320, 321, 322, 323, 324, 325, 326, 327, 328, 329, 330, 331, 332, 333, 334, 335, 336, 337, 338, 339, 340, 341, 342, 343, 344, 345, 346, 347, 348, 349, 350, 351, 352, 353, 354, 355, 356, 357, 358, 359, 360, 361, 362, 363, 364, 365, 366, 367, 368, 369, 370, 371, 372, 373, 374, 375, 376, 377, 378, 379, 380, 381, 382, 383, 384, 385, 386, 387, 388, 389, 390, 391, 392],
      "AcquisitionTime": ["174142.022500", "174143.222500", "174144.422500", "174145.622500", "174146.822500", "174148.022500", "174149.222500", "174150.422500", "174151.622500", "174152.822500", "174154.022500", "174155.222500", "174156.422500", "174157.622500", "174158.822500", "174200.022500", "174201.222500", "174202.422500", "174203.622500", "174204.822500", "174206.022500", "174207.222500", "174208.422500", "174209.622500", "174210.822500", "174212.022500", "174213.222500", "174214.422500", "174215.622500", "174216.822500", "174218.022500", "174219.222500", "174220.422500", "174221.622500", "174222.822500", "174224.022500", "174225.222500", "174226.422500", "174227.622500", "174228.822500", "174230.022500", "174231.222500", "174232.422500", "174233.622500", "174234.822500", "174236.022500", "174237.222500", "174238.422500", "174239.622500", "174240.822500", "174242.022500", "174243.222500", "174244.422500", "174245.622500", "174246.822500", "174248.022500", "174249.222500", "174250.422500", "174251.622500", "174252.822500", "174254.022500", "174255.222500", "174256.422500", "174257.622500", "174258.822500", "174300.022500", "174301.222500", "174302.422500", "174303.622500", "174304.822500", "174306.022500", "174307.222500", "174308.422500", "174309.622500", "174310.822500", "174312.022500", "174313.222500", "174314.422500", "174315.622500", "174316.822500", "174318.022500", "174319.222500", "174320.422500", "174321.622500", "174322.822500", "174324.022500", "174325.222500", "174326.422500", "174327.622500", "174328.822500", "174330.022500", "174331.222500", "174332.422500", "174333.622500", "174334.822500", "174336.022500", "174337.222500", "174338.422500", "174339.622500", "174340.822500", "174342.022500", "174343.222500", "174344.422500", "174345.622500", "174346.822500", "174348.022500", "174349.222500", "174350.422500", "174351.622500", "174352.822500", "174354.022500", "174355.222500", "174356.422500", "174357.622500", "174358.822500", "174400.022500", "174401.222500", "174402.422500", "174403.622500", "174404.822500", "174406.022500", "174407.222500", "174408.422500", "174409.622500", "174410.822500", "174412.022500", "174413.222500", "174414.422500", "174415.622500", "174416.822500", "174418.022500", "174419.222500", "174420.422500", "174421.622500", "174422.822500", "174424.022500", "174425.222500", "174426.422500", "174427.622500", "174428.822500", "174430.022500", "174431.222500", "174432.422500", "174433.622500", "174434.822500", "174436.022500", "174437.222500", "174438.422500", "174439.622500", "174440.822500", "174442.022500", "174443.222500", "174444.422500", "174445.622500", "174446.822500", "174448.022500", "174449.222500", "174450.422500", "174451.622500", "174452.822500", "174454.022500", "174455.222500", "174456.422500", "174457.622500", "174458.822500", "174500.022500", "174501.222500", "174502.422500", "174503.622500", "174504.822500", "174506.022500", "174507.222500", "174508.422500", "174509.622500", "174510.822500", "174512.022500", "174513.222500", "174514.422500", "174515.622500", "174516.822500", "174518.022500", "174519.222500", "174520.422500", "174521.622500", "174522.822500", "174524.022500", "174525.222500", "174526.422500", "174527.622500", "174528.822500", "174530.022500", "174531.222500", "174532.422500", "174533.622500", "174534.822500", "174536.022500", "174537.222500", "174538.422500", "174539.622500", "174540.822500", "174542.022500", "174543.222500", "174544.422500", "174545.622500", "174546.822500", "174548.022500", "174549.222500", "174550.422500", "174551.622500", "174552.822500", "174554.022500", "174555.222500", "174556.422500", "174557.622500", "174558.822500", "174600.022500", "174601.222500", "174602.422500", "174603.622500", "174604.822500", "174606.022500", "174607.222500", "174608.422500", "174609.622500", "174610.822500", "174612.022500", "174613.222500", "174614.422500", "174615.622500", "174616.822500", "174618.022500", "174619.222500", "174620.422500", "174621.622500", "174622.822500", "174624.022500", "174625.222500", "174626.422500", "174627.622500", "174628.822500", "174630.022500", "174631.222500", "174632.422500", "174633.622500", "174634.822500", "174636.022500", "174637.222500", "174638.422500", "174639.622500", "174640.822500", "174642.022500", "174643.222500", "174644.422500", "174645.622500", "174646.822500", "174648.022500", "174649.222500", "174650.422500", "174651.622500", "174652.822500", "174654.022500", "174655.222500", "174656.422500", "174657.622500", "174658.822500", "174700.022500", "174701.222500", "174702.422500", "174703.622500", "174704.822500", "174706.022500", "174707.222500", "174708.422500", "174709.622500", "174710.822500", "174712.022500", "174713.222500", "174714.422500", "174715.622500", "174716.822500", "174718.022500", "174719.222500", "174720.422500", "174721.622500", "174722.822500", "174724.022500", "174725.222500", "174726.422500", "174727.622500", "174728.822500", "174730.022500", "174731.222500", "174732.422500", "174733.622500", "174734.822500", "174736.022500", "174737.222500", "174738.422500", "174739.622500", "174740.822500", "174742.022500", "174743.222500", "174744.422500", "174745.622500", "174746.822500", "174748.022500", "174749.222500", "174750.422500", "174751.622500", "174752.822500", "174754.022500", "174755.222500", "174756.422500", "174757.622500", "174758.822500", "174800.022500", "174801.222500", "174802.422500", "174803.622500", "174804.822500", "174806.022500", "174807.222500", "174808.422500", "174809.622500", "174810.822500", "174812.022500", "174813.222500", "174814.422500", "174815.622500", "174816.822500", "174818.022500", "174819.222500", "174820.422500", "174821.622500", "174822.822500", "174824.022500", "174825.222500", "174826.422500", "174827.622500", "174828.822500", "174830.022500", "174831.222500", "174832.422500", "174833.622500", "174834.822500", "174836.022500", "174837.222500", "174838.422500", "174839.622500", "174840.822500", "174842.022500", "174843.222500", "174844.422500", "174845.622500", "174846.822500", "174848.022500", "174849.222500", "174850.422500", "174851.622500", "174852.822500", "174854.022500", "174855.222500", "174856.422500", "174857.622500", "174858.822500", "174900.022500", "174901.222500", "174902.422500", "174903.622500", "174904.822500", "174906.022500", "174907.222500", "174908.422500", "174909.622500", "174910.822500", "174912.022500", "174913.222500", "174914.422500", "174915.622500", "174916.822500", "174918.022500", "174919.222500", "174920.422500", "174921.622500", "174922.822500", "174924.022500", "174925.222500", "174926.422500", "174927.622500", "174928.822500", "174930.022500", "174931.222500"],
      "ContentTime": ["174217.649000", "174217.652000", "174217.655000", "174217.657000", "174217.660000", "174217.671000", "174217.673000", "174217.676000", "174217.679000", "174217.689000", "174217.692000", "174217.695000", "174217.697000", "174217.715000", "174217.718000", "174217.721000", "174217.723000", "174217.731000", "174217.741000", "174217.744000", "174217.746000", "174217.749000", "174217.752000", "174217.754000", "174217.757000", "174217.759000", "174217.762000", "174217.764000", "174217.767000", "174257.644000", "174257.647000", "174257.650000", "174257.652000", "174257.655000", "174257.658000", "174257.660000", "174257.663000", "174257.666000", "174257.668000", "174257.671000", "174257.674000", "174257.679000", "174257.681000", "174257.684000", "174257.687000", "174257.690000", "174257.692000", "174257.695000", "174257.697000", "174257.700000", "174257.703000", "174257.705000", "174257.708000", "174257.711000", "174257.713000", "174257.716000", "174257.719000", "174257.721000", "174257.724000", "174257.726000", "174257.729000", "174257.731000", "174257.734000", "174337.644000", "174337.647000", "174337.650000", "174337.653000", "174337.655000", "174337.658000", "174337.661000", "174337.663000", "174337.666000", "174337.668000", "174337.671000", "174337.674000", "174337.676000", "174337.679000", "174337.681000", "174337.684000", "174337.692000", "174337.695000", "174337.697000", "174337.700000", "174337.702000", "174337.705000", "174337.708000", "174337.710000", "174337.713000", "174337.716000", "174337.718000", "174337.721000", "174337.724000", "174337.726000", "174337.729000", "174337.732000", "174337.734000", "174417.644000", "174417.647000", "174417.650000", "174417.653000", "174417.655000", "174417.658000", "174417.660000", "174417.663000", "174417.665000", "174417.668000", "174417.671000", "174417.673000", "174417.676000", "174417.678000", "174417.681000", "174417.684000", "174417.686000", "174417.689000", "174417.691000", "174417.694000", "174417.697000", "174417.699000", "174417.702000", "174417.704000", "174417.707000", "174417.710000", "174417.712000", "174417.715000", "174417.717000", "174417.720000", "174417.722000", "174417.725000", "174417.728000", "174457.644000", "174457.647000", "174457.650000", "174457.653000", "174457.655000", "174457.658000", "174457.660000", "174457.663000", "174457.666000", "174457.668000", "174457.671000", "174457.673000", "174457.676000", "174457.679000", "174457.681000", "174457.684000", "174457.686000", "174457.689000", "174457.692000", "174457.694000", "174457.697000", "174457.699000", "174457.702000", "174457.705000", "174457.707000", "174457.710000", "174457.712000", "174457.715000", "174457.718000", "174457.720000", "174457.723000", "174457.725000", "174457.728000", "174457.730000", "174537.645000", "174537.647000", "174537.650000", "174537.653000", "174537.655000", "174537.658000", "174537.661000", "174537.670000", "174537.673000", "174537.675000", "174537.678000", "174537.680000", "174537.683000", "174537.685000", "174537.688000", "174537.691000", "174537.693000", "174537.696000", "174537.699000", "174537.701000", "174537.704000", "174537.706000", "174537.709000", "174537.712000", "174537.714000", "174537.717000", "174537.720000", "174537.722000", "174537.725000", "174537.727000", "174537.730000", "174537.732000", "174537.735000", "174617.644000", "174617.647000", "174617.650000", "174617.653000", "174617.655000", "174617.658000", "174617.660000", "174617.663000", "174617.676000", "174617.679000", "174617.682000", "174617.684000", "174617.687000", "174617.709000", "174617.711000", "174617.722000", "174617.725000", "174617.727000", "174617.730000", "174617.733000", "174617.736000", "174617.738000", "174617.741000", "174617.743000", "174617.746000", "174617.749000", "174617.751000", "174617.754000", "174617.756000", "174617.759000", "174617.761000", "174617.764000", "174617.767000", "174657.644000", "174657.648000", "174657.651000", "174657.654000", "174657.657000", "174657.660000", "174657.663000", "174657.665000", "174657.668000", "174657.671000", "174657.673000", "174657.676000", "174657.679000", "174657.681000", "174657.684000", "174657.686000", "174657.689000", "174657.692000", "174657.694000", "174657.703000", "174657.706000", "174657.708000", "174657.711000", "174657.713000", "174657.716000", "174657.719000", "174657.721000", "174657.724000", "174657.727000", "174657.729000", "174657.732000", "174657.734000", "174657.737000", "174717.645000", "174717.647000", "174717.650000", "174717.653000", "174717.655000", "174717.658000", "174717.660000", "174717.663000", "174717.666000", "174717.668000", "174717.671000", "174717.673000", "174717.676000", "174717.679000", "174717.681000", "174717.684000", "174717.686000", "174757.645000", "174757.647000", "174757.650000", "174757.653000", "174757.655000", "174757.658000", "174757.660000", "174757.663000", "174757.666000", "174757.668000", "174757.671000", "174757.673000", "174757.676000", "174757.679000", "174757.681000", "174757.684000", "174757.686000", "174757.689000", "174757.692000", "174757.694000", "174757.697000", "174757.699000", "174757.702000", "174757.705000", "174757.707000", "174757.710000", "174757.712000", "174757.715000", "174757.717000", "174757.720000", "174757.722000", "174757.725000", "174757.728000", "174757.730000", "174837.645000", "174837.648000", "174837.650000", "174837.653000", "174837.656000", "174837.658000", "174837.661000", "174837.663000", "174837.666000", "174837.669000", "174837.671000", "174837.674000", "174837.676000", "174837.679000", "174837.682000", "174837.684000", "174837.687000", "174837.690000", "174837.692000", "174837.695000", "174837.698000", "174837.700000", "174837.703000", "174837.705000", "174837.708000", "174837.711000", "174837.713000", "174837.716000", "174837.719000", "174837.721000", "174837.724000", "174837.726000", "174837.729000", "174917.645000", "174917.648000", "174917.650000", "174917.653000", "174917.655000", "174917.658000", "174917.661000", "174917.664000", "174917.666000", "174917.669000", "174917.671000", "174917.674000", "174917.677000", "174917.679000", "174917.682000", "174917.684000", "174917.687000", "174917.690000", "174917.693000", "174917.695000", "174917.698000", "174917.701000", "174917.703000", "174917.706000", "174917.708000", "174917.711000", "174917.714000", "174917.716000", "174917.719000", "174917.721000", "174917.724000", "174917.727000", "174917.729000", "174932.455000", "174932.458000", "174932.460000", "174932.463000", "174932.466000", "174932.468000", "174932.471000", "174932.473000", "174932.476000", "174932.479000", "174932.482000", "174932.484000", "174932.487000"],
      "InstanceCreationTime": ["174217.649000", "174217.652000", "174217.655000", "174217.657000", "174217.660000", "174217.671000", "174217.673000", "174217.676000", "174217.679000", "174217.689000", "174217.692000", "174217.695000", "174217.697000", "174217.715000", "174217.718000", "174217.721000", "174217.723000", "174217.731000", "174217.741000", "174217.744000", "174217.746000", "174217.749000", "174217.752000", "174217.754000", "174217.757000", "174217.759000", "174217.762000", "174217.764000", "174217.767000", "174257.644000", "174257.647000", "174257.650000", "174257.652000", "174257.655000", "174257.658000", "174257.660000", "174257.663000", "174257.666000", "174257.668000", "174257.671000", "174257.674000", "174257.679000", "174257.681000", "174257.684000", "174257.687000", "174257.690000", "174257.692000", "174257.695000", "174257.697000", "174257.700000", "174257.703000", "174257.705000", "174257.708000", "174257.711000", "174257.713000", "174257.716000", "174257.719000", "174257.721000", "174257.724000", "174257.726000", "174257.729000", "174257.731000", "174257.734000", "174337.644000", "174337.647000", "174337.650000", "174337.653000", "174337.655000", "174337.658000", "174337.661000", "174337.663000", "174337.666000", "174337.668000", "174337.671000", "174337.674000", "174337.676000", "174337.679000", "174337.681000", "174337.684000", "174337.692000", "174337.695000", "174337.697000", "174337.700000", "174337.702000", "174337.705000", "174337.708000", "174337.710000", "174337.713000", "174337.716000", "174337.718000", "174337.721000", "174337.724000", "174337.726000", "174337.729000", "174337.732000", "174337.734000", "174417.644000", "174417.647000", "174417.650000", "174417.653000", "174417.655000", "174417.658000", "174417.660000", "174417.663000", "174417.665000", "174417.668000", "174417.671000", "174417.673000", "174417.676000", "174417.678000", "174417.681000", "174417.684000", "174417.686000", "174417.689000", "174417.691000", "174417.694000", "174417.697000", "174417.699000", "174417.702000", "174417.704000", "174417.707000", "174417.710000", "174417.712000", "174417.715000", "174417.717000", "174417.720000", "174417.722000", "174417.725000", "174417.728000", "174457.644000", "174457.647000", "174457.650000", "174457.653000", "174457.655000", "174457.658000", "174457.660000", "174457.663000", "174457.666000", "174457.668000", "174457.671000", "174457.673000", "174457.676000", "174457.679000", "174457.681000", "174457.684000", "174457.686000", "174457.689000", "174457.692000", "174457.694000", "174457.697000", "174457.699000", "174457.702000", "174457.705000", "174457.707000", "174457.710000", "174457.712000", "174457.715000", "174457.718000", "174457.720000", "174457.723000", "174457.725000", "174457.728000", "174457.730000", "174537.645000", "174537.647000", "174537.650000", "174537.653000", "174537.655000", "174537.658000", "174537.661000", "174537.670000", "174537.673000", "174537.675000", "174537.678000", "174537.680000", "174537.683000", "174537.685000", "174537.688000", "174537.691000", "174537.693000", "174537.696000", "174537.699000", "174537.701000", "174537.704000", "174537.706000", "174537.709000", "174537.712000", "174537.714000", "174537.717000", "174537.720000", "174537.722000", "174537.725000", "174537.727000", "174537.730000", "174537.732000", "174537.735000", "174617.644000", "174617.647000", "174617.650000", "174617.653000", "174617.655000", "174617.658000", "174617.660000", "174617.663000", "174617.676000", "174617.679000", "174617.682000", "174617.684000", "174617.687000", "174617.709000", "174617.711000", "174617.722000", "174617.725000", "174617.727000", "174617.730000", "174617.733000", "174617.736000", "174617.738000", "174617.741000", "174617.743000", "174617.746000", "174617.749000", "174617.751000", "174617.754000", "174617.756000", "174617.759000", "174617.761000", "174617.764000", "174617.767000", "174657.644000", "174657.648000", "174657.651000", "174657.654000", "174657.657000", "174657.660000", "174657.663000", "174657.665000", "174657.668000", "174657.671000", "174657.673000", "174657.676000", "174657.679000", "174657.681000", "174657.684000", "174657.686000", "174657.689000", "174657.692000", "174657.694000", "174657.703000", "174657.706000", "174657.708000", "174657.711000", "174657.713000", "174657.716000", "174657.719000", "174657.721000", "174657.724000", "174657.727000", "174657.729000", "174657.732000", "174657.734000", "174657.737000", "174717.645000", "174717.647000", "174717.650000", "174717.653000", "174717.655000", "174717.658000", "174717.660000", "174717.663000", "174717.666000", "174717.668000", "174717.671000", "174717.673000", "174717.676000", "174717.679000", "174717.681000", "174717.684000", "174717.686000", "174757.645000", "174757.647000", "174757.650000", "174757.653000", "174757.655000", "174757.658000", "174757.660000", "174757.663000", "174757.666000", "174757.668000", "174757.671000", "174757.673000", "174757.676000", "174757.679000", "174757.681000", "174757.684000", "174757.686000", "174757.689000", "174757.692000", "174757.694000", "174757.697000", "174757.699000", "174757.702000", "174757.705000", "174757.707000", "174757.710000", "174757.712000", "174757.715000", "174757.717000", "174757.720000", "174757.722000", "174757.725000", "174757.728000", "174757.730000", "174837.645000", "174837.648000", "174837.650000", "174837.653000", "174837.656000", "174837.658000", "174837.661000", "174837.663000", "174837.666000", "174837.669000", "174837.671000", "174837.674000", "174837.676000", "174837.679000", "174837.682000", "174837.684000", "174837.687000", "174837.690000", "174837.692000", "174837.695000", "174837.698000", "174837.700000", "174837.703000", "174837.705000", "174837.708000", "174837.711000", "174837.713000", "174837.716000", "174837.719000", "174837.721000", "174837.724000", "174837.726000", "174837.729000", "174917.645000", "174917.648000", "174917.650000", "174917.653000", "174917.655000", "174917.658000", "174917.661000", "174917.664000", "174917.666000", "174917.669000", "174917.671000", "174917.674000", "174917.677000", "174917.679000", "174917.682000", "174917.684000", "174917.687000", "174917.690000", "174917.693000", "174917.695000", "174917.698000", "174917.701000", "174917.703000", "174917.706000", "174917.708000", "174917.711000", "174917.714000", "174917.716000", "174917.719000", "174917.721000", "174917.724000", "174917.727000", "174917.729000", "174932.455000", "174932.458000", "174932.460000", "174932.463000", "174932.466000", "174932.468000", "174932.471000", "174932.473000", "174932.476000", "174932.479000", "174932.482000", "174932.484000", "174932.487000"],
      "InstanceNumber": [1, 2, 3, 4, 5, 6, 7, 8, 9, 10, 11, 12, 13, 14, 15, 16, 17, 18, 19, 20, 21, 22, 23, 24, 25, 26, 27, 28, 29, 30, 31, 32, 33, 34, 35, 36, 37, 38, 39, 40, 41, 42, 43, 44, 45, 46, 47, 48, 49, 50, 51, 52, 53, 54, 55, 56, 57, 58, 59, 60, 61, 62, 63, 64, 65, 66, 67, 68, 69, 70, 71, 72, 73, 74, 75, 76, 77, 78, 79, 80, 81, 82, 83, 84, 85, 86, 87, 88, 89, 90, 91, 92, 93, 94, 95, 96, 97, 98, 99, 100, 101, 102, 103, 104, 105, 106, 107, 108, 109, 110, 111, 112, 113, 114, 115, 116, 117, 118, 119, 120, 121, 122, 123, 124, 125, 126, 127, 128, 129, 130, 131, 132, 133, 134, 135, 136, 137, 138, 139, 140, 141, 142, 143, 144, 145, 146, 147, 148, 149, 150, 151, 152, 153, 154, 155, 156, 157, 158, 159, 160, 161, 162, 163, 164, 165, 166, 167, 168, 169, 170, 171, 172, 173, 174, 175, 176, 177, 178, 179, 180, 181, 182, 183, 184, 185, 186, 187, 188, 189, 190, 191, 192, 193, 194, 195, 196, 197, 198, 199, 200, 201, 202, 203, 204, 205, 206, 207, 208, 209, 210, 211, 212, 213, 214, 215, 216, 217, 218, 219, 220, 221, 222, 223, 224, 225, 226, 227, 228, 229, 230, 231, 232, 233, 234, 235, 236, 237, 238, 239, 240, 241, 242, 243, 244, 245, 246, 247, 248, 249, 250, 251, 252, 253, 254, 255, 256, 257, 258, 259, 260, 261, 262, 263, 264, 265, 266, 267, 268, 269, 270, 271, 272, 273, 274, 275, 276, 277, 278, 279, 280, 281, 282, 283, 284, 285, 286, 287, 288, 289, 290, 291, 292, 293, 294, 295, 296, 297, 298, 299, 300, 301, 302, 303, 304, 305, 306, 307, 308, 309, 310, 311, 312, 313, 314, 315, 316, 317, 318, 319, 320, 321, 322, 323, 324, 325, 326, 327, 328, 329, 330, 331, 332, 333, 334, 335, 336, 337, 338, 339, 340, 341, 342, 343, 344, 345, 346, 347, 348, 349, 350, 351, 352, 353, 354, 355, 356, 357, 358, 359, 360, 361, 362, 363, 364, 365, 366, 367, 368, 369, 370, 371, 372, 373, 374, 375, 376, 377, 378, 379, 380, 381, 382, 383, 384, 385, 386, 387, 388, 389, 390, 391, 392],
