{
  "AcquisitionMatrixPE": 88,
  "AcquisitionNumber": 1,
  "AcquisitionTime": "09:53:25.042500",
  "BandwidthPerPixelPhaseEncode": 19.592,
  "BaseResolution": 88,
  "BodyPartExamined": "BRAIN",
  "ConsistencyInfo": "N4_VE11C_LATEST_20160120",
  "ConversionSoftware": "dcm2niix",
  "ConversionSoftwareVersion": "v1.0.20190902",
  "DerivedVendorReportedEchoSpacing": 0.000580014,
  "DeviceSerialNumber": "67050",
  "DwellTime": 2.6e-06,
  "EchoTime": 0.033,
  "EchoTrainLength": 88,
  "EffectiveEchoSpacing": 0.000580014,
  "FlipAngle": 62,
  "ImageOrientationPatientDICOM": [0.997351, -0.068948, -0.0231983, 0.071491, 0.98795, 0.137271],
  "ImageType": [
    "ORIGINAL",
    "PRIMARY",
    "M",
    "ND",
    "MOSAIC"
],
  "ImagingFrequency": 123.251,
  "InPlanePhaseEncodingDirectionDICOM": "COL",
  "InstitutionAddress": "Olive_Street_60_Providence_RI_US_02912",
  "InstitutionName": "BROWN_UNIVERSITY_MRF",
  "InstitutionalDepartmentName": "Department",
  "MRAcquisitionType": "2D",
  "MagneticFieldStrength": 3,
  "Manufacturer": "Siemens",
  "ManufacturersModelName": "Prisma_fit",
  "Modality": "MR",
  "MultibandAccelerationFactor": 4,
  "PartialFourier": 1,
  "PatientPosition": "HFS",
  "PercentPhaseFOV": 100,
  "PhaseEncodingDirection": "j-",
  "PhaseEncodingSteps": 88,
  "PhaseResolution": 1,
  "PixelBandwidth": 2185,
  "ProcedureStepDescription": "ASHENHAV_1222",
  "ProtocolName": "func-bold_task-RDMmotion_run-03",
  "PulseSequenceDetails": "%SiemensSeq%_ep2d_bold",
  "ReceiveCoilActiveElements": "HC1-7;NC1",
  "ReceiveCoilName": "HeadNeck_64",
  "ReconMatrixPE": 88,
  "RefLinesPE": 8,
  "RepetitionTime": 1.2,
  "SAR": 0.0437456,
  "ScanOptions": "FS",
  "ScanningSequence": "EP",
  "SequenceName": "_epfid2d1_88",
  "SequenceVariant": "SK",
  "SeriesDescription": "func-bold_task-RDMmotion_run-03",
  "SeriesNumber": 12,
  "ShimSetting": [1740, -9175, 4427, 559, -64, -420, 144, 77],
  "SliceThickness": 2.4,
  "SliceTiming": [0.55, 0, 0.6275, 0.0775, 0.7075, 0.1575, 0.785, 0.235, 0.865, 0.3125, 0.9425, 0.3925, 1.0225, 0.47, 1.1, 0.55, 0, 0.6275, 0.0775, 0.7075, 0.1575, 0.785, 0.235, 0.865, 0.3125, 0.9425, 0.3925, 1.0225, 0.47, 1.1, 0.55, 0, 0.6275, 0.0775, 0.7075, 0.1575, 0.785, 0.235, 0.865, 0.3125, 0.9425, 0.3925, 1.0225, 0.47, 1.1, 0.55, 0, 0.6275, 0.0775, 0.7075, 0.1575, 0.785, 0.235, 0.865, 0.3125, 0.9425, 0.3925, 1.0225, 0.47, 1.1],
  "SoftwareVersions": "syngo_MR_E11",
  "SpacingBetweenSlices": 2.4,
  "StationName": "AWP67050",
  "TaskName": "RDMmotion",
  "TotalReadoutTime": 0.0504612,
  "TxRefAmp": 214.526,
  "dcmmeta_affine": [
    [-2.3913745880126953, 0.17141595482826233, -0.03228998929262161, 99.19923400878906],
    [0.16531838476657867, 2.368835210800171, 0.33255845308303833, -104.7194595336914],
    [-0.055623117834329605, -0.32913902401924133, 2.3766283988952637, -44.41888427734375],
    [0.0, 0.0, 0.0, 1.0]
],
  "dcmmeta_reorient_transform": [
    [0.0, -1.0, 0.0, 87.0],
    [1.0, 0.0, 0.0, 0.0],
    [0.0, 0.0, 1.0, 0.0],
    [0.0, 0.0, 0.0, 1.0]
],
  "dcmmeta_shape": [88, 88, 60, 125],
  "dcmmeta_slice_dim": 2,
  "dcmmeta_version": 0.6,
  "global": {
    "const": {
      "AcquisitionMatrix": [88, 0, 0, 88],
      "AngioFlag": "N",
      "BitsAllocated": 16,
      "BitsStored": 12,
      "BodyPartExamined": "BRAIN",
      "Columns": 704,
      "DeidentificationMethodCodeSequence": [
        {
          "CodeMeaning": "XNAT DicomEdit 6 Script",
          "CodeValue": "3",
          "CodingSchemeDesignator": "XNAT",
          "CodingSchemeVersion": "1.0"}
],
      "EchoNumbers": 1,
      "EchoTime": 33.0,
      "EchoTrainLength": 88,
      "FlipAngle": 62.0,
      "HighBit": 11,
      "ImageOrientationPatient": [0.9973505001402, -0.0689479530706, -0.0231982679843, 0.07149101622701, 0.98795021970464, 0.13727125694907],
      "ImagePositionPatient": [-903.45187572421, -780.05236477938, -157.2968812959],
      "ImageType": [
        "ORIGINAL",
        "PRIMARY",
        "M",
        "ND",
        "MOSAIC"
],
      "ImagedNucleus": "1H",
      "ImagingFrequency": 123.25063,
      "InPlanePhaseEncodingDirection": "COL",
      "MRAcquisitionType": "2D",
      "MagneticFieldStrength": 3.0,
      "Manufacturer": "SIEMENS",
      "ManufacturerModelName": "Prisma_fit",
      "Modality": "MR",
      "NumberOfAverages": 1.0,
      "NumberOfPhaseEncodingSteps": 88,
      "PercentPhaseFieldOfView": 100.0,
      "PercentSampling": 100.0,
      "PerformedProcedureStepStartTime": "091550.092000",
      "PhotometricInterpretation": "MONOCHROME2",
      "PixelBandwidth": 2185.0,
      "PixelRepresentation": 0,
      "PixelSpacing": [2.3977272510529, 2.3977272510529],
      "ProtocolName": "func-bold_task-RDMmotion_run-03",
      "RepetitionTime": 1200.0,
      "Rows": 704,
      "SAR": 0.0437455864954,
      "SamplesPerPixel": 1,
      "ScanOptions": "FS",
      "ScanningSequence": "EP",
      "SequenceName": "*epfid2d1_88",
      "SequenceVariant": "SK",
      "SeriesDescription": "func-bold_task-RDMmotion_run-03",
      "SeriesNumber": 12,
      "SeriesTime": "095404.034000",
      "SliceLocation": -59.831526165609,
      "SliceThickness": 2.4000000953674,
      "SmallestImagePixelValue": 0,
      "SoftwareVersions": "syngo MR E11",
      "SpacingBetweenSlices": 2.3999999628816,
      "SpecificCharacterSet": "ISO_IR 100",
      "StudyID": "1",
      "StudyTime": "091549.905000",
      "TransmitCoilName": "Body",
      "VariableFlipAngleFlag": "N",
      "WindowCenterWidthExplanation": "Algo1",
      "dBdt": 0.0},
    "slices": {}
  },
  "time": {
    "samples": {
      "AcquisitionNumber": [1, 2, 3, 4, 5, 6, 7, 8, 9, 10, 11, 12, 13, 14, 15, 16, 17, 18, 19, 20, 21, 22, 23, 24, 25, 26, 27, 28, 29, 30, 31, 32, 33, 34, 35, 36, 37, 38, 39, 40, 41, 42, 43, 44, 45, 46, 47, 48, 49, 50, 51, 52, 53, 54, 55, 56, 57, 58, 59, 60, 61, 62, 63, 64, 65, 66, 67, 68, 69, 70, 71, 72, 73, 74, 75, 76, 77, 78, 79, 80, 81, 82, 83, 84, 85, 86, 87, 88, 89, 90, 91, 92, 93, 94, 95, 96, 97, 98, 99, 100, 101, 102, 103, 104, 105, 106, 107, 108, 109, 110, 111, 112, 113, 114, 115, 116, 117, 118, 119, 120, 121, 122, 123, 124, 125],
      "AcquisitionTime": ["095325.042500", "095326.242500", "095327.442500", "095328.642500", "095329.842500", "095331.042500", "095332.242500", "095333.442500", "095334.642500", "095335.842500", "095337.042500", "095338.242500", "095339.442500", "095340.642500", "095341.842500", "095343.042500", "095344.242500", "095345.442500", "095346.642500", "095347.842500", "095349.042500", "095350.242500", "095351.442500", "095352.642500", "095353.842500", "095355.042500", "095356.242500", "095357.442500", "095358.642500", "095359.842500", "095401.042500", "095402.242500", "095403.442500", "095404.642500", "095405.842500", "095407.042500", "095408.242500", "095409.442500", "095410.642500", "095411.842500", "095413.042500", "095414.242500", "095415.442500", "095416.642500", "095417.842500", "095419.042500", "095420.242500", "095421.442500", "095422.642500", "095423.842500", "095425.042500", "095426.242500", "095427.442500", "095428.642500", "095429.842500", "095431.042500", "095432.242500", "095433.442500", "095434.642500", "095435.842500", "095437.042500", "095438.242500", "095439.442500", "095440.642500", "095441.842500", "095443.042500", "095444.242500", "095445.442500", "095446.642500", "095447.842500", "095449.042500", "095450.242500", "095451.442500", "095452.642500", "095453.842500", "095455.042500", "095456.242500", "095457.442500", "095458.642500", "095459.842500", "095501.042500", "095502.242500", "095503.442500", "095504.642500", "095505.842500", "095507.042500", "095508.242500", "095509.442500", "095510.642500", "095511.842500", "095513.042500", "095514.242500", "095515.442500", "095516.642500", "095517.842500", "095519.042500", "095520.242500", "095521.442500", "095522.642500", "095523.842500", "095525.042500", "095526.242500", "095527.442500", "095528.642500", "095529.842500", "095531.042500", "095532.242500", "095533.442500", "095534.642500", "095535.842500", "095537.042500", "095538.242500", "095539.442500", "095540.642500", "095541.842500", "095543.042500", "095544.242500", "095545.442500", "095546.642500", "095547.842500", "095549.042500", "095550.242500", "095551.442500", "095552.642500", "095553.842500"],
      "ContentTime": ["095404.038000", "095404.041000", "095404.043000", "095404.046000", "095404.049000", "095404.055000", "095404.058000", "095404.060000", "095404.063000", "095404.066000", "095404.068000", "095404.071000", "095404.074000", "095404.076000", "095404.079000", "095404.081000", "095404.084000", "095404.086000", "095404.089000", "095404.091000", "095404.094000", "095404.096000", "095404.103000", "095404.105000", "095404.108000", "095404.110000", "095404.113000", "095404.115000", "095404.118000", "095404.120000", "095404.123000", "095404.125000", "095444.032000", "095444.035000", "095444.038000", "095444.040000", "095444.043000", "095444.046000", "095444.055000", "095444.057000", "095444.060000", "095444.062000", "095444.065000", "095444.067000", "095444.070000", "095444.072000", "095444.075000", "095444.077000", "095444.080000", "095444.083000", "095444.085000", "095444.087000", "095444.090000", "095444.093000", "095444.096000", "095444.099000", "095444.102000", "095444.105000", "095444.108000", "095444.114000", "095444.116000", "095444.119000", "095444.121000", "095444.124000", "095444.127000", "095524.033000", "095524.036000", "095524.039000", "095524.041000", "095524.044000", "095524.046000", "095524.049000", "095524.051000", "095524.054000", "095524.057000", "095524.059000", "095524.062000", "095524.064000", "095524.088000", "095524.090000", "095524.093000", "095524.100000", "095524.103000", "095524.105000", "095524.108000", "095524.110000", "095524.113000", "095524.115000", "095524.118000", "095524.121000", "095524.123000", "095524.126000", "095524.128000", "095524.131000", "095524.134000", "095524.136000", "095524.139000", "095524.141000", "095524.144000", "095554.965000", "095554.968000", "095554.971000", "095554.973000", "095554.976000", "095554.978000", "095554.981000", "095554.984000", "095554.986000", "095554.989000", "095554.991000", "095554.994000", "095554.997000", "095555.000000", "095555.003000", "095555.006000", "095555.009000", "095555.011000", "095555.014000", "095555.017000", "095555.019000", "095555.022000", "095555.024000", "095555.027000", "095555.029000", "095555.032000"],
      "InstanceCreationTime": ["095404.038000", "095404.041000", "095404.043000", "095404.046000", "095404.049000", "095404.055000", "095404.058000", "095404.060000", "095404.063000", "095404.066000", "095404.068000", "095404.071000", "095404.074000", "095404.076000", "095404.079000", "095404.081000", "095404.084000", "095404.086000", "095404.089000", "095404.091000", "095404.094000", "095404.096000", "095404.103000", "095404.105000", "095404.108000", "095404.110000", "095404.113000", "095404.115000", "095404.118000", "095404.120000", "095404.123000", "095404.125000", "095444.032000", "095444.035000", "095444.038000", "095444.040000", "095444.043000", "095444.046000", "095444.055000", "095444.057000", "095444.060000", "095444.062000", "095444.065000", "095444.067000", "095444.070000", "095444.072000", "095444.075000", "095444.077000", "095444.080000", "095444.083000", "095444.085000", "095444.087000", "095444.090000", "095444.093000", "095444.096000", "095444.099000", "095444.102000", "095444.105000", "095444.108000", "095444.114000", "095444.116000", "095444.119000", "095444.121000", "095444.124000", "095444.127000", "095524.033000", "095524.036000", "095524.039000", "095524.041000", "095524.044000", "095524.046000", "095524.049000", "095524.051000", "095524.054000", "095524.057000", "095524.059000", "095524.062000", "095524.064000", "095524.088000", "095524.090000", "095524.093000", "095524.100000", "095524.103000", "095524.105000", "095524.108000", "095524.110000", "095524.113000", "095524.115000", "095524.118000", "095524.121000", "095524.123000", "095524.126000", "095524.128000", "095524.131000", "095524.134000", "095524.136000", "095524.139000", "095524.141000", "095524.144000", "095554.965000", "095554.968000", "095554.971000", "095554.973000", "095554.976000", "095554.978000", "095554.981000", "095554.984000", "095554.986000", "095554.989000", "095554.991000", "095554.994000", "095554.997000", "095555.000000", "095555.003000", "095555.006000", "095555.009000", "095555.011000", "095555.014000", "095555.017000", "095555.019000", "095555.022000", "095555.024000", "095555.027000", "095555.029000", "095555.032000"],
      "InstanceNumber": [1, 2, 3, 4, 5, 6, 7, 8, 9, 10, 11, 12, 13, 14, 15, 16, 17, 18, 19, 20, 21, 22, 23, 24, 25, 26, 27, 28, 29, 30, 31, 32, 33, 34, 35, 36, 37, 38, 39, 40, 41, 42, 43, 44, 45, 46, 47, 48, 49, 50, 51, 52, 53, 54, 55, 56, 57, 58, 59, 60, 61, 62, 63, 64, 65, 66, 67, 68, 69, 70, 71, 72, 73, 74, 75, 76, 77, 78, 79, 80, 81, 82, 83, 84, 85, 86, 87, 88, 89, 90, 91, 92, 93, 94, 95, 96, 97, 98, 99, 100, 101, 102, 103, 104, 105, 106, 107, 108, 109, 110, 111, 112, 113, 114, 115, 116, 117, 118, 119, 120, 121, 122, 123, 124, 125],
      "LargestImagePixelValue": [1719, 1854, 1818, 1708, 1705, 1848, 1783, 1905, 1756, 1700, 1585, 1821, 1617, 1673, 1600, 1663, 1681, 1529, 1488, 1504, 1695, 1602, 1559, 1616, 1639, 1725, 1750, 1623, 1737, 1577, 1661, 1366, 1703, 1656, 1692, 1536, 1519, 1614, 1608, 1563, 1609, 1606, 1874, 1592, 1790, 1807, 1529, 1678, 1644, 1657, 1654, 1711, 1642, 1697, 1666, 1508, 1459, 1563, 1553, 1445, 1514, 1412, 1595, 1522, 1431, 1450, 1623, 1556, 1427, 1508, 1633, 1494, 1412, 1551, 1584, 1574, 1756, 1652, 1607, 1527, 1504, 1549, 1541, 1520, 1463, 1539, 1374, 1430, 1514, 1439, 1438, 1626, 1537, 1523, 1569, 1732, 1575, 1536, 1476, 1366, 1565, 1547, 1409, 1601, 1585, 1602, 1489, 1446, 1398, 1527, 1627, 1547, 1556, 1623, 1648, 1471, 1616, 1492, 1583, 1535, 1656, 1707, 1540, 1605, 1529],
      "WindowCenter": [545.0, 545.0, 544.0, 542.0, 542.0, 545.0, 544.0, 545.0, 543.0, 543.0, 540.0, 543.0, 541.0, 541.0, 539.0, 540.0, 540.0, 537.0, 537.0, 537.0, 540.0, 539.0, 538.0, 540.0, 540.0, 542.0, 542.0, 540.0, 542.0, 539.0, 541.0, 535.0, 541.0, 540.0, 541.0, 538.0, 538.0, 540.0, 540.0, 540.0, 541.0, 541.0, 545.0, 541.0, 544.0, 543.0, 539.0, 541.0, 540.0, 540.0, 541.0, 542.0, 541.0, 541.0, 540.0, 537.0, 536.0, 537.0, 538.0, 536.0, 537.0, 536.0, 539.0, 538.0, 536.0, 537.0, 539.0, 538.0, 536.0, 537.0, 539.0, 538.0, 537.0, 539.0, 540.0, 540.0, 543.0, 540.0, 539.0, 537.0, 537.0, 538.0, 538.0, 537.0, 536.0, 538.0, 535.0, 535.0, 537.0, 535.0, 535.0, 538.0, 538.0, 537.0, 538.0, 541.0, 539.0, 538.0, 537.0, 535.0, 538.0, 537.0, 536.0, 539.0, 539.0, 539.0, 537.0, 536.0, 535.0, 537.0, 539.0, 538.0, 539.0, 540.0, 540.0, 537.0, 539.0, 536.0, 537.0, 538.0, 540.0, 541.0, 539.0, 539.0, 537.0],
      "WindowWidth": [1150.0, 1148.0, 1146.0, 1142.0, 1143.0, 1148.0, 1146.0, 1148.0, 1145.0, 1144.0, 1139.0, 1144.0, 1140.0, 1140.0, 1137.0, 1138.0, 1138.0, 1133.0, 1133.0, 1133.0, 1139.0, 1137.0, 1136.0, 1138.0, 1139.0, 1142.0, 1142.0, 1139.0, 1142.0, 1138.0, 1141.0, 1131.0, 1140.0, 1138.0, 1140.0, 1136.0, 1136.0, 1139.0, 1139.0, 1139.0, 1141.0, 1141.0, 1148.0, 1141.0, 1145.0, 1145.0, 1137.0, 1141.0, 1140.0, 1140.0, 1140.0, 1143.0, 1140.0, 1141.0, 1138.0, 1133.0, 1131.0, 1134.0, 1134.0, 1132.0, 1134.0, 1132.0, 1136.0, 1135.0, 1133.0, 1133.0, 1136.0, 1135.0, 1131.0, 1133.0, 1137.0, 1135.0, 1134.0, 1138.0, 1140.0, 1140.0, 1143.0, 1140.0, 1137.0, 1134.0, 1133.0, 1134.0, 1134.0, 1133.0, 1132.0, 1135.0, 1130.0, 1130.0, 1132.0, 1130.0, 1130.0, 1135.0, 1134.0, 1133.0, 1135.0, 1140.0, 1136.0, 1136.0, 1134.0, 1131.0, 1135.0, 1133.0, 1132.0, 1137.0, 1136.0, 1137.0, 1134.0, 1132.0, 1130.0, 1134.0, 1138.0, 1136.0, 1137.0, 1139.0, 1138.0, 1133.0, 1136.0, 1132.0, 1133.0, 1134.0, 1139.0, 1141.0, 1137.0, 1137.0, 1133.0]
    },
    "slices": {}
  }
}