{
  "AcquisitionMatrixPE": 88,
  "AcquisitionNumber": 1,
  "AcquisitionTime": "10:20:48.457500",
  "BandwidthPerPixelPhaseEncode": 19.592,
  "BaseResolution": 88,
  "BodyPartExamined": "BRAIN",
  "ConsistencyInfo": "N4_VE11C_LATEST_20160120",
  "ConversionSoftware": "dcm2niix",
  "ConversionSoftwareVersion": "v1.0.20190902",
  "DerivedVendorReportedEchoSpacing": 0.000580014,
  "DeviceSerialNumber": "67050",
  "DwellTime": 2.6e-06,
  "EchoTime": 0.033,
  "EchoTrainLength": 88,
  "EffectiveEchoSpacing": 0.000580014,
  "FlipAngle": 62,
  "ImageOrientationPatientDICOM": [0.997351, -0.068948, -0.0231983, 0.071491, 0.98795, 0.137271],
  "ImageType": [
    "ORIGINAL",
    "PRIMARY",
    "M",
    "ND",
    "MOSAIC"
],
  "ImagingFrequency": 123.251,
  "InPlanePhaseEncodingDirectionDICOM": "COL",
  "InstitutionAddress": "Olive_Street_60_Providence_RI_US_02912",
  "InstitutionName": "BROWN_UNIVERSITY_MRF",
  "InstitutionalDepartmentName": "Department",
  "MRAcquisitionType": "2D",
  "MagneticFieldStrength": 3,
  "Manufacturer": "Siemens",
  "ManufacturersModelName": "Prisma_fit",
  "Modality": "MR",
  "MultibandAccelerationFactor": 4,
  "PartialFourier": 1,
  "PatientPosition": "HFS",
  "PercentPhaseFOV": 100,
  "PhaseEncodingDirection": "j-",
  "PhaseEncodingSteps": 88,
  "PhaseResolution": 1,
  "PixelBandwidth": 2185,
  "ProcedureStepDescription": "ASHENHAV_1222",
  "ProtocolName": "func-bold_task-RDMcolor_run-05",
  "PulseSequenceDetails": "%SiemensSeq%_ep2d_bold",
  "ReceiveCoilActiveElements": "HC1-7;NC1",
  "ReceiveCoilName": "HeadNeck_64",
  "ReconMatrixPE": 88,
  "RefLinesPE": 8,
  "RepetitionTime": 1.2,
  "SAR": 0.0441942,
  "ScanOptions": "FS",
  "ScanningSequence": "EP",
  "SequenceName": "_epfid2d1_88",
  "SequenceVariant": "SK",
  "SeriesDescription": "func-bold_task-RDMcolor_run-05",
  "SeriesNumber": 17,
  "ShimSetting": [1740, -9175, 4427, 559, -64, -420, 144, 77],
  "SliceThickness": 2.4,
  "SliceTiming": [0.55, 0, 0.6275, 0.0775, 0.7075, 0.155, 0.785, 0.235, 0.865, 0.3125, 0.9425, 0.3925, 1.0225, 0.47, 1.1, 0.55, 0, 0.6275, 0.0775, 0.7075, 0.155, 0.785, 0.235, 0.865, 0.3125, 0.9425, 0.3925, 1.0225, 0.47, 1.1, 0.55, 0, 0.6275, 0.0775, 0.7075, 0.155, 0.785, 0.235, 0.865, 0.3125, 0.9425, 0.3925, 1.0225, 0.47, 1.1, 0.55, 0, 0.6275, 0.0775, 0.7075, 0.155, 0.785, 0.235, 0.865, 0.3125, 0.9425, 0.3925, 1.0225, 0.47, 1.1],
  "SoftwareVersions": "syngo_MR_E11",
  "SpacingBetweenSlices": 2.4,
  "StationName": "AWP67050",
  "TaskName": "RDMcolor",
  "TotalReadoutTime": 0.0504612,
  "TxRefAmp": 214.526,
  "dcmmeta_affine": [
    [-2.3913745880126953, 0.17141595482826233, -0.03228998929262161, 99.19923400878906],
    [0.16531838476657867, 2.368835210800171, 0.33255845308303833, -104.7194595336914],
    [-0.055623117834329605, -0.32913902401924133, 2.3766283988952637, -44.41888427734375],
    [0.0, 0.0, 0.0, 1.0]
],
  "dcmmeta_reorient_transform": [
    [0.0, -1.0, 0.0, 87.0],
    [1.0, 0.0, 0.0, 0.0],
    [0.0, 0.0, 1.0, 0.0],
    [0.0, 0.0, 0.0, 1.0]
],
  "dcmmeta_shape": [88, 88, 60, 392],
  "dcmmeta_slice_dim": 2,
  "dcmmeta_version": 0.6,
  "global": {
    "const": {
      "AcquisitionMatrix": [88, 0, 0, 88],
      "AngioFlag": "N",
      "BitsAllocated": 16,
      "BitsStored": 12,
      "BodyPartExamined": "BRAIN",
      "Columns": 704,
      "DeidentificationMethodCodeSequence": [
        {
          "CodeMeaning": "XNAT DicomEdit 6 Script",
          "CodeValue": "3",
          "CodingSchemeDesignator": "XNAT",
          "CodingSchemeVersion": "1.0"}
],
      "EchoNumbers": 1,
      "EchoTime": 33.0,
      "EchoTrainLength": 88,
      "FlipAngle": 62.0,
      "HighBit": 11,
      "ImageOrientationPatient": [0.9973505001402, -0.0689479530706, -0.0231982679843, 0.07149101622701, 0.98795021970464, 0.13727125694907],
      "ImagePositionPatient": [-903.45187572421, -780.05236477938, -157.2968812959],
      "ImageType": [
        "ORIGINAL",
        "PRIMARY",
        "M",
        "ND",
        "MOSAIC"
],
      "ImagedNucleus": "1H",
      "ImagingFrequency": 123.250639,
      "InPlanePhaseEncodingDirection": "COL",
      "MRAcquisitionType": "2D",
      "MagneticFieldStrength": 3.0,
      "Manufacturer": "SIEMENS",
      "ManufacturerModelName": "Prisma_fit",
      "Modality": "MR",
      "NumberOfAverages": 1.0,
      "NumberOfPhaseEncodingSteps": 88,
      "PercentPhaseFieldOfView": 100.0,
      "PercentSampling": 100.0,
      "PerformedProcedureStepStartTime": "091550.092000",
      "PhotometricInterpretation": "MONOCHROME2",
      "PixelBandwidth": 2185.0,
      "PixelRepresentation": 0,
      "PixelSpacing": [2.3977272510529, 2.3977272510529],
      "ProtocolName": "func-bold_task-RDMcolor_run-05",
      "RepetitionTime": 1200.0,
      "Rows": 704,
      "SAR": 0.04419417247299,
      "SamplesPerPixel": 1,
      "ScanOptions": "FS",
      "ScanningSequence": "EP",
      "SequenceName": "*epfid2d1_88",
      "SequenceVariant": "SK",
      "SeriesDescription": "func-bold_task-RDMcolor_run-05",
      "SeriesNumber": 17,
      "SeriesTime": "102129.004000",
      "SliceLocation": -59.831526165609,
      "SliceThickness": 2.4000000953674,
      "SmallestImagePixelValue": 0,
      "SoftwareVersions": "syngo MR E11",
      "SpacingBetweenSlices": 2.3999999628816,
      "SpecificCharacterSet": "ISO_IR 100",
      "StudyID": "1",
      "StudyTime": "091549.905000",
      "TransmitCoilName": "Body",
      "VariableFlipAngleFlag": "N",
      "WindowCenterWidthExplanation": "Algo1",
      "dBdt": 0.0},
    "slices": {}
  },
  "time": {
    "samples": {
      "AcquisitionNumber": [1, 2, 3, 4, 5, 6, 7, 8, 9, 10, 11, 12, 13, 14, 15, 16, 17, 18, 19, 20, 21, 22, 23, 24, 25, 26, 27, 28, 29, 30, 31, 32, 33, 34, 35, 36, 37, 38, 39, 40, 41, 42, 43, 44, 45, 46, 47, 48, 49, 50, 51, 52, 53, 54, 55, 56, 57, 58, 59, 60, 61, 62, 63, 64, 65, 66, 67, 68, 69, 70, 71, 72, 73, 74, 75, 76, 77, 78, 79, 80, 81, 82, 83, 84, 85, 86, 87, 88, 89, 90, 91, 92, 93, 94, 95, 96, 97, 98, 99, 100, 101, 102, 103, 104, 105, 106, 107, 108, 109, 110, 111, 112, 113, 114, 115, 116, 117, 118, 119, 120, 121, 122, 123, 124, 125, 126, 127, 128, 129, 130, 131, 132, 133, 134, 135, 136, 137, 138, 139, 140, 141, 142, 143, 144, 145, 146, 147, 148, 149, 150, 151, 152, 153, 154, 155, 156, 157, 158, 159, 160, 161, 162, 163, 164, 165, 166, 167, 168, 169, 170, 171, 172, 173, 174, 175, 176, 177, 178, 179, 180, 181, 182, 183, 184, 185, 186, 187, 188, 189, 190, 191, 192, 193, 194, 195, 196, 197, 198, 199, 200, 201, 202, 203, 204, 205, 206, 207, 208, 209, 210, 211, 212, 213, 214, 215, 216, 217, 218, 219, 220, 221, 222, 223, 224, 225, 226, 227, 228, 229, 230, 231, 232, 233, 234, 235, 236, 237, 238, 239, 240, 241, 242, 243, 244, 245, 246, 247, 248, 249, 250, 251, 252, 253, 254, 255, 256, 257, 258, 259, 260, 261, 262, 263, 264, 265, 266, 267, 268, 269, 270, 271, 272, 273, 274, 275, 276, 277, 278, 279, 280, 281, 282, 283, 284, 285, 286, 287, 288, 289, 290, 291, 292, 293, 294, 295, 296, 297, 298, 299, 300, 301, 302, 303, 304, 305, 306, 307, 308, 309, 310, 311, 312, 313, 314, 315, 316, 317, 318, 319, 320, 321, 322, 323, 324, 325, 326, 327, 328, 329, 330, 331, 332, 333, 334, 335, 336, 337, 338, 339, 340, 341, 342, 343, 344, 345, 346, 347, 348, 349, 350, 351, 352, 353, 354, 355, 356, 357, 358, 359, 360, 361, 362, 363, 364, 365, 366, 367, 368, 369, 370, 371, 372, 373, 374, 375, 376, 377, 378, 379, 380, 381, 382, 383, 384, 385, 386, 387, 388, 389, 390, 391, 392],
      "AcquisitionTime": ["102048.457500", "102049.657500", "102050.857500", "102052.057500", "102053.257500", "102054.457500", "102055.657500", "102056.857500", "102058.057500", "102059.257500", "102100.457500", "102101.657500", "102102.857500", "102104.057500", "102105.257500", "102106.457500", "102107.657500", "102108.857500", "102110.057500", "102111.257500", "102112.457500", "102113.657500", "102114.857500", "102116.057500", "102117.257500", "102118.457500", "102119.657500", "102120.857500", "102122.057500", "102123.257500", "102124.457500", "102125.657500", "102126.857500", "102128.057500", "102129.257500", "102130.457500", "102131.657500", "102132.857500", "102134.057500", "102135.257500", "102136.457500", "102137.657500", "102138.857500", "102140.057500", "102141.257500", "102142.457500", "102143.657500", "102144.857500", "102146.057500", "102147.257500", "102148.457500", "102149.657500", "102150.857500", "102152.057500", "102153.257500", "102154.457500", "102155.657500", "102156.857500", "102158.057500", "102159.257500", "102200.457500", "102201.657500", "102202.857500", "102204.057500", "102205.257500", "102206.457500", "102207.657500", "102208.857500", "102210.057500", "102211.257500", "102212.457500", "102213.657500", "102214.857500", "102216.057500", "102217.257500", "102218.457500", "102219.657500", "102220.857500", "102222.057500", "102223.257500", "102224.457500", "102225.657500", "102226.857500", "102228.057500", "102229.257500", "102230.457500", "102231.657500", "102232.857500", "102234.057500", "102235.257500", "102236.457500", "102237.657500", "102238.857500", "102240.057500", "102241.257500", "102242.457500", "102243.657500", "102244.857500", "102246.057500", "102247.257500", "102248.457500", "102249.657500", "102250.857500", "102252.057500", "102253.257500", "102254.457500", "102255.657500", "102256.857500", "102258.057500", "102259.257500", "102300.457500", "102301.657500", "102302.857500", "102304.057500", "102305.257500", "102306.457500", "102307.657500", "102308.857500", "102310.057500", "102311.257500", "102312.457500", "102313.657500", "102314.857500", "102316.057500", "102317.257500", "102318.457500", "102319.657500", "102320.857500", "102322.057500", "102323.257500", "102324.457500", "102325.657500", "102326.857500", "102328.057500", "102329.257500", "102330.457500", "102331.657500", "102332.857500", "102334.057500", "102335.257500", "102336.457500", "102337.657500", "102338.857500", "102340.057500", "102341.257500", "102342.457500", "102343.657500", "102344.857500", "102346.057500", "102347.257500", "102348.457500", "102349.657500", "102350.857500", "102352.057500", "102353.257500", "102354.457500", "102355.657500", "102356.857500", "102358.057500", "102359.257500", "102400.457500", "102401.657500", "102402.857500", "102404.057500", "102405.257500", "102406.457500", "102407.657500", "102408.857500", "102410.057500", "102411.257500", "102412.457500", "102413.657500", "102414.857500", "102416.057500", "102417.257500", "102418.457500", "102419.657500", "102420.857500", "102422.057500", "102423.257500", "102424.457500", "102425.657500", "102426.857500", "102428.057500", "102429.257500", "102430.457500", "102431.657500", "102432.857500", "102434.057500", "102435.257500", "102436.457500", "102437.657500", "102438.857500", "102440.057500", "102441.257500", "102442.457500", "102443.657500", "102444.857500", "102446.057500", "102447.257500", "102448.457500", "102449.657500", "102450.857500", "102452.057500", "102453.257500", "102454.457500", "102455.657500", "102456.857500", "102458.057500", "102459.257500", "102500.457500", "102501.657500", "102502.857500", "102504.057500", "102505.257500", "102506.457500", "102507.657500", "102508.857500", "102510.057500", "102511.257500", "102512.457500", "102513.657500", "102514.857500", "102516.057500", "102517.257500", "102518.457500", "102519.657500", "102520.857500", "102522.057500", "102523.257500", "102524.457500", "102525.657500", "102526.857500", "102528.057500", "102529.257500", "102530.457500", "102531.657500", "102532.857500", "102534.057500", "102535.257500", "102536.457500", "102537.657500", "102538.857500", "102540.057500", "102541.257500", "102542.457500", "102543.657500", "102544.857500", "102546.057500", "102547.257500", "102548.457500", "102549.657500", "102550.857500", "102552.057500", "102553.257500", "102554.457500", "102555.657500", "102556.857500", "102558.057500", "102559.257500", "102600.457500", "102601.657500", "102602.857500", "102604.057500", "102605.257500", "102606.457500", "102607.657500", "102608.857500", "102610.057500", "102611.257500", "102612.457500", "102613.657500", "102614.857500", "102616.057500", "102617.257500", "102618.457500", "102619.657500", "102620.857500", "102622.057500", "102623.257500", "102624.457500", "102625.657500", "102626.857500", "102628.057500", "102629.257500", "102630.457500", "102631.657500", "102632.857500", "102634.057500", "102635.257500", "102636.457500", "102637.657500", "102638.857500", "102640.057500", "102641.257500", "102642.457500", "102643.657500", "102644.857500", "102646.057500", "102647.257500", "102648.457500", "102649.657500", "102650.857500", "102652.057500", "102653.257500", "102654.457500", "102655.657500", "102656.857500", "102658.057500", "102659.257500", "102700.457500", "102701.657500", "102702.857500", "102704.057500", "102705.257500", "102706.457500", "102707.657500", "102708.857500", "102710.057500", "102711.257500", "102712.457500", "102713.657500", "102714.857500", "102716.057500", "102717.257500", "102718.457500", "102719.657500", "102720.857500", "102722.057500", "102723.257500", "102724.457500", "102725.657500", "102726.857500", "102728.057500", "102729.257500", "102730.457500", "102731.657500", "102732.857500", "102734.057500", "102735.257500", "102736.457500", "102737.657500", "102738.857500", "102740.057500", "102741.257500", "102742.457500", "102743.657500", "102744.857500", "102746.057500", "102747.257500", "102748.457500", "102749.657500", "102750.857500", "102752.057500", "102753.257500", "102754.457500", "102755.657500", "102756.857500", "102758.057500", "102759.257500", "102800.457500", "102801.657500", "102802.857500", "102804.057500", "102805.257500", "102806.457500", "102807.657500", "102808.857500", "102810.057500", "102811.257500", "102812.457500", "102813.657500", "102814.857500", "102816.057500", "102817.257500", "102818.457500", "102819.657500", "102820.857500", "102822.057500", "102823.257500", "102824.457500", "102825.657500", "102826.857500", "102828.057500", "102829.257500", "102830.457500", "102831.657500", "102832.857500", "102834.057500", "102835.257500", "102836.457500", "102837.657500"],
      "ContentTime": ["102129.008000", "102129.011000", "102129.014000", "102129.017000", "102129.019000", "102129.022000", "102129.024000", "102129.027000", "102129.030000", "102129.032000", "102129.035000", "102129.038000", "102129.040000", "102129.043000", "102129.045000", "102129.048000", "102129.051000", "102129.053000", "102129.056000", "102129.059000", "102129.061000", "102129.064000", "102129.066000", "102129.069000", "102129.071000", "102129.074000", "102129.076000", "102129.084000", "102129.086000", "102129.089000", "102129.091000", "102129.094000", "102129.097000", "102208.984000", "102208.987000", "102208.990000", "102208.992000", "102208.995000", "102209.004000", "102209.007000", "102209.010000", "102209.012000", "102209.015000", "102209.017000", "102209.020000", "102209.022000", "102209.025000", "102209.027000", "102209.030000", "102209.033000", "102209.035000", "102209.038000", "102209.040000", "102209.043000", "102209.046000", "102209.048000", "102209.051000", "102209.053000", "102209.056000", "102209.058000", "102209.061000", "102209.064000", "102209.066000", "102209.069000", "102209.071000", "102209.081000", "102248.985000", "102248.988000", "102248.991000", "102248.994000", "102248.996000", "102249.000000", "102249.003000", "102249.005000", "102249.008000", "102249.010000", "102249.013000", "102249.015000", "102249.018000", "102249.020000", "102249.023000", "102249.026000", "102249.028000", "102249.031000", "102249.033000", "102249.036000", "102249.038000", "102249.041000", "102249.044000", "102249.046000", "102249.049000", "102249.051000", "102249.054000", "102249.056000", "102249.059000", "102249.061000", "102249.064000", "102249.067000", "102249.069000", "102249.072000", "102328.986000", "102328.988000", "102328.991000", "102328.994000", "102328.996000", "102329.000000", "102329.003000", "102329.005000", "102329.008000", "102329.010000", "102329.013000", "102329.029000", "102329.032000", "102329.034000", "102329.037000", "102329.039000", "102329.042000", "102329.044000", "102329.047000", "102329.050000", "102329.052000", "102329.055000", "102329.058000", "102329.060000", "102329.063000", "102329.065000", "102329.068000", "102329.070000", "102329.073000", "102329.075000", "102329.078000", "102329.081000", "102329.083000", "102408.984000", "102408.987000", "102408.990000", "102408.993000", "102408.995000", "102408.998000", "102409.001000", "102409.004000", "102409.007000", "102409.009000", "102409.012000", "102409.015000", "102409.017000", "102409.020000", "102409.022000", "102409.025000", "102409.028000", "102409.030000", "102409.033000", "102409.035000", "102409.038000", "102409.041000", "102409.043000", "102409.046000", "102409.048000", "102409.051000", "102409.054000", "102409.056000", "102409.059000", "102409.061000", "102409.064000", "102409.067000", "102409.069000", "102448.986000", "102448.989000", "102448.991000", "102448.994000", "102448.997000", "102449.000000", "102449.003000", "102449.005000", "102449.008000", "102449.011000", "102449.013000", "102449.016000", "102449.018000", "102449.021000", "102449.024000", "102449.026000", "102449.029000", "102449.032000", "102449.034000", "102449.037000", "102449.039000", "102449.042000", "102449.044000", "102449.047000", "102449.050000", "102449.052000", "102449.055000", "102449.057000", "102449.060000", "102449.062000", "102449.078000", "102449.081000", "102449.083000", "102449.086000", "102528.985000", "102528.988000", "102528.991000", "102528.993000", "102529.002000", "102529.005000", "102529.008000", "102529.010000", "102529.013000", "102529.015000", "102529.018000", "102529.021000", "102529.023000", "102529.026000", "102529.028000", "102529.031000", "102529.033000", "102529.036000", "102529.039000", "102529.041000", "102529.044000", "102529.046000", "102529.049000", "102529.052000", "102529.054000", "102529.057000", "102529.059000", "102529.062000", "102529.064000", "102529.067000", "102529.070000", "102529.072000", "102529.075000", "102608.984000", "102608.987000", "102608.990000", "102608.992000", "102608.995000", "102608.998000", "102609.001000", "102609.004000", "102609.007000", "102609.009000", "102609.012000", "102609.014000", "102609.017000", "102609.019000", "102609.022000", "102609.025000", "102609.027000", "102609.030000", "102609.032000", "102609.035000", "102609.038000", "102609.040000", "102609.043000", "102609.045000", "102609.048000", "102609.051000", "102609.053000", "102609.056000", "102609.058000", "102609.061000", "102609.064000", "102609.066000", "102609.069000", "102648.986000", "102648.988000", "102648.991000", "102648.994000", "102648.996000", "102648.999000", "102649.002000", "102649.004000", "102649.007000", "102649.009000", "102649.012000", "102649.014000", "102649.017000", "102649.020000", "102649.022000", "102649.025000", "102649.027000", "102649.030000", "102649.033000", "102649.036000", "102649.038000", "102649.041000", "102649.043000", "102649.046000", "102649.048000", "102649.051000", "102649.054000", "102649.057000", "102649.059000", "102649.062000", "102649.064000", "102649.067000", "102649.069000", "102649.072000", "102728.986000", "102728.988000", "102728.991000", "102728.994000", "102728.996000", "102729.000000", "102729.003000", "102729.005000", "102729.008000", "102729.011000", "102729.014000", "102729.016000", "102729.019000", "102729.021000", "102729.024000", "102729.027000", "102729.029000", "102729.032000", "102729.034000", "102729.037000", "102729.039000", "102729.042000", "102729.045000", "102729.047000", "102729.050000", "102729.052000", "102729.055000", "102729.058000", "102729.060000", "102729.063000", "102729.065000", "102729.068000", "102729.070000", "102808.986000", "102808.988000", "102808.991000", "102808.994000", "102808.996000", "102809.000000", "102809.002000", "102809.005000", "102809.008000", "102809.010000", "102809.013000", "102809.016000", "102809.018000", "102809.021000", "102809.023000", "102809.026000", "102809.028000", "102809.031000", "102809.034000", "102809.036000", "102809.039000", "102809.042000", "102809.044000", "102809.047000", "102809.049000", "102809.052000", "102809.054000", "102809.057000", "102809.060000", "102809.062000", "102809.065000", "102809.068000", "102809.070000", "102839.285000", "102839.288000", "102839.290000", "102839.293000", "102839.296000", "102839.298000", "102839.301000", "102839.308000", "102839.311000", "102839.314000", "102839.316000", "102839.319000", "102839.321000", "102839.324000", "102839.327000", "102839.329000", "102839.332000", "102839.335000", "102839.337000", "102839.340000", "102839.343000", "102839.345000", "102839.348000", "102839.350000", "102839.353000", "102839.356000"],
      "InstanceCreationTime": ["102129.008000", "102129.011000", "102129.014000", "102129.017000", "102129.019000", "102129.022000", "102129.024000", "102129.027000", "102129.030000", "102129.032000", "102129.035000", "102129.038000", "102129.040000", "102129.043000", "102129.045000", "102129.048000", "102129.051000", "102129.053000", "102129.056000", "102129.059000", "102129.061000", "102129.064000", "102129.066000", "102129.069000", "102129.071000", "102129.074000", "102129.076000", "102129.084000", "102129.086000", "102129.089000", "102129.091000", "102129.094000", "102129.097000", "102208.984000", "102208.987000", "102208.990000", "102208.992000", "102208.995000", "102209.004000", "102209.007000", "102209.010000", "102209.012000", "102209.015000", "102209.017000", "102209.020000", "102209.022000", "102209.025000", "102209.027000", "102209.030000", "102209.033000", "102209.035000", "102209.038000", "102209.040000", "102209.043000", "102209.046000", "102209.048000", "102209.051000", "102209.053000", "102209.056000", "102209.058000", "102209.061000", "102209.064000", "102209.066000", "102209.069000", "102209.071000", "102209.081000", "102248.985000", "102248.988000", "102248.991000", "102248.994000", "102248.996000", "102249.000000", "102249.003000", "102249.005000", "102249.008000", "102249.010000", "102249.013000", "102249.015000", "102249.018000", "102249.020000", "102249.023000", "102249.026000", "102249.028000", "102249.031000", "102249.033000", "102249.036000", "102249.038000", "102249.041000", "102249.044000", "102249.046000", "102249.049000", "102249.051000", "102249.054000", "102249.056000", "102249.059000", "102249.061000", "102249.064000", "102249.067000", "102249.069000", "102249.072000", "102328.986000", "102328.988000", "102328.991000", "102328.994000", "102328.996000", "102329.000000", "102329.003000", "102329.005000", "102329.008000", "102329.010000", "102329.013000", "102329.029000", "102329.032000", "102329.034000", "102329.037000", "102329.039000", "102329.042000", "102329.044000", "102329.047000", "102329.050000", "102329.052000", "102329.055000", "102329.058000", "102329.060000", "102329.063000", "102329.065000", "102329.068000", "102329.070000", "102329.073000", "102329.075000", "102329.078000", "102329.081000", "102329.083000", "102408.984000", "102408.987000", "102408.990000", "102408.993000", "102408.995000", "102408.998000", "102409.001000", "102409.004000", "102409.007000", "102409.009000", "102409.012000", "102409.015000", "102409.017000", "102409.020000", "102409.022000", "102409.025000", "102409.028000", "102409.030000", "102409.033000", "102409.035000", "102409.038000", "102409.041000", "102409.043000", "102409.046000", "102409.048000", "102409.051000", "102409.054000", "102409.056000", "102409.059000", "102409.061000", "102409.064000", "102409.067000", "102409.069000", "102448.986000", "102448.989000", "102448.991000", "102448.994000", "102448.997000", "102449.000000", "102449.003000", "102449.005000", "102449.008000", "102449.011000", "102449.013000", "102449.016000", "102449.018000", "102449.021000", "102449.024000", "102449.026000", "102449.029000", "102449.032000", "102449.034000", "102449.037000", "102449.039000", "102449.042000", "102449.044000", "102449.047000", "102449.050000", "102449.052000", "102449.055000", "102449.057000", "102449.060000", "102449.062000", "102449.078000", "102449.081000", "102449.083000", "102449.086000", "102528.985000", "102528.988000", "102528.991000", "102528.993000", "102529.002000", "102529.005000", "102529.008000", "102529.010000", "102529.013000", "102529.015000", "102529.018000", "102529.021000", "102529.023000", "102529.026000", "102529.028000", "102529.031000", "102529.033000", "102529.036000", "102529.039000", "102529.041000", "102529.044000", "102529.046000", "102529.049000", "102529.052000", "102529.054000", "102529.057000", "102529.059000", "102529.062000", "102529.064000", "102529.067000", "102529.070000", "102529.072000", "102529.075000", "102608.984000", "102608.987000", "102608.990000", "102608.992000", "102608.995000", "102608.998000", "102609.001000", "102609.004000", "102609.007000", "102609.009000", "102609.012000", "102609.014000", "102609.017000", "102609.019000", "102609.022000", "102609.025000", "102609.027000", "102609.030000", "102609.032000", "102609.035000", "102609.038000", "102609.040000", "102609.043000", "102609.045000", "102609.048000", "102609.051000", "102609.053000", "102609.056000", "102609.058000", "102609.061000", "102609.064000", "102609.066000", "102609.069000", "102648.986000", "102648.988000", "102648.991000", "102648.994000", "102648.996000", "102648.999000", "102649.002000", "102649.004000", "102649.007000", "102649.009000", "102649.012000", "102649.014000", "102649.017000", "102649.020000", "102649.022000", "102649.025000", "102649.027000", "102649.030000", "102649.033000", "102649.036000", "102649.038000", "102649.041000", "102649.043000", "102649.046000", "102649.048000", "102649.051000", "102649.054000", "102649.057000", "102649.059000", "102649.062000", "102649.064000", "102649.067000", "102649.069000", "102649.072000", "102728.986000", "102728.988000", "102728.991000", "102728.994000", "102728.996000", "102729.000000", "102729.003000", "102729.005000", "102729.008000", "102729.011000", "102729.014000", "102729.016000", "102729.019000", "102729.021000", "102729.024000", "102729.027000", "102729.029000", "102729.032000", "102729.034000", "102729.037000", "102729.039000", "102729.042000", "102729.045000", "102729.047000", "102729.050000", "102729.052000", "102729.055000", "102729.058000", "102729.060000", "102729.063000", "102729.065000", "102729.068000", "102729.070000", "102808.986000", "102808.988000", "102808.991000", "102808.994000", "102808.996000", "102809.000000", "102809.002000", "102809.005000", "102809.008000", "102809.010000", "102809.013000", "102809.016000", "102809.018000", "102809.021000", "102809.023000", "102809.026000", "102809.028000", "102809.031000", "102809.034000", "102809.036000", "102809.039000", "102809.042000", "102809.044000", "102809.047000", "102809.049000", "102809.052000", "102809.054000", "102809.057000", "102809.060000", "102809.062000", "102809.065000", "102809.068000", "102809.070000", "102839.285000", "102839.288000", "102839.290000", "102839.293000", "102839.296000", "102839.298000", "102839.301000", "102839.308000", "102839.311000", "102839.314000", "102839.316000", "102839.319000", "102839.321000", "102839.324000", "102839.327000", "102839.329000", "102839.332000", "102839.335000", "102839.337000", "102839.340000", "102839.343000", "102839.345000", "102839.348000", "102839.350000", "102839.353000", "102839.356000"],
      "InstanceNumber": [1, 2, 3, 4, 5, 6, 7, 8, 9, 10, 11, 12, 13, 14, 15, 16, 17, 18, 19, 20, 21, 22, 23, 24, 25, 26, 27, 28, 29, 30, 31, 32, 33, 34, 35, 36, 37, 38, 39, 40, 41, 42, 43, 44, 45, 46, 47, 48, 49, 50, 51, 52, 53, 54, 55, 56, 57, 58, 59, 60, 61, 62, 63, 64, 65, 66, 67, 68, 69, 70, 71, 72, 73, 74, 75, 76, 77, 78, 79, 80, 81, 82, 83, 84, 85, 86, 87, 88, 89, 90, 91, 92, 93, 94, 95, 96, 97, 98, 99, 100, 101, 102, 103, 104, 105, 106, 107, 108, 109, 110, 111, 112, 113, 114, 115, 116, 117, 118, 119, 120, 121, 122, 123, 124, 125, 126, 127, 128, 129, 130, 131, 132, 133, 134, 135, 136, 137, 138, 139, 140, 141, 142, 143, 144, 145, 146, 147, 148, 149, 150, 151, 152, 153, 154, 155, 156, 157, 158, 159, 160, 161, 162, 163, 164, 165, 166, 167, 168, 169, 170, 171, 172, 173, 174, 175, 176, 177, 178, 179, 180, 181, 182, 183, 184, 185, 186, 187, 188, 189, 190, 191, 192, 193, 194, 195, 196, 197, 198, 199, 200, 201, 202, 203, 204, 205, 206, 207, 208, 209, 210, 211, 212, 213, 214, 215, 216, 217, 218, 219, 220, 221, 222, 223, 224, 225, 226, 227, 228, 229, 230, 231, 232, 233, 234, 235, 236, 237, 238, 239, 240, 241, 242, 243, 244, 245, 246, 247, 248, 249, 250, 251, 252, 253, 254, 255, 256, 257, 258, 259, 260, 261, 262, 263, 264, 265, 266, 267, 268, 269, 270, 271, 272, 273, 274, 275, 276, 277, 278, 279, 280, 281, 282, 283, 284, 285, 286, 287, 288, 289, 290, 291, 292, 293, 294, 295, 296, 297, 298, 299, 300, 301, 302, 303, 304, 305, 306, 307, 308, 309, 310, 311, 312, 313, 314, 315, 316, 317, 318, 319, 320, 321, 322, 323, 324, 325, 326, 327, 328, 329, 330, 331, 332, 333, 334, 335, 336, 337, 338, 339, 340, 341, 342, 343, 344, 345, 346, 347, 348, 349, 350, 351, 352, 353, 354, 355, 356, 357, 358, 359, 360, 361, 362, 363, 364, 365, 366, 367, 368, 369, 370, 371, 372, 373, 374, 375, 376, 377, 378, 379, 380, 381, 382, 383, 384, 385, 386, 387, 388, 389, 390, 391, 392],
