{
  "AcquisitionMatrixPE": 88,
  "AcquisitionNumber": 1,
  "AcquisitionTime": "13:44:52.557500",
  "BandwidthPerPixelPhaseEncode": 19.592,
  "BaseResolution": 88,
  "BodyPartExamined": "BRAIN",
  "ConsistencyInfo": "N4_VE11C_LATEST_20160120",
  "ConversionSoftware": "dcm2niix",
  "ConversionSoftwareVersion": "v1.0.20190902",
  "DerivedVendorReportedEchoSpacing": 0.000580014,
  "DeviceSerialNumber": "67050",
  "DwellTime": 2.6e-06,
  "EchoTime": 0.033,
  "EchoTrainLength": 88,
  "EffectiveEchoSpacing": 0.000580014,
  "FlipAngle": 62,
  "ImageOrientationPatientDICOM": [0.997562, 0.0543138, -0.0438263, -0.0555977, 0.998043, -0.0286287],
  "ImageType": [
    "ORIGINAL",
    "PRIMARY",
    "M",
    "ND",
    "MOSAIC"
],
  "ImagingFrequency": 123.251,
  "InPlanePhaseEncodingDirectionDICOM": "COL",
  "InstitutionAddress": "Olive_Street_60_Providence_RI_US_02912",
  "InstitutionName": "BROWN_UNIVERSITY_MRF",
  "InstitutionalDepartmentName": "Department",
  "MRAcquisitionType": "2D",
  "MagneticFieldStrength": 3,
  "Manufacturer": "Siemens",
  "ManufacturersModelName": "Prisma_fit",
  "Modality": "MR",
  "MultibandAccelerationFactor": 4,
  "PartialFourier": 1,
  "PatientPosition": "HFS",
  "PercentPhaseFOV": 100,
  "PhaseEncodingDirection": "j-",
  "PhaseEncodingSteps": 88,
  "PhaseResolution": 1,
  "PixelBandwidth": 2185,
  "ProcedureStepDescription": "ASHENHAV_1222",
  "ProtocolName": "func-bold_task-RDMcolor_run-02",
  "PulseSequenceDetails": "%SiemensSeq%_ep2d_bold",
  "ReceiveCoilActiveElements": "HC1-7;NC1",
  "ReceiveCoilName": "HeadNeck_64",
  "ReconMatrixPE": 88,
  "RefLinesPE": 8,
  "RepetitionTime": 1.2,
  "SAR": 0.0484969,
  "ScanOptions": "FS",
  "ScanningSequence": "EP",
  "SequenceName": "_epfid2d1_88",
  "SequenceVariant": "SK",
  "SeriesDescription": "func-bold_task-RDMcolor_run-02",
  "SeriesNumber": 10,
  "ShimSetting": [1749, -9087, 4383, 363, -43, -237, -162, 6],
  "SliceThickness": 2.4,
  "SliceTiming": [0.55, 0, 0.63, 0.08, 0.7075, 0.1575, 0.7875, 0.235, 0.865, 0.315, 0.945, 0.3925, 1.0225, 0.4725, 1.1025, 0.55, 0, 0.63, 0.08, 0.7075, 0.1575, 0.7875, 0.235, 0.865, 0.315, 0.945, 0.3925, 1.0225, 0.4725, 1.1025, 0.55, 0, 0.63, 0.08, 0.7075, 0.1575, 0.7875, 0.235, 0.865, 0.315, 0.945, 0.3925, 1.0225, 0.4725, 1.1025, 0.55, 0, 0.63, 0.08, 0.7075, 0.1575, 0.7875, 0.235, 0.865, 0.315, 0.945, 0.3925, 1.0225, 0.4725, 1.1025],
  "SoftwareVersions": "syngo_MR_E11",
  "SpacingBetweenSlices": 2.4,
  "StationName": "AWP67050",
  "TaskName": "RDMcolor",
  "TotalReadoutTime": 0.0504612,
  "TxRefAmp": 218.677,
  "dcmmeta_affine": [
    [-2.391880750656128, -0.13330815732479095, -0.10124549269676208, 114.77777099609375],
    [-0.13022959232330322, 2.3930342197418213, -0.07438936084508896, -83.39673614501953],
    [-0.10508359968662262, 0.06864388287067413, 2.3967092037200928, -57.30762481689453],
    [0.0, 0.0, 0.0, 1.0]
],
  "dcmmeta_reorient_transform": [
    [0.0, -1.0, 0.0, 87.0],
    [1.0, 0.0, 0.0, 0.0],
    [0.0, 0.0, 1.0, 0.0],
    [0.0, 0.0, 0.0, 1.0]
],
  "dcmmeta_shape": [88, 88, 60, 392],
  "dcmmeta_slice_dim": 2,
  "dcmmeta_version": 0.6,
  "global": {
    "const": {
      "AcquisitionMatrix": [88, 0, 0, 88],
      "AngioFlag": "N",
      "BitsAllocated": 16,
      "BitsStored": 12,
      "BodyPartExamined": "BRAIN",
      "Columns": 704,
      "DeidentificationMethodCodeSequence": [
        {
          "CodeMeaning": "XNAT DicomEdit 6 Script",
          "CodeValue": "3",
          "CodingSchemeDesignator": "XNAT",
          "CodingSchemeVersion": "1.0"}
],
      "EchoNumbers": 1,
      "EchoTime": 33.0,
      "EchoTrainLength": 88,
      "FlipAngle": 62.0,
      "HighBit": 11,
      "ImageOrientationPatient": [0.99756166082786, 0.05431376454039, -0.0438263371481, -0.0555977162785, 0.9980427294218, -0.0286287302008],
      "ImagePositionPatient": [-798.82033143562, -901.96250683216, 2.1724582172377],
      "ImageType": [
        "ORIGINAL",
        "PRIMARY",
        "M",
        "ND",
        "MOSAIC"
],
      "ImagedNucleus": "1H",
      "ImagingFrequency": 123.25053,
      "InPlanePhaseEncodingDirection": "COL",
      "MRAcquisitionType": "2D",
      "MagneticFieldStrength": 3.0,
      "Manufacturer": "SIEMENS",
      "ManufacturerModelName": "Prisma_fit",
      "Modality": "MR",
      "NumberOfAverages": 1.0,
      "NumberOfPhaseEncodingSteps": 88,
      "PercentPhaseFieldOfView": 100.0,
      "PercentSampling": 100.0,
      "PerformedProcedureStepStartTime": "132250.855000",
      "PhotometricInterpretation": "MONOCHROME2",
      "PixelBandwidth": 2185.0,
      "PixelRepresentation": 0,
      "PixelSpacing": [2.3977272510529, 2.3977272510529],
      "ProtocolName": "func-bold_task-RDMcolor_run-02",
      "RepetitionTime": 1200.0,
      "Rows": 704,
      "SAR": 0.04849686522983,
      "SamplesPerPixel": 1,
      "ScanOptions": "FS",
      "ScanningSequence": "EP",
      "SequenceName": "*epfid2d1_88",
      "SequenceVariant": "SK",
      "SeriesDescription": "func-bold_task-RDMcolor_run-02",
      "SeriesNumber": 10,
      "SeriesTime": "134531.920000",
      "SliceLocation": -59.486093979055,
      "SliceThickness": 2.4000000953674,
      "SmallestImagePixelValue": 0,
      "SoftwareVersions": "syngo MR E11",
      "SpacingBetweenSlices": 2.3999999920267,
      "SpecificCharacterSet": "ISO_IR 100",
      "StudyID": "1",
      "StudyTime": "132250.761000",
      "TransmitCoilName": "Body",
      "VariableFlipAngleFlag": "N",
      "WindowCenterWidthExplanation": "Algo1",
      "dBdt": 0.0},
    "slices": {}
  },
  "time": {
    "samples": {
      "AcquisitionNumber": [1, 2, 3, 4, 5, 6, 7, 8, 9, 10, 11, 12, 13, 14, 15, 16, 17, 18, 19, 20, 21, 22, 23, 24, 25, 26, 27, 28, 29, 30, 31, 32, 33, 34, 35, 36, 37, 38, 39, 40, 41, 42, 43, 44, 45, 46, 47, 48, 49, 50, 51, 52, 53, 54, 55, 56, 57, 58, 59, 60, 61, 62, 63, 64, 65, 66, 67, 68, 69, 70, 71, 72, 73, 74, 75, 76, 77, 78, 79, 80, 81, 82, 83, 84, 85, 86, 87, 88, 89, 90, 91, 92, 93, 94, 95, 96, 97, 98, 99, 100, 101, 102, 103, 104, 105, 106, 107, 108, 109, 110, 111, 112, 113, 114, 115, 116, 117, 118, 119, 120, 121, 122, 123, 124, 125, 126, 127, 128, 129, 130, 131, 132, 133, 134, 135, 136, 137, 138, 139, 140, 141, 142, 143, 144, 145, 146, 147, 148, 149, 150, 151, 152, 153, 154, 155, 156, 157, 158, 159, 160, 161, 162, 163, 164, 165, 166, 167, 168, 169, 170, 171, 172, 173, 174, 175, 176, 177, 178, 179, 180, 181, 182, 183, 184, 185, 186, 187, 188, 189, 190, 191, 192, 193, 194, 195, 196, 197, 198, 199, 200, 201, 202, 203, 204, 205, 206, 207, 208, 209, 210, 211, 212, 213, 214, 215, 216, 217, 218, 219, 220, 221, 222, 223, 224, 225, 226, 227, 228, 229, 230, 231, 232, 233, 234, 235, 236, 237, 238, 239, 240, 241, 242, 243, 244, 245, 246, 247, 248, 249, 250, 251, 252, 253, 254, 255, 256, 257, 258, 259, 260, 261, 262, 263, 264, 265, 266, 267, 268, 269, 270, 271, 272, 273, 274, 275, 276, 277, 278, 279, 280, 281, 282, 283, 284, 285, 286, 287, 288, 289, 290, 291, 292, 293, 294, 295, 296, 297, 298, 299, 300, 301, 302, 303, 304, 305, 306, 307, 308, 309, 310, 311, 312, 313, 314, 315, 316, 317, 318, 319, 320, 321, 322, 323, 324, 325, 326, 327, 328, 329, 330, 331, 332, 333, 334, 335, 336, 337, 338, 339, 340, 341, 342, 343, 344, 345, 346, 347, 348, 349, 350, 351, 352, 353, 354, 355, 356, 357, 358, 359, 360, 361, 362, 363, 364, 365, 366, 367, 368, 369, 370, 371, 372, 373, 374, 375, 376, 377, 378, 379, 380, 381, 382, 383, 384, 385, 386, 387, 388, 389, 390, 391, 392],
      "AcquisitionTime": ["134452.557500", "134453.757500", "134454.957500", "134456.157500", "134457.357500", "134458.557500", "134459.757500", "134500.957500", "134502.157500", "134503.357500", "134504.557500", "134505.757500", "134506.957500", "134508.157500", "134509.357500", "134510.557500", "134511.757500", "134512.957500", "134514.157500", "134515.357500", "134516.557500", "134517.757500", "134518.957500", "134520.157500", "134521.357500", "134522.557500", "134523.757500", "134524.957500", "134526.157500", "134527.357500", "134528.557500", "134529.757500", "134530.957500", "134532.157500", "134533.357500", "134534.557500", "134535.757500", "134536.957500", "134538.157500", "134539.357500", "134540.557500", "134541.757500", "134542.957500", "134544.157500", "134545.357500", "134546.557500", "134547.757500", "134548.957500", "134550.157500", "134551.357500", "134552.557500", "134553.757500", "134554.957500", "134556.157500", "134557.357500", "134558.557500", "134559.757500", "134600.957500", "134602.157500", "134603.357500", "134604.557500", "134605.757500", "134606.957500", "134608.157500", "134609.357500", "134610.557500", "134611.757500", "134612.957500", "134614.157500", "134615.357500", "134616.557500", "134617.757500", "134618.957500", "134620.157500", "134621.357500", "134622.557500", "134623.757500", "134624.957500", "134626.157500", "134627.357500", "134628.557500", "134629.757500", "134630.957500", "134632.157500", "134633.357500", "134634.557500", "134635.757500", "134636.957500", "134638.157500", "134639.357500", "134640.557500", "134641.757500", "134642.957500", "134644.157500", "134645.357500", "134646.557500", "134647.757500", "134648.957500", "134650.157500", "134651.357500", "134652.557500", "134653.757500", "134654.957500", "134656.157500", "134657.357500", "134658.557500", "134659.757500", "134700.957500", "134702.157500", "134703.357500", "134704.557500", "134705.757500", "134706.957500", "134708.157500", "134709.357500", "134710.557500", "134711.757500", "134712.957500", "134714.157500", "134715.357500", "134716.557500", "134717.757500", "134718.957500", "134720.157500", "134721.357500", "134722.557500", "134723.757500", "134724.957500", "134726.157500", "134727.357500", "134728.557500", "134729.757500", "134730.957500", "134732.157500", "134733.357500", "134734.557500", "134735.757500", "134736.957500", "134738.157500", "134739.357500", "134740.557500", "134741.757500", "134742.957500", "134744.157500", "134745.357500", "134746.557500", "134747.757500", "134748.957500", "134750.157500", "134751.357500", "134752.557500", "134753.757500", "134754.957500", "134756.157500", "134757.357500", "134758.557500", "134759.757500", "134800.957500", "134802.157500", "134803.357500", "134804.557500", "134805.757500", "134806.957500", "134808.157500", "134809.357500", "134810.557500", "134811.757500", "134812.957500", "134814.157500", "134815.357500", "134816.557500", "134817.757500", "134818.957500", "134820.157500", "134821.357500", "134822.557500", "134823.757500", "134824.957500", "134826.157500", "134827.357500", "134828.557500", "134829.757500", "134830.957500", "134832.157500", "134833.357500", "134834.557500", "134835.757500", "134836.957500", "134838.157500", "134839.357500", "134840.557500", "134841.757500", "134842.957500", "134844.157500", "134845.357500", "134846.557500", "134847.757500", "134848.957500", "134850.157500", "134851.357500", "134852.557500", "134853.757500", "134854.957500", "134856.157500", "134857.357500", "134858.557500", "134859.757500", "134900.957500", "134902.157500", "134903.357500", "134904.557500", "134905.757500", "134906.957500", "134908.157500", "134909.357500", "134910.557500", "134911.757500", "134912.957500", "134914.157500", "134915.357500", "134916.557500", "134917.757500", "134918.957500", "134920.157500", "134921.357500", "134922.557500", "134923.757500", "134924.957500", "134926.157500", "134927.357500", "134928.557500", "134929.757500", "134930.957500", "134932.157500", "134933.357500", "134934.557500", "134935.757500", "134936.957500", "134938.157500", "134939.357500", "134940.557500", "134941.757500", "134942.957500", "134944.157500", "134945.357500", "134946.557500", "134947.757500", "134948.957500", "134950.157500", "134951.357500", "134952.557500", "134953.757500", "134954.957500", "134956.157500", "134957.357500", "134958.557500", "134959.757500", "135000.957500", "135002.157500", "135003.357500", "135004.557500", "135005.757500", "135006.957500", "135008.157500", "135009.357500", "135010.557500", "135011.757500", "135012.957500", "135014.157500", "135015.357500", "135016.557500", "135017.757500", "135018.957500", "135020.157500", "135021.357500", "135022.557500", "135023.757500", "135024.957500", "135026.157500", "135027.357500", "135028.557500", "135029.757500", "135030.957500", "135032.157500", "135033.357500", "135034.557500", "135035.757500", "135036.957500", "135038.157500", "135039.357500", "135040.557500", "135041.757500", "135042.957500", "135044.157500", "135045.357500", "135046.557500", "135047.757500", "135048.957500", "135050.157500", "135051.357500", "135052.557500", "135053.757500", "135054.957500", "135056.157500", "135057.357500", "135058.557500", "135059.757500", "135100.957500", "135102.157500", "135103.357500", "135104.557500", "135105.757500", "135106.957500", "135108.157500", "135109.357500", "135110.557500", "135111.757500", "135112.957500", "135114.157500", "135115.357500", "135116.557500", "135117.757500", "135118.957500", "135120.157500", "135121.357500", "135122.557500", "135123.757500", "135124.957500", "135126.157500", "135127.357500", "135128.557500", "135129.757500", "135130.957500", "135132.157500", "135133.357500", "135134.557500", "135135.757500", "135136.957500", "135138.157500", "135139.357500", "135140.557500", "135141.757500", "135142.957500", "135144.157500", "135145.357500", "135146.557500", "135147.757500", "135148.957500", "135150.157500", "135151.357500", "135152.557500", "135153.757500", "135154.957500", "135156.157500", "135157.357500", "135158.557500", "135159.757500", "135200.957500", "135202.157500", "135203.357500", "135204.557500", "135205.757500", "135206.957500", "135208.157500", "135209.357500", "135210.557500", "135211.757500", "135212.957500", "135214.157500", "135215.357500", "135216.557500", "135217.757500", "135218.957500", "135220.157500", "135221.357500", "135222.557500", "135223.757500", "135224.957500", "135226.157500", "135227.357500", "135228.557500", "135229.757500", "135230.957500", "135232.157500", "135233.357500", "135234.557500", "135235.757500", "135236.957500", "135238.157500", "135239.357500", "135240.557500", "135241.757500"],
      "ContentTime": ["134531.924000", "134531.927000", "134531.936000", "134531.945000", "134531.948000", "134531.950000", "134531.953000", "134531.956000", "134531.958000", "134531.961000", "134531.964000", "134531.966000", "134531.969000", "134531.971000", "134531.974000", "134531.980000", "134531.982000", "134531.985000", "134531.987000", "134531.990000", "134531.993000", "134531.995000", "134531.998000", "134532.002000", "134532.004000", "134532.007000", "134532.010000", "134532.012000", "134532.015000", "134532.017000", "134532.020000", "134532.023000", "134611.921000", "134611.923000", "134611.926000", "134611.929000", "134611.931000", "134611.934000", "134611.939000", "134611.942000", "134611.945000", "134611.947000", "134611.950000", "134611.953000", "134611.955000", "134611.958000", "134611.960000", "134611.963000", "134611.965000", "134611.968000", "134611.970000", "134611.973000", "134611.976000", "134611.978000", "134611.981000", "134611.983000", "134611.986000", "134611.989000", "134611.991000", "134611.994000", "134611.996000", "134611.999000", "134612.001000", "134612.004000", "134612.007000", "134651.921000", "134651.923000", "134651.926000", "134651.928000", "134651.931000", "134651.934000", "134651.937000", "134651.939000", "134651.942000", "134651.944000", "134651.947000", "134651.949000", "134651.952000", "134651.955000", "134651.957000", "134651.960000", "134651.970000", "134651.973000", "134651.976000", "134651.979000", "134651.981000", "134651.984000", "134651.987000", "134651.990000", "134651.992000", "134651.995000", "134651.998000", "134652.001000", "134652.004000", "134652.007000", "134652.009000", "134652.012000", "134652.015000", "134731.920000", "134731.922000", "134731.925000", "134731.928000", "134731.930000", "134731.933000", "134731.936000", "134731.938000", "134731.941000", "134731.943000", "134731.946000", "134731.948000", "134731.951000", "134731.954000", "134731.956000", "134731.959000", "134731.961000", "134731.964000", "134731.966000", "134731.969000", "134731.971000", "134731.974000", "134731.977000", "134731.979000", "134731.982000", "134731.984000", "134731.987000", "134731.990000", "134731.992000", "134731.995000", "134731.997000", "134732.001000", "134732.004000", "134732.006000", "134811.919000", "134811.922000", "134811.925000", "134811.928000", "134811.930000", "134811.933000", "134811.935000", "134811.938000", "134811.940000", "134811.943000", "134811.946000", "134811.948000", "134811.951000", "134811.954000", "134811.956000", "134811.959000", "134811.961000", "134811.964000", "134811.966000", "134811.969000", "134811.972000", "134811.974000", "134811.977000", "134811.979000", "134811.982000", "134811.985000", "134811.987000", "134811.990000", "134811.992000", "134811.995000", "134811.997000", "134812.001000", "134812.004000", "134851.920000", "134851.923000", "134851.926000", "134851.928000", "134851.931000", "134851.945000", "134851.948000", "134851.950000", "134851.953000", "134851.956000", "134851.958000", "134851.961000", "134851.963000", "134851.966000", "134851.969000", "134851.971000", "134851.974000", "134851.977000", "134851.979000", "134851.982000", "134851.984000", "134851.987000", "134851.989000", "134851.992000", "134851.995000", "134851.998000", "134852.002000", "134852.005000", "134852.008000", "134852.011000", "134852.013000", "134852.016000", "134852.019000", "134931.919000", "134931.922000", "134931.925000", "134931.928000", "134931.930000", "134931.933000", "134931.935000", "134931.938000", "134931.941000", "134931.943000", "134931.946000", "134931.949000", "134931.951000", "134931.954000", "134931.956000", "134931.959000", "134931.962000", "134931.964000", "134931.967000", "134931.969000", "134931.972000", "134931.974000", "134931.977000", "134931.980000", "134931.983000", "134931.985000", "134931.988000", "134931.990000", "134931.993000", "134931.995000", "134931.998000", "134932.002000", "134932.004000", "134932.007000", "135011.919000", "135011.922000", "135011.925000", "135011.928000", "135011.930000", "135011.933000", "135011.935000", "135011.938000", "135011.941000", "135011.943000", "135011.946000", "135011.949000", "135011.951000", "135011.961000", "135011.963000", "135011.966000", "135011.969000", "135011.971000", "135011.974000", "135011.977000", "135011.979000", "135011.982000", "135011.984000", "135011.987000", "135011.990000", "135011.992000", "135011.995000", "135011.997000", "135012.001000", "135012.004000", "135012.006000", "135012.009000", "135012.011000", "135051.920000", "135051.923000", "135051.926000", "135051.937000", "135051.940000", "135051.942000", "135051.945000", "135051.948000", "135051.951000", "135051.953000", "135051.956000", "135051.958000", "135051.961000", "135051.964000", "135051.966000", "135051.969000", "135051.972000", "135051.974000", "135051.977000", "135051.979000", "135051.982000", "135051.985000", "135051.987000", "135051.990000", "135051.993000", "135051.995000", "135051.998000", "135052.001000", "135052.003000", "135052.006000", "135052.009000", "135052.012000", "135052.014000", "135131.920000", "135131.923000", "135131.926000", "135131.929000", "135131.931000", "135131.934000", "135131.937000", "135131.939000", "135131.942000", "135131.945000", "135131.947000", "135131.950000", "135131.952000", "135131.955000", "135131.958000", "135131.960000", "135131.963000", "135131.966000", "135131.968000", "135131.971000", "135131.973000", "135131.976000", "135131.979000", "135131.981000", "135131.984000", "135131.986000", "135131.989000", "135131.992000", "135131.994000", "135131.997000", "135132.000000", "135132.003000", "135132.006000", "135132.008000", "135211.920000", "135211.922000", "135211.925000", "135211.928000", "135211.930000", "135211.933000", "135211.935000", "135211.938000", "135211.941000", "135211.943000", "135211.946000", "135211.949000", "135211.951000", "135211.954000", "135211.956000", "135211.959000", "135211.962000", "135211.964000", "135211.967000", "135211.970000", "135211.972000", "135211.975000", "135212.000000", "135212.003000", "135212.005000", "135212.008000", "135212.011000", "135212.013000", "135212.016000", "135212.019000", "135212.022000", "135212.025000", "135212.027000", "135243.672000", "135243.675000", "135243.678000", "135243.680000", "135243.683000", "135243.691000", "135243.694000", "135243.696000", "135243.699000", "135243.702000", "135243.704000", "135243.707000", "135243.710000", "135243.712000", "135243.715000", "135243.717000", "135243.720000", "135243.723000", "135243.725000", "135243.728000", "135243.731000", "135243.733000", "135243.736000", "135243.739000", "135243.741000", "135243.744000", "135243.746000"],
      "InstanceCreationTime": ["134531.924000", "134531.927000", "134531.936000", "134531.945000", "134531.948000", "134531.950000", "134531.953000", "134531.956000", "134531.958000", "134531.961000", "134531.964000", "134531.966000", "134531.969000", "134531.971000", "134531.974000", "134531.980000", "134531.982000", "134531.985000", "134531.987000", "134531.990000", "134531.993000", "134531.995000", "134531.998000", "134532.002000", "134532.004000", "134532.007000", "134532.010000", "134532.012000", "134532.015000", "134532.017000", "134532.020000", "134532.023000", "134611.921000", "134611.923000", "134611.926000", "134611.929000", "134611.931000", "134611.934000", "134611.939000", "134611.942000", "134611.945000", "134611.947000", "134611.950000", "134611.953000", "134611.955000", "134611.958000", "134611.960000", "134611.963000", "134611.965000", "134611.968000", "134611.970000", "134611.973000", "134611.976000", "134611.978000", "134611.981000", "134611.983000", "134611.986000", "134611.989000", "134611.991000", "134611.994000", "134611.996000", "134611.999000", "134612.001000", "134612.004000", "134612.007000", "134651.921000", "134651.923000", "134651.926000", "134651.928000", "134651.931000", "134651.934000", "134651.937000", "134651.939000", "134651.942000", "134651.944000", "134651.947000", "134651.949000", "134651.952000", "134651.955000", "134651.957000", "134651.960000", "134651.970000", "134651.973000", "134651.976000", "134651.979000", "134651.981000", "134651.984000", "134651.987000", "134651.990000", "134651.992000", "134651.995000", "134651.998000", "134652.001000", "134652.004000", "134652.007000", "134652.009000", "134652.012000", "134652.015000", "134731.920000", "134731.922000", "134731.925000", "134731.928000", "134731.930000", "134731.933000", "134731.936000", "134731.938000", "134731.941000", "134731.943000", "134731.946000", "134731.948000", "134731.951000", "134731.954000", "134731.956000", "134731.959000", "134731.961000", "134731.964000", "134731.966000", "134731.969000", "134731.971000", "134731.974000", "134731.977000", "134731.979000", "134731.982000", "134731.984000", "134731.987000", "134731.990000", "134731.992000", "134731.995000", "134731.997000", "134732.001000", "134732.004000", "134732.006000", "134811.919000", "134811.922000", "134811.925000", "134811.928000", "134811.930000", "134811.933000", "134811.935000", "134811.938000", "134811.940000", "134811.943000", "134811.946000", "134811.948000", "134811.951000", "134811.954000", "134811.956000", "134811.959000", "134811.961000", "134811.964000", "134811.966000", "134811.969000", "134811.972000", "134811.974000", "134811.977000", "134811.979000", "134811.982000", "134811.985000", "134811.987000", "134811.990000", "134811.992000", "134811.995000", "134811.997000", "134812.001000", "134812.004000", "134851.920000", "134851.923000", "134851.926000", "134851.928000", "134851.931000", "134851.945000", "134851.948000", "134851.950000", "134851.953000", "134851.956000", "134851.958000", "134851.961000", "134851.963000", "134851.966000", "134851.969000", "134851.971000", "134851.974000", "134851.977000", "134851.979000", "134851.982000", "134851.984000", "134851.987000", "134851.989000", "134851.992000", "134851.995000", "134851.998000", "134852.002000", "134852.005000", "134852.008000", "134852.011000", "134852.013000", "134852.016000", "134852.019000", "134931.919000", "134931.922000", "134931.925000", "134931.928000", "134931.930000", "134931.933000", "134931.935000", "134931.938000", "134931.941000", "134931.943000", "134931.946000", "134931.949000", "134931.951000", "134931.954000", "134931.956000", "134931.959000", "134931.962000", "134931.964000", "134931.967000", "134931.969000", "134931.972000", "134931.974000", "134931.977000", "134931.980000", "134931.983000", "134931.985000", "134931.988000", "134931.990000", "134931.993000", "134931.995000", "134931.998000", "134932.002000", "134932.004000", "134932.007000", "135011.919000", "135011.922000", "135011.925000", "135011.928000", "135011.930000", "135011.933000", "135011.935000", "135011.938000", "135011.941000", "135011.943000", "135011.946000", "135011.949000", "135011.951000", "135011.961000", "135011.963000", "135011.966000", "135011.969000", "135011.971000", "135011.974000", "135011.977000", "135011.979000", "135011.982000", "135011.984000", "135011.987000", "135011.990000", "135011.992000", "135011.995000", "135011.997000", "135012.001000", "135012.004000", "135012.006000", "135012.009000", "135012.011000", "135051.920000", "135051.923000", "135051.926000", "135051.937000", "135051.940000", "135051.942000", "135051.945000", "135051.948000", "135051.951000", "135051.953000", "135051.956000", "135051.958000", "135051.961000", "135051.964000", "135051.966000", "135051.969000", "135051.972000", "135051.974000", "135051.977000", "135051.979000", "135051.982000", "135051.985000", "135051.987000", "135051.990000", "135051.993000", "135051.995000", "135051.998000", "135052.001000", "135052.003000", "135052.006000", "135052.009000", "135052.012000", "135052.014000", "135131.920000", "135131.923000", "135131.926000", "135131.929000", "135131.931000", "135131.934000", "135131.937000", "135131.939000", "135131.942000", "135131.945000", "135131.947000", "135131.950000", "135131.952000", "135131.955000", "135131.958000", "135131.960000", "135131.963000", "135131.966000", "135131.968000", "135131.971000", "135131.973000", "135131.976000", "135131.979000", "135131.981000", "135131.984000", "135131.986000", "135131.989000", "135131.992000", "135131.994000", "135131.997000", "135132.000000", "135132.003000", "135132.006000", "135132.008000", "135211.920000", "135211.922000", "135211.925000", "135211.928000", "135211.930000", "135211.933000", "135211.935000", "135211.938000", "135211.941000", "135211.943000", "135211.946000", "135211.949000", "135211.951000", "135211.954000", "135211.956000", "135211.959000", "135211.962000", "135211.964000", "135211.967000", "135211.970000", "135211.972000", "135211.975000", "135212.000000", "135212.003000", "135212.005000", "135212.008000", "135212.011000", "135212.013000", "135212.016000", "135212.019000", "135212.022000", "135212.025000", "135212.027000", "135243.672000", "135243.675000", "135243.678000", "135243.680000", "135243.683000", "135243.691000", "135243.694000", "135243.696000", "135243.699000", "135243.702000", "135243.704000", "135243.707000", "135243.710000", "135243.712000", "135243.715000", "135243.717000", "135243.720000", "135243.723000", "135243.725000", "135243.728000", "135243.731000", "135243.733000", "135243.736000", "135243.739000", "135243.741000", "135243.744000", "135243.746000"],
      "InstanceNumber": [1, 2, 3, 4, 5, 6, 7, 8, 9, 10, 11, 12, 13, 14, 15, 16, 17, 18, 19, 20, 21, 22, 23, 24, 25, 26, 27, 28, 29, 30, 31, 32, 33, 34, 35, 36, 37, 38, 39, 40, 41, 42, 43, 44, 45, 46, 47, 48, 49, 50, 51, 52, 53, 54, 55, 56, 57, 58, 59, 60, 61, 62, 63, 64, 65, 66, 67, 68, 69, 70, 71, 72, 73, 74, 75, 76, 77, 78, 79, 80, 81, 82, 83, 84, 85, 86, 87, 88, 89, 90, 91, 92, 93, 94, 95, 96, 97, 98, 99, 100, 101, 102, 103, 104, 105, 106, 107, 108, 109, 110, 111, 112, 113, 114, 115, 116, 117, 118, 119, 120, 121, 122, 123, 124, 125, 126, 127, 128, 129, 130, 131, 132, 133, 134, 135, 136, 137, 138, 139, 140, 141, 142, 143, 144, 145, 146, 147, 148, 149, 150, 151, 152, 153, 154, 155, 156, 157, 158, 159, 160, 161, 162, 163, 164, 165, 166, 167, 168, 169, 170, 171, 172, 173, 174, 175, 176, 177, 178, 179, 180, 181, 182, 183, 184, 185, 186, 187, 188, 189, 190, 191, 192, 193, 194, 195, 196, 197, 198, 199, 200, 201, 202, 203, 204, 205, 206, 207, 208, 209, 210, 211, 212, 213, 214, 215, 216, 217, 218, 219, 220, 221, 222, 223, 224, 225, 226, 227, 228, 229, 230, 231, 232, 233, 234, 235, 236, 237, 238, 239, 240, 241, 242, 243, 244, 245, 246, 247, 248, 249, 250, 251, 252, 253, 254, 255, 256, 257, 258, 259, 260, 261, 262, 263, 264, 265, 266, 267, 268, 269, 270, 271, 272, 273, 274, 275, 276, 277, 278, 279, 280, 281, 282, 283, 284, 285, 286, 287, 288, 289, 290, 291, 292, 293, 294, 295, 296, 297, 298, 299, 300, 301, 302, 303, 304, 305, 306, 307, 308, 309, 310, 311, 312, 313, 314, 315, 316, 317, 318, 319, 320, 321, 322, 323, 324, 325, 326, 327, 328, 329, 330, 331, 332, 333, 334, 335, 336, 337, 338, 339, 340, 341, 342, 343, 344, 345, 346, 347, 348, 349, 350, 351, 352, 353, 354, 355, 356, 357, 358, 359, 360, 361, 362, 363, 364, 365, 366, 367, 368, 369, 370, 371, 372, 373, 374, 375, 376, 377, 378, 379, 380, 381, 382, 383, 384, 385, 386, 387, 388, 389, 390, 391, 392],
