{
  "AcquisitionMatrixPE": 88,
  "AcquisitionNumber": 1,
  "AcquisitionTime": "13:56:29.205000",
  "BandwidthPerPixelPhaseEncode": 19.592,
  "BaseResolution": 88,
  "BodyPartExamined": "BRAIN",
  "ConsistencyInfo": "N4_VE11C_LATEST_20160120",
  "ConversionSoftware": "dcm2niix",
  "ConversionSoftwareVersion": "v1.0.20190902",
  "DerivedVendorReportedEchoSpacing": 0.000580014,
  "DeviceSerialNumber": "67050",
  "DwellTime": 2.6e-06,
  "EchoTime": 0.033,
  "EchoTrainLength": 88,
  "EffectiveEchoSpacing": 0.000580014,
  "FlipAngle": 62,
  "ImageOrientationPatientDICOM": [0.997562, 0.0543138, -0.0438263, -0.0555977, 0.998043, -0.0286287],
  "ImageType": [
    "ORIGINAL",
    "PRIMARY",
    "M",
    "ND",
    "MOSAIC"
],
  "ImagingFrequency": 123.251,
  "InPlanePhaseEncodingDirectionDICOM": "COL",
  "InstitutionAddress": "Olive_Street_60_Providence_RI_US_02912",
  "InstitutionName": "BROWN_UNIVERSITY_MRF",
  "InstitutionalDepartmentName": "Department",
  "MRAcquisitionType": "2D",
  "MagneticFieldStrength": 3,
  "Manufacturer": "Siemens",
  "ManufacturersModelName": "Prisma_fit",
  "Modality": "MR",
  "MultibandAccelerationFactor": 4,
  "PartialFourier": 1,
  "PatientPosition": "HFS",
  "PercentPhaseFOV": 100,
  "PhaseEncodingDirection": "j-",
  "PhaseEncodingSteps": 88,
  "PhaseResolution": 1,
  "PixelBandwidth": 2185,
  "ProcedureStepDescription": "ASHENHAV_1222",
  "ProtocolName": "func-bold_task-RDMcolor_run-03",
  "PulseSequenceDetails": "%SiemensSeq%_ep2d_bold",
  "ReceiveCoilActiveElements": "HC1-7;NC1",
  "ReceiveCoilName": "HeadNeck_64",
  "ReconMatrixPE": 88,
  "RefLinesPE": 8,
  "RepetitionTime": 1.2,
  "SAR": 0.0484969,
  "ScanOptions": "FS",
  "ScanningSequence": "EP",
  "SequenceName": "_epfid2d1_88",
  "SequenceVariant": "SK",
  "SeriesDescription": "func-bold_task-RDMcolor_run-03",
  "SeriesNumber": 12,
  "ShimSetting": [1749, -9087, 4383, 363, -43, -237, -162, 6],
  "SliceThickness": 2.4,
  "SliceTiming": [0.55, 0, 0.63, 0.0775, 0.7075, 0.1575, 0.785, 0.235, 0.865, 0.315, 0.9425, 0.3925, 1.0225, 0.4725, 1.1, 0.55, 0, 0.63, 0.0775, 0.7075, 0.1575, 0.785, 0.235, 0.865, 0.315, 0.9425, 0.3925, 1.0225, 0.4725, 1.1, 0.55, 0, 0.63, 0.0775, 0.7075, 0.1575, 0.785, 0.235, 0.865, 0.315, 0.9425, 0.3925, 1.0225, 0.4725, 1.1, 0.55, 0, 0.63, 0.0775, 0.7075, 0.1575, 0.785, 0.235, 0.865, 0.315, 0.9425, 0.3925, 1.0225, 0.4725, 1.1],
  "SoftwareVersions": "syngo_MR_E11",
  "SpacingBetweenSlices": 2.4,
  "StationName": "AWP67050",
  "TaskName": "RDMcolor",
  "TotalReadoutTime": 0.0504612,
  "TxRefAmp": 218.677,
  "dcmmeta_affine": [
    [-2.391880750656128, -0.13330815732479095, -0.10124549269676208, 114.77777099609375],
    [-0.13022959232330322, 2.3930342197418213, -0.07438936084508896, -83.39673614501953],
    [-0.10508359968662262, 0.06864388287067413, 2.3967092037200928, -57.30762481689453],
    [0.0, 0.0, 0.0, 1.0]
],
  "dcmmeta_reorient_transform": [
    [0.0, -1.0, 0.0, 87.0],
    [1.0, 0.0, 0.0, 0.0],
    [0.0, 0.0, 1.0, 0.0],
    [0.0, 0.0, 0.0, 1.0]
],
  "dcmmeta_shape": [88, 88, 60, 392],
  "dcmmeta_slice_dim": 2,
  "dcmmeta_version": 0.6,
  "global": {
    "const": {
      "AcquisitionMatrix": [88, 0, 0, 88],
      "AngioFlag": "N",
      "BitsAllocated": 16,
      "BitsStored": 12,
      "BodyPartExamined": "BRAIN",
      "Columns": 704,
      "DeidentificationMethodCodeSequence": [
        {
          "CodeMeaning": "XNAT DicomEdit 6 Script",
          "CodeValue": "3",
          "CodingSchemeDesignator": "XNAT",
          "CodingSchemeVersion": "1.0"}
],
      "EchoNumbers": 1,
      "EchoTime": 33.0,
      "EchoTrainLength": 88,
      "FlipAngle": 62.0,
      "HighBit": 11,
      "ImageOrientationPatient": [0.99756166082786, 0.05431376454039, -0.0438263371481, -0.0555977162785, 0.9980427294218, -0.0286287302008],
      "ImagePositionPatient": [-798.82033143562, -901.96250683216, 2.1724582172377],
      "ImageType": [
        "ORIGINAL",
        "PRIMARY",
        "M",
        "ND",
        "MOSAIC"
],
      "ImagedNucleus": "1H",
      "ImagingFrequency": 123.250534,
      "InPlanePhaseEncodingDirection": "COL",
      "MRAcquisitionType": "2D",
      "MagneticFieldStrength": 3.0,
      "Manufacturer": "SIEMENS",
      "ManufacturerModelName": "Prisma_fit",
      "Modality": "MR",
      "NumberOfAverages": 1.0,
      "NumberOfPhaseEncodingSteps": 88,
      "PercentPhaseFieldOfView": 100.0,
      "PercentSampling": 100.0,
      "PerformedProcedureStepStartTime": "132250.855000",
      "PhotometricInterpretation": "MONOCHROME2",
      "PixelBandwidth": 2185.0,
      "PixelRepresentation": 0,
      "PixelSpacing": [2.3977272510529, 2.3977272510529],
      "ProtocolName": "func-bold_task-RDMcolor_run-03",
      "RepetitionTime": 1200.0,
      "Rows": 704,
      "SAR": 0.04849686522983,
      "SamplesPerPixel": 1,
      "ScanOptions": "FS",
      "ScanningSequence": "EP",
      "SequenceName": "*epfid2d1_88",
      "SequenceVariant": "SK",
      "SeriesDescription": "func-bold_task-RDMcolor_run-03",
      "SeriesNumber": 12,
      "SeriesTime": "135700.276000",
      "SliceLocation": -59.486093979055,
      "SliceThickness": 2.4000000953674,
      "SmallestImagePixelValue": 0,
      "SoftwareVersions": "syngo MR E11",
      "SpacingBetweenSlices": 2.3999999920267,
      "SpecificCharacterSet": "ISO_IR 100",
      "StudyID": "1",
      "StudyTime": "132250.761000",
      "TransmitCoilName": "Body",
      "VariableFlipAngleFlag": "N",
      "WindowCenterWidthExplanation": "Algo1",
      "dBdt": 0.0},
    "slices": {}
  },
  "time": {
    "samples": {
      "AcquisitionNumber": [1, 2, 3, 4, 5, 6, 7, 8, 9, 10, 11, 12, 13, 14, 15, 16, 17, 18, 19, 20, 21, 22, 23, 24, 25, 26, 27, 28, 29, 30, 31, 32, 33, 34, 35, 36, 37, 38, 39, 40, 41, 42, 43, 44, 45, 46, 47, 48, 49, 50, 51, 52, 53, 54, 55, 56, 57, 58, 59, 60, 61, 62, 63, 64, 65, 66, 67, 68, 69, 70, 71, 72, 73, 74, 75, 76, 77, 78, 79, 80, 81, 82, 83, 84, 85, 86, 87, 88, 89, 90, 91, 92, 93, 94, 95, 96, 97, 98, 99, 100, 101, 102, 103, 104, 105, 106, 107, 108, 109, 110, 111, 112, 113, 114, 115, 116, 117, 118, 119, 120, 121, 122, 123, 124, 125, 126, 127, 128, 129, 130, 131, 132, 133, 134, 135, 136, 137, 138, 139, 140, 141, 142, 143, 144, 145, 146, 147, 148, 149, 150, 151, 152, 153, 154, 155, 156, 157, 158, 159, 160, 161, 162, 163, 164, 165, 166, 167, 168, 169, 170, 171, 172, 173, 174, 175, 176, 177, 178, 179, 180, 181, 182, 183, 184, 185, 186, 187, 188, 189, 190, 191, 192, 193, 194, 195, 196, 197, 198, 199, 200, 201, 202, 203, 204, 205, 206, 207, 208, 209, 210, 211, 212, 213, 214, 215, 216, 217, 218, 219, 220, 221, 222, 223, 224, 225, 226, 227, 228, 229, 230, 231, 232, 233, 234, 235, 236, 237, 238, 239, 240, 241, 242, 243, 244, 245, 246, 247, 248, 249, 250, 251, 252, 253, 254, 255, 256, 257, 258, 259, 260, 261, 262, 263, 264, 265, 266, 267, 268, 269, 270, 271, 272, 273, 274, 275, 276, 277, 278, 279, 280, 281, 282, 283, 284, 285, 286, 287, 288, 289, 290, 291, 292, 293, 294, 295, 296, 297, 298, 299, 300, 301, 302, 303, 304, 305, 306, 307, 308, 309, 310, 311, 312, 313, 314, 315, 316, 317, 318, 319, 320, 321, 322, 323, 324, 325, 326, 327, 328, 329, 330, 331, 332, 333, 334, 335, 336, 337, 338, 339, 340, 341, 342, 343, 344, 345, 346, 347, 348, 349, 350, 351, 352, 353, 354, 355, 356, 357, 358, 359, 360, 361, 362, 363, 364, 365, 366, 367, 368, 369, 370, 371, 372, 373, 374, 375, 376, 377, 378, 379, 380, 381, 382, 383, 384, 385, 386, 387, 388, 389, 390, 391, 392],
      "AcquisitionTime": ["135629.205000", "135630.405000", "135631.605000", "135632.805000", "135634.005000", "135635.205000", "135636.405000", "135637.605000", "135638.805000", "135640.005000", "135641.205000", "135642.405000", "135643.605000", "135644.805000", "135646.005000", "135647.205000", "135648.405000", "135649.605000", "135650.805000", "135652.005000", "135653.205000", "135654.405000", "135655.605000", "135656.805000", "135658.005000", "135659.205000", "135700.405000", "135701.605000", "135702.805000", "135704.005000", "135705.205000", "135706.405000", "135707.605000", "135708.805000", "135710.005000", "135711.205000", "135712.405000", "135713.605000", "135714.805000", "135716.005000", "135717.205000", "135718.405000", "135719.605000", "135720.805000", "135722.005000", "135723.205000", "135724.405000", "135725.605000", "135726.805000", "135728.005000", "135729.205000", "135730.405000", "135731.605000", "135732.805000", "135734.005000", "135735.205000", "135736.405000", "135737.605000", "135738.805000", "135740.005000", "135741.205000", "135742.405000", "135743.605000", "135744.805000", "135746.005000", "135747.205000", "135748.405000", "135749.605000", "135750.805000", "135752.005000", "135753.205000", "135754.405000", "135755.605000", "135756.805000", "135758.005000", "135759.205000", "135800.405000", "135801.605000", "135802.805000", "135804.005000", "135805.205000", "135806.405000", "135807.605000", "135808.805000", "135810.005000", "135811.205000", "135812.405000", "135813.605000", "135814.805000", "135816.005000", "135817.205000", "135818.405000", "135819.605000", "135820.805000", "135822.005000", "135823.205000", "135824.405000", "135825.605000", "135826.805000", "135828.005000", "135829.205000", "135830.405000", "135831.605000", "135832.805000", "135834.005000", "135835.205000", "135836.405000", "135837.605000", "135838.805000", "135840.005000", "135841.205000", "135842.405000", "135843.605000", "135844.805000", "135846.005000", "135847.205000", "135848.405000", "135849.605000", "135850.805000", "135852.005000", "135853.205000", "135854.405000", "135855.605000", "135856.805000", "135858.005000", "135859.205000", "135900.405000", "135901.605000", "135902.805000", "135904.005000", "135905.205000", "135906.405000", "135907.605000", "135908.805000", "135910.005000", "135911.205000", "135912.405000", "135913.605000", "135914.805000", "135916.005000", "135917.205000", "135918.405000", "135919.605000", "135920.805000", "135922.005000", "135923.205000", "135924.405000", "135925.605000", "135926.805000", "135928.005000", "135929.205000", "135930.405000", "135931.605000", "135932.805000", "135934.005000", "135935.205000", "135936.405000", "135937.605000", "135938.805000", "135940.005000", "135941.205000", "135942.405000", "135943.605000", "135944.805000", "135946.005000", "135947.205000", "135948.405000", "135949.605000", "135950.805000", "135952.005000", "135953.205000", "135954.405000", "135955.605000", "135956.805000", "135958.005000", "135959.205000", "140000.405000", "140001.605000", "140002.805000", "140004.005000", "140005.205000", "140006.405000", "140007.605000", "140008.805000", "140010.005000", "140011.205000", "140012.405000", "140013.605000", "140014.805000", "140016.005000", "140017.205000", "140018.405000", "140019.605000", "140020.805000", "140022.005000", "140023.205000", "140024.405000", "140025.605000", "140026.805000", "140028.005000", "140029.205000", "140030.405000", "140031.605000", "140032.805000", "140034.005000", "140035.205000", "140036.405000", "140037.605000", "140038.805000", "140040.005000", "140041.205000", "140042.405000", "140043.605000", "140044.805000", "140046.005000", "140047.205000", "140048.405000", "140049.605000", "140050.805000", "140052.005000", "140053.205000", "140054.405000", "140055.605000", "140056.805000", "140058.005000", "140059.205000", "140100.405000", "140101.605000", "140102.805000", "140104.005000", "140105.205000", "140106.405000", "140107.605000", "140108.805000", "140110.005000", "140111.205000", "140112.405000", "140113.605000", "140114.805000", "140116.005000", "140117.205000", "140118.405000", "140119.605000", "140120.805000", "140122.005000", "140123.205000", "140124.405000", "140125.605000", "140126.805000", "140128.005000", "140129.205000", "140130.405000", "140131.605000", "140132.805000", "140134.005000", "140135.205000", "140136.405000", "140137.605000", "140138.805000", "140140.005000", "140141.205000", "140142.405000", "140143.605000", "140144.805000", "140146.005000", "140147.205000", "140148.405000", "140149.605000", "140150.805000", "140152.005000", "140153.205000", "140154.405000", "140155.605000", "140156.805000", "140158.005000", "140159.205000", "140200.405000", "140201.605000", "140202.805000", "140204.005000", "140205.205000", "140206.405000", "140207.605000", "140208.805000", "140210.005000", "140211.205000", "140212.405000", "140213.605000", "140214.805000", "140216.005000", "140217.205000", "140218.405000", "140219.605000", "140220.805000", "140222.005000", "140223.205000", "140224.405000", "140225.605000", "140226.805000", "140228.005000", "140229.205000", "140230.405000", "140231.605000", "140232.805000", "140234.005000", "140235.205000", "140236.405000", "140237.605000", "140238.805000", "140240.005000", "140241.205000", "140242.405000", "140243.605000", "140244.805000", "140246.005000", "140247.205000", "140248.405000", "140249.605000", "140250.805000", "140252.005000", "140253.205000", "140254.405000", "140255.605000", "140256.805000", "140258.005000", "140259.205000", "140300.405000", "140301.605000", "140302.805000", "140304.005000", "140305.205000", "140306.405000", "140307.605000", "140308.805000", "140310.005000", "140311.205000", "140312.405000", "140313.605000", "140314.805000", "140316.005000", "140317.205000", "140318.405000", "140319.605000", "140320.805000", "140322.005000", "140323.205000", "140324.405000", "140325.605000", "140326.805000", "140328.005000", "140329.205000", "140330.405000", "140331.605000", "140332.805000", "140334.005000", "140335.205000", "140336.405000", "140337.605000", "140338.805000", "140340.005000", "140341.205000", "140342.405000", "140343.605000", "140344.805000", "140346.005000", "140347.205000", "140348.405000", "140349.605000", "140350.805000", "140352.005000", "140353.205000", "140354.405000", "140355.605000", "140356.805000", "140358.005000", "140359.205000", "140400.405000", "140401.605000", "140402.805000", "140404.005000", "140405.205000", "140406.405000", "140407.605000", "140408.805000", "140410.005000", "140411.205000", "140412.405000", "140413.605000", "140414.805000", "140416.005000", "140417.205000", "140418.405000"],
      "ContentTime": ["135700.280000", "135700.283000", "135700.291000", "135700.293000", "135700.296000", "135700.304000", "135700.306000", "135700.309000", "135700.312000", "135700.315000", "135700.317000", "135700.320000", "135700.322000", "135700.325000", "135700.335000", "135700.338000", "135700.341000", "135700.343000", "135700.346000", "135700.348000", "135700.351000", "135700.354000", "135700.356000", "135700.359000", "135700.361000", "135720.275000", "135720.278000", "135720.280000", "135720.283000", "135720.285000", "135720.288000", "135720.290000", "135720.293000", "135720.295000", "135720.298000", "135720.300000", "135720.303000", "135720.306000", "135720.308000", "135720.311000", "135720.313000", "135800.275000", "135800.278000", "135800.280000", "135800.283000", "135800.285000", "135800.288000", "135800.291000", "135800.293000", "135800.296000", "135800.298000", "135800.301000", "135800.304000", "135800.306000", "135800.315000", "135800.317000", "135800.320000", "135800.322000", "135800.325000", "135800.334000", "135800.337000", "135800.340000", "135800.342000", "135800.345000", "135800.347000", "135800.350000", "135800.353000", "135800.355000", "135800.358000", "135800.360000", "135800.363000", "135800.366000", "135800.368000", "135800.371000", "135800.374000", "135840.275000", "135840.277000", "135840.280000", "135840.283000", "135840.286000", "135840.288000", "135840.291000", "135840.294000", "135840.296000", "135840.299000", "135840.301000", "135840.304000", "135840.307000", "135840.309000", "135840.312000", "135840.314000", "135840.317000", "135840.320000", "135840.322000", "135840.325000", "135840.327000", "135840.330000", "135840.332000", "135840.335000", "135840.338000", "135840.340000", "135840.343000", "135840.345000", "135840.348000", "135840.351000", "135840.353000", "135840.356000", "135840.360000", "135920.276000", "135920.279000", "135920.281000", "135920.284000", "135920.286000", "135920.289000", "135920.298000", "135920.301000", "135920.303000", "135920.307000", "135920.309000", "135920.312000", "135920.314000", "135920.317000", "135920.320000", "135920.322000", "135920.325000", "135920.328000", "135920.330000", "135920.333000", "135920.335000", "135920.338000", "135920.341000", "135920.344000", "135920.347000", "135920.350000", "135920.353000", "135920.356000", "135920.358000", "135920.361000", "135920.364000", "135920.366000", "135920.369000", "140000.275000", "140000.277000", "140000.280000", "140000.283000", "140000.285000", "140000.288000", "140000.291000", "140000.293000", "140000.296000", "140000.298000", "140000.301000", "140000.304000", "140000.306000", "140000.309000", "140000.311000", "140000.314000", "140000.317000", "140000.320000", "140000.322000", "140000.325000", "140000.327000", "140000.330000", "140000.332000", "140000.335000", "140000.338000", "140000.340000", "140000.343000", "140000.345000", "140000.348000", "140000.384000", "140000.386000", "140000.389000", "140000.392000", "140000.394000", "140040.275000", "140040.278000", "140040.280000", "140040.283000", "140040.285000", "140040.288000", "140040.291000", "140040.293000", "140040.296000", "140040.299000", "140040.301000", "140040.304000", "140040.306000", "140040.309000", "140040.312000", "140040.314000", "140040.317000", "140040.320000", "140040.322000", "140040.325000", "140040.327000", "140040.330000", "140040.333000", "140040.335000", "140040.338000", "140040.341000", "140040.343000", "140040.346000", "140040.348000", "140040.351000", "140040.354000", "140040.358000", "140040.360000", "140120.274000", "140120.278000", "140120.280000", "140120.283000", "140120.286000", "140120.288000", "140120.291000", "140120.293000", "140120.296000", "140120.299000", "140120.301000", "140120.304000", "140120.307000", "140120.309000", "140120.312000", "140120.314000", "140120.317000", "140120.320000", "140120.322000", "140120.325000", "140120.328000", "140120.330000", "140120.333000", "140120.335000", "140120.338000", "140120.341000", "140120.343000", "140120.346000", "140120.349000", "140120.351000", "140120.354000", "140120.357000", "140120.360000", "140200.275000", "140200.277000", "140200.280000", "140200.283000", "140200.285000", "140200.288000", "140200.291000", "140200.293000", "140200.296000", "140200.298000", "140200.301000", "140200.304000", "140200.306000", "140200.309000", "140200.312000", "140200.314000", "140200.317000", "140200.319000", "140200.322000", "140200.325000", "140200.327000", "140200.330000", "140200.333000", "140200.335000", "140200.338000", "140200.340000", "140200.343000", "140200.346000", "140200.348000", "140200.351000", "140200.353000", "140200.356000", "140200.358000", "140200.361000", "140240.275000", "140240.278000", "140240.280000", "140240.283000", "140240.286000", "140240.288000", "140240.291000", "140240.293000", "140240.296000", "140240.299000", "140240.301000", "140240.304000", "140240.306000", "140240.309000", "140240.312000", "140240.315000", "140240.317000", "140240.320000", "140240.322000", "140240.325000", "140240.327000", "140240.330000", "140240.333000", "140240.335000", "140240.338000", "140240.340000", "140240.343000", "140240.346000", "140240.348000", "140240.351000", "140240.354000", "140240.357000", "140240.360000", "140320.274000", "140320.277000", "140320.280000", "140320.283000", "140320.285000", "140320.288000", "140320.291000", "140320.293000", "140320.296000", "140320.299000", "140320.301000", "140320.304000", "140320.307000", "140320.309000", "140320.312000", "140320.315000", "140320.317000", "140320.320000", "140320.323000", "140320.325000", "140320.328000", "140320.331000", "140320.333000", "140320.336000", "140320.339000", "140320.342000", "140320.344000", "140320.347000", "140320.350000", "140320.352000", "140320.355000", "140320.357000", "140320.360000", "140400.276000", "140400.284000", "140400.287000", "140400.289000", "140400.292000", "140400.294000", "140400.297000", "140400.300000", "140400.302000", "140400.305000", "140400.308000", "140400.310000", "140400.313000", "140400.316000", "140400.318000", "140400.321000", "140400.324000", "140400.326000", "140400.329000", "140400.332000", "140400.334000", "140400.337000", "140400.339000", "140400.342000", "140400.345000", "140400.347000", "140400.364000", "140400.367000", "140400.370000", "140400.372000", "140400.375000", "140400.377000", "140400.380000", "140400.383000", "140420.419000", "140420.422000", "140420.425000", "140420.427000", "140420.430000", "140420.433000", "140420.436000", "140420.438000", "140420.444000", "140420.447000", "140420.450000", "140420.452000", "140420.455000", "140420.458000", "140420.460000", "140420.463000", "140420.465000"],
      "InstanceCreationTime": ["135700.280000", "135700.283000", "135700.291000", "135700.293000", "135700.296000", "135700.304000", "135700.306000", "135700.309000", "135700.312000", "135700.315000", "135700.317000", "135700.320000", "135700.322000", "135700.325000", "135700.335000", "135700.338000", "135700.341000", "135700.343000", "135700.346000", "135700.348000", "135700.351000", "135700.354000", "135700.356000", "135700.359000", "135700.361000", "135720.275000", "135720.278000", "135720.280000", "135720.283000", "135720.285000", "135720.288000", "135720.290000", "135720.293000", "135720.295000", "135720.298000", "135720.300000", "135720.303000", "135720.306000", "135720.308000", "135720.311000", "135720.313000", "135800.275000", "135800.278000", "135800.280000", "135800.283000", "135800.285000", "135800.288000", "135800.291000", "135800.293000", "135800.296000", "135800.298000", "135800.301000", "135800.304000", "135800.306000", "135800.315000", "135800.317000", "135800.320000", "135800.322000", "135800.325000", "135800.334000", "135800.337000", "135800.340000", "135800.342000", "135800.345000", "135800.347000", "135800.350000", "135800.353000", "135800.355000", "135800.358000", "135800.360000", "135800.363000", "135800.366000", "135800.368000", "135800.371000", "135800.374000", "135840.275000", "135840.277000", "135840.280000", "135840.283000", "135840.286000", "135840.288000", "135840.291000", "135840.294000", "135840.296000", "135840.299000", "135840.301000", "135840.304000", "135840.307000", "135840.309000", "135840.312000", "135840.314000", "135840.317000", "135840.320000", "135840.322000", "135840.325000", "135840.327000", "135840.330000", "135840.332000", "135840.335000", "135840.338000", "135840.340000", "135840.343000", "135840.345000", "135840.348000", "135840.351000", "135840.353000", "135840.356000", "135840.360000", "135920.276000", "135920.279000", "135920.281000", "135920.284000", "135920.286000", "135920.289000", "135920.298000", "135920.301000", "135920.303000", "135920.307000", "135920.309000", "135920.312000", "135920.314000", "135920.317000", "135920.320000", "135920.322000", "135920.325000", "135920.328000", "135920.330000", "135920.333000", "135920.335000", "135920.338000", "135920.341000", "135920.344000", "135920.347000", "135920.350000", "135920.353000", "135920.356000", "135920.358000", "135920.361000", "135920.364000", "135920.366000", "135920.369000", "140000.275000", "140000.277000", "140000.280000", "140000.283000", "140000.285000", "140000.288000", "140000.291000", "140000.293000", "140000.296000", "140000.298000", "140000.301000", "140000.304000", "140000.306000", "140000.309000", "140000.311000", "140000.314000", "140000.317000", "140000.320000", "140000.322000", "140000.325000", "140000.327000", "140000.330000", "140000.332000", "140000.335000", "140000.338000", "140000.340000", "140000.343000", "140000.345000", "140000.348000", "140000.384000", "140000.386000", "140000.389000", "140000.392000", "140000.394000", "140040.275000", "140040.278000", "140040.280000", "140040.283000", "140040.285000", "140040.288000", "140040.291000", "140040.293000", "140040.296000", "140040.299000", "140040.301000", "140040.304000", "140040.306000", "140040.309000", "140040.312000", "140040.314000", "140040.317000", "140040.320000", "140040.322000", "140040.325000", "140040.327000", "140040.330000", "140040.333000", "140040.335000", "140040.338000", "140040.341000", "140040.343000", "140040.346000", "140040.348000", "140040.351000", "140040.354000", "140040.358000", "140040.360000", "140120.274000", "140120.278000", "140120.280000", "140120.283000", "140120.286000", "140120.288000", "140120.291000", "140120.293000", "140120.296000", "140120.299000", "140120.301000", "140120.304000", "140120.307000", "140120.309000", "140120.312000", "140120.314000", "140120.317000", "140120.320000", "140120.322000", "140120.325000", "140120.328000", "140120.330000", "140120.333000", "140120.335000", "140120.338000", "140120.341000", "140120.343000", "140120.346000", "140120.349000", "140120.351000", "140120.354000", "140120.357000", "140120.360000", "140200.275000", "140200.277000", "140200.280000", "140200.283000", "140200.285000", "140200.288000", "140200.291000", "140200.293000", "140200.296000", "140200.298000", "140200.301000", "140200.304000", "140200.306000", "140200.309000", "140200.312000", "140200.314000", "140200.317000", "140200.319000", "140200.322000", "140200.325000", "140200.327000", "140200.330000", "140200.333000", "140200.335000", "140200.338000", "140200.340000", "140200.343000", "140200.346000", "140200.348000", "140200.351000", "140200.353000", "140200.356000", "140200.358000", "140200.361000", "140240.275000", "140240.278000", "140240.280000", "140240.283000", "140240.286000", "140240.288000", "140240.291000", "140240.293000", "140240.296000", "140240.299000", "140240.301000", "140240.304000", "140240.306000", "140240.309000", "140240.312000", "140240.315000", "140240.317000", "140240.320000", "140240.322000", "140240.325000", "140240.327000", "140240.330000", "140240.333000", "140240.335000", "140240.338000", "140240.340000", "140240.343000", "140240.346000", "140240.348000", "140240.351000", "140240.354000", "140240.357000", "140240.360000", "140320.274000", "140320.277000", "140320.280000", "140320.283000", "140320.285000", "140320.288000", "140320.291000", "140320.293000", "140320.296000", "140320.299000", "140320.301000", "140320.304000", "140320.307000", "140320.309000", "140320.312000", "140320.315000", "140320.317000", "140320.320000", "140320.323000", "140320.325000", "140320.328000", "140320.331000", "140320.333000", "140320.336000", "140320.339000", "140320.342000", "140320.344000", "140320.347000", "140320.350000", "140320.352000", "140320.355000", "140320.357000", "140320.360000", "140400.276000", "140400.284000", "140400.287000", "140400.289000", "140400.292000", "140400.294000", "140400.297000", "140400.300000", "140400.302000", "140400.305000", "140400.308000", "140400.310000", "140400.313000", "140400.316000", "140400.318000", "140400.321000", "140400.324000", "140400.326000", "140400.329000", "140400.332000", "140400.334000", "140400.337000", "140400.339000", "140400.342000", "140400.345000", "140400.347000", "140400.364000", "140400.367000", "140400.370000", "140400.372000", "140400.375000", "140400.377000", "140400.380000", "140400.383000", "140420.419000", "140420.422000", "140420.425000", "140420.427000", "140420.430000", "140420.433000", "140420.436000", "140420.438000", "140420.444000", "140420.447000", "140420.450000", "140420.452000", "140420.455000", "140420.458000", "140420.460000", "140420.463000", "140420.465000"],
      "InstanceNumber": [1, 2, 3, 4, 5, 6, 7, 8, 9, 10, 11, 12, 13, 14, 15, 16, 17, 18, 19, 20, 21, 22, 23, 24, 25, 26, 27, 28, 29, 30, 31, 32, 33, 34, 35, 36, 37, 38, 39, 40, 41, 42, 43, 44, 45, 46, 47, 48, 49, 50, 51, 52, 53, 54, 55, 56, 57, 58, 59, 60, 61, 62, 63, 64, 65, 66, 67, 68, 69, 70, 71, 72, 73, 74, 75, 76, 77, 78, 79, 80, 81, 82, 83, 84, 85, 86, 87, 88, 89, 90, 91, 92, 93, 94, 95, 96, 97, 98, 99, 100, 101, 102, 103, 104, 105, 106, 107, 108, 109, 110, 111, 112, 113, 114, 115, 116, 117, 118, 119, 120, 121, 122, 123, 124, 125, 126, 127, 128, 129, 130, 131, 132, 133, 134, 135, 136, 137, 138, 139, 140, 141, 142, 143, 144, 145, 146, 147, 148, 149, 150, 151, 152, 153, 154, 155, 156, 157, 158, 159, 160, 161, 162, 163, 164, 165, 166, 167, 168, 169, 170, 171, 172, 173, 174, 175, 176, 177, 178, 179, 180, 181, 182, 183, 184, 185, 186, 187, 188, 189, 190, 191, 192, 193, 194, 195, 196, 197, 198, 199, 200, 201, 202, 203, 204, 205, 206, 207, 208, 209, 210, 211, 212, 213, 214, 215, 216, 217, 218, 219, 220, 221, 222, 223, 224, 225, 226, 227, 228, 229, 230, 231, 232, 233, 234, 235, 236, 237, 238, 239, 240, 241, 242, 243, 244, 245, 246, 247, 248, 249, 250, 251, 252, 253, 254, 255, 256, 257, 258, 259, 260, 261, 262, 263, 264, 265, 266, 267, 268, 269, 270, 271, 272, 273, 274, 275, 276, 277, 278, 279, 280, 281, 282, 283, 284, 285, 286, 287, 288, 289, 290, 291, 292, 293, 294, 295, 296, 297, 298, 299, 300, 301, 302, 303, 304, 305, 306, 307, 308, 309, 310, 311, 312, 313, 314, 315, 316, 317, 318, 319, 320, 321, 322, 323, 324, 325, 326, 327, 328, 329, 330, 331, 332, 333, 334, 335, 336, 337, 338, 339, 340, 341, 342, 343, 344, 345, 346, 347, 348, 349, 350, 351, 352, 353, 354, 355, 356, 357, 358, 359, 360, 361, 362, 363, 364, 365, 366, 367, 368, 369, 370, 371, 372, 373, 374, 375, 376, 377, 378, 379, 380, 381, 382, 383, 384, 385, 386, 387, 388, 389, 390, 391, 392],
