{
  "AcquisitionMatrixPE": 88,
  "AcquisitionNumber": 1,
  "AcquisitionTime": "14:41:56.377500",
  "BandwidthPerPixelPhaseEncode": 19.592,
  "BaseResolution": 88,
  "BodyPartExamined": "BRAIN",
  "ConsistencyInfo": "N4_VE11C_LATEST_20160120",
  "ConversionSoftware": "dcm2niix",
  "ConversionSoftwareVersion": "v1.0.20190902",
  "DerivedVendorReportedEchoSpacing": 0.000580014,
  "DeviceSerialNumber": "67050",
  "DwellTime": 2.6e-06,
  "EchoTime": 0.033,
  "EchoTrainLength": 88,
  "EffectiveEchoSpacing": 0.000580014,
  "FlipAngle": 62,
  "ImageOrientationPatientDICOM": [0.997562, 0.0543138, -0.0438263, -0.0555977, 0.998043, -0.0286287],
  "ImageType": [
    "ORIGINAL",
    "PRIMARY",
    "M",
    "ND",
    "MOSAIC"
],
  "ImagingFrequency": 123.251,
  "InPlanePhaseEncodingDirectionDICOM": "COL",
  "InstitutionAddress": "Olive_Street_60_Providence_RI_US_02912",
  "InstitutionName": "BROWN_UNIVERSITY_MRF",
  "InstitutionalDepartmentName": "Department",
  "MRAcquisitionType": "2D",
  "MagneticFieldStrength": 3,
  "Manufacturer": "Siemens",
  "ManufacturersModelName": "Prisma_fit",
  "Modality": "MR",
  "MultibandAccelerationFactor": 4,
  "PartialFourier": 1,
  "PatientPosition": "HFS",
  "PercentPhaseFOV": 100,
  "PhaseEncodingDirection": "j-",
  "PhaseEncodingSteps": 88,
  "PhaseResolution": 1,
  "PixelBandwidth": 2185,
  "ProcedureStepDescription": "ASHENHAV_1222",
  "ProtocolName": "func-bold_task-RDMlocalizer_run-01",
  "PulseSequenceDetails": "%SiemensSeq%_ep2d_bold",
  "ReceiveCoilActiveElements": "HC1-7;NC1",
  "ReceiveCoilName": "HeadNeck_64",
  "ReconMatrixPE": 88,
  "RefLinesPE": 8,
  "RepetitionTime": 1.2,
  "SAR": 0.0482597,
  "ScanOptions": "FS",
  "ScanningSequence": "EP",
  "SequenceName": "_epfid2d1_88",
  "SequenceVariant": "SK",
  "SeriesDescription": "func-bold_task-RDMlocalizer_run-01",
  "SeriesNumber": 19,
  "ShimSetting": [1749, -9087, 4383, 363, -43, -237, -162, 6],
  "SliceThickness": 2.4,
  "SliceTiming": [0.55, 0, 0.63, 0.0775, 0.7075, 0.1575, 0.7875, 0.235, 0.865, 0.315, 0.9425, 0.3925, 1.0225, 0.4725, 1.1, 0.55, 0, 0.63, 0.0775, 0.7075, 0.1575, 0.7875, 0.235, 0.865, 0.315, 0.9425, 0.3925, 1.0225, 0.4725, 1.1, 0.55, 0, 0.63, 0.0775, 0.7075, 0.1575, 0.7875, 0.235, 0.865, 0.315, 0.9425, 0.3925, 1.0225, 0.4725, 1.1, 0.55, 0, 0.63, 0.0775, 0.7075, 0.1575, 0.7875, 0.235, 0.865, 0.315, 0.9425, 0.3925, 1.0225, 0.4725, 1.1],
  "SoftwareVersions": "syngo_MR_E11",
  "SpacingBetweenSlices": 2.4,
  "StationName": "AWP67050",
  "TaskName": "RDMlocalizer",
  "TotalReadoutTime": 0.0504612,
  "TxRefAmp": 218.677,
  "dcmmeta_affine": [
    [-2.391880750656128, -0.13330815732479095, -0.10124549269676208, 114.77777099609375],
    [-0.13022959232330322, 2.3930342197418213, -0.07438936084508896, -83.39673614501953],
    [-0.10508359968662262, 0.06864388287067413, 2.3967092037200928, -57.30762481689453],
    [0.0, 0.0, 0.0, 1.0]
],
  "dcmmeta_reorient_transform": [
    [0.0, -1.0, 0.0, 87.0],
    [1.0, 0.0, 0.0, 0.0],
    [0.0, 0.0, 1.0, 0.0],
    [0.0, 0.0, 0.0, 1.0]
],
  "dcmmeta_shape": [88, 88, 60, 195],
  "dcmmeta_slice_dim": 2,
  "dcmmeta_version": 0.6,
  "global": {
    "const": {
      "AcquisitionMatrix": [88, 0, 0, 88],
      "AngioFlag": "N",
      "BitsAllocated": 16,
      "BitsStored": 12,
      "BodyPartExamined": "BRAIN",
      "Columns": 704,
      "DeidentificationMethodCodeSequence": [
        {
          "CodeMeaning": "XNAT DicomEdit 6 Script",
          "CodeValue": "3",
          "CodingSchemeDesignator": "XNAT",
          "CodingSchemeVersion": "1.0"}
],
      "EchoNumbers": 1,
      "EchoTime": 33.0,
      "EchoTrainLength": 88,
      "FlipAngle": 62.0,
      "HighBit": 11,
      "ImageOrientationPatient": [0.99756166082786, 0.05431376454039, -0.0438263371481, -0.0555977162785, 0.9980427294218, -0.0286287302008],
      "ImagePositionPatient": [-798.82033143562, -901.96250683216, 2.1724582172377],
      "ImageType": [
        "ORIGINAL",
        "PRIMARY",
        "M",
        "ND",
        "MOSAIC"
],
      "ImagedNucleus": "1H",
      "ImagingFrequency": 123.250535,
      "InPlanePhaseEncodingDirection": "COL",
      "MRAcquisitionType": "2D",
      "MagneticFieldStrength": 3.0,
      "Manufacturer": "SIEMENS",
      "ManufacturerModelName": "Prisma_fit",
      "Modality": "MR",
      "NumberOfAverages": 1.0,
      "NumberOfPhaseEncodingSteps": 88,
      "PercentPhaseFieldOfView": 100.0,
      "PercentSampling": 100.0,
      "PerformedProcedureStepStartTime": "132250.855000",
      "PhotometricInterpretation": "MONOCHROME2",
      "PixelBandwidth": 2185.0,
      "PixelRepresentation": 0,
      "PixelSpacing": [2.3977272510529, 2.3977272510529],
      "ProtocolName": "func-bold_task-RDMlocalizer_run-01",
      "RepetitionTime": 1200.0,
      "Rows": 704,
      "SAR": 0.04825966636526,
      "SamplesPerPixel": 1,
      "ScanOptions": "FS",
      "ScanningSequence": "EP",
      "SequenceName": "*epfid2d1_88",
      "SequenceVariant": "SK",
      "SeriesDescription": "func-bold_task-RDMlocalizer_run-01",
      "SeriesNumber": 19,
      "SeriesTime": "144231.922000",
      "SliceLocation": -59.486093979055,
      "SliceThickness": 2.4000000953674,
      "SmallestImagePixelValue": 0,
      "SoftwareVersions": "syngo MR E11",
      "SpacingBetweenSlices": 2.3999999920267,
      "SpecificCharacterSet": "ISO_IR 100",
      "StudyID": "1",
      "StudyTime": "132250.761000",
      "TransmitCoilName": "Body",
      "VariableFlipAngleFlag": "N",
      "WindowCenterWidthExplanation": "Algo1",
      "dBdt": 0.0},
    "slices": {}
  },
  "time": {
    "samples": {
      "AcquisitionNumber": [1, 2, 3, 4, 5, 6, 7, 8, 9, 10, 11, 12, 13, 14, 15, 16, 17, 18, 19, 20, 21, 22, 23, 24, 25, 26, 27, 28, 29, 30, 31, 32, 33, 34, 35, 36, 37, 38, 39, 40, 41, 42, 43, 44, 45, 46, 47, 48, 49, 50, 51, 52, 53, 54, 55, 56, 57, 58, 59, 60, 61, 62, 63, 64, 65, 66, 67, 68, 69, 70, 71, 72, 73, 74, 75, 76, 77, 78, 79, 80, 81, 82, 83, 84, 85, 86, 87, 88, 89, 90, 91, 92, 93, 94, 95, 96, 97, 98, 99, 100, 101, 102, 103, 104, 105, 106, 107, 108, 109, 110, 111, 112, 113, 114, 115, 116, 117, 118, 119, 120, 121, 122, 123, 124, 125, 126, 127, 128, 129, 130, 131, 132, 133, 134, 135, 136, 137, 138, 139, 140, 141, 142, 143, 144, 145, 146, 147, 148, 149, 150, 151, 152, 153, 154, 155, 156, 157, 158, 159, 160, 161, 162, 163, 164, 165, 166, 167, 168, 169, 170, 171, 172, 173, 174, 175, 176, 177, 178, 179, 180, 181, 182, 183, 184, 185, 186, 187, 188, 189, 190, 191, 192, 193, 194, 195],
      "AcquisitionTime": ["144156.377500", "144157.577500", "144158.777500", "144159.977500", "144201.177500", "144202.377500", "144203.577500", "144204.777500", "144205.977500", "144207.177500", "144208.377500", "144209.577500", "144210.777500", "144211.977500", "144213.177500", "144214.377500", "144215.577500", "144216.777500", "144217.977500", "144219.177500", "144220.377500", "144221.577500", "144222.777500", "144223.977500", "144225.177500", "144226.377500", "144227.577500", "144228.777500", "144229.977500", "144231.177500", "144232.377500", "144233.577500", "144234.777500", "144235.977500", "144237.177500", "144238.377500", "144239.577500", "144240.777500", "144241.977500", "144243.177500", "144244.377500", "144245.577500", "144246.777500", "144247.977500", "144249.177500", "144250.377500", "144251.577500", "144252.777500", "144253.977500", "144255.177500", "144256.377500", "144257.577500", "144258.777500", "144259.977500", "144301.177500", "144302.377500", "144303.577500", "144304.777500", "144305.977500", "144307.177500", "144308.377500", "144309.577500", "144310.777500", "144311.977500", "144313.177500", "144314.377500", "144315.577500", "144316.777500", "144317.977500", "144319.177500", "144320.377500", "144321.577500", "144322.777500", "144323.977500", "144325.177500", "144326.377500", "144327.577500", "144328.777500", "144329.977500", "144331.177500", "144332.377500", "144333.577500", "144334.777500", "144335.977500", "144337.177500", "144338.377500", "144339.577500", "144340.777500", "144341.977500", "144343.177500", "144344.377500", "144345.577500", "144346.777500", "144347.977500", "144349.177500", "144350.377500", "144351.577500", "144352.777500", "144353.977500", "144355.177500", "144356.377500", "144357.577500", "144358.777500", "144359.977500", "144401.177500", "144402.377500", "144403.577500", "144404.777500", "144405.977500", "144407.177500", "144408.377500", "144409.577500", "144410.777500", "144411.977500", "144413.177500", "144414.377500", "144415.577500", "144416.777500", "144417.977500", "144419.177500", "144420.377500", "144421.577500", "144422.777500", "144423.977500", "144425.177500", "144426.377500", "144427.577500", "144428.777500", "144429.977500", "144431.177500", "144432.377500", "144433.577500", "144434.777500", "144435.977500", "144437.177500", "144438.377500", "144439.577500", "144440.777500", "144441.977500", "144443.177500", "144444.377500", "144445.577500", "144446.777500", "144447.977500", "144449.177500", "144450.377500", "144451.577500", "144452.777500", "144453.977500", "144455.177500", "144456.377500", "144457.577500", "144458.777500", "144459.977500", "144501.177500", "144502.377500", "144503.577500", "144504.777500", "144505.977500", "144507.177500", "144508.377500", "144509.577500", "144510.777500", "144511.977500", "144513.177500", "144514.377500", "144515.577500", "144516.777500", "144517.977500", "144519.177500", "144520.377500", "144521.577500", "144522.777500", "144523.977500", "144525.177500", "144526.377500", "144527.577500", "144528.777500", "144529.977500", "144531.177500", "144532.377500", "144533.577500", "144534.777500", "144535.977500", "144537.177500", "144538.377500", "144539.577500", "144540.777500", "144541.977500", "144543.177500", "144544.377500", "144545.577500", "144546.777500", "144547.977500", "144549.177500"],
      "ContentTime": ["144231.925000", "144231.931000", "144231.933000", "144231.936000", "144231.939000", "144231.941000", "144231.944000", "144231.947000", "144231.949000", "144231.952000", "144231.954000", "144231.957000", "144231.959000", "144231.968000", "144231.971000", "144231.973000", "144231.976000", "144231.978000", "144231.981000", "144231.984000", "144231.992000", "144231.994000", "144231.997000", "144232.000000", "144232.003000", "144232.005000", "144232.020000", "144232.023000", "144232.025000", "144311.924000", "144311.927000", "144311.929000", "144311.932000", "144311.934000", "144311.937000", "144311.939000", "144311.942000", "144311.945000", "144311.947000", "144311.950000", "144311.952000", "144311.968000", "144311.971000", "144311.973000", "144311.976000", "144311.978000", "144311.981000", "144311.984000", "144311.986000", "144311.989000", "144311.991000", "144311.994000", "144311.996000", "144312.007000", "144312.010000", "144312.012000", "144312.015000", "144312.017000", "144312.020000", "144312.023000", "144312.025000", "144312.028000", "144312.031000", "144351.919000", "144351.922000", "144351.925000", "144351.928000", "144351.930000", "144351.933000", "144351.936000", "144351.938000", "144351.941000", "144351.944000", "144351.946000", "144351.949000", "144351.951000", "144351.954000", "144351.957000", "144351.959000", "144351.962000", "144351.964000", "144351.967000", "144351.970000", "144351.972000", "144351.975000", "144351.981000", "144351.984000", "144351.986000", "144351.989000", "144351.991000", "144351.994000", "144351.996000", "144352.000000", "144352.003000", "144352.005000", "144352.008000", "144431.920000", "144431.923000", "144431.926000", "144431.929000", "144431.931000", "144431.934000", "144431.937000", "144431.939000", "144431.942000", "144431.944000", "144431.947000", "144431.950000", "144431.952000", "144431.955000", "144431.957000", "144431.970000", "144431.972000", "144431.975000", "144431.977000", "144431.980000", "144431.983000", "144431.985000", "144431.988000", "144431.990000", "144431.993000", "144431.995000", "144431.998000", "144432.002000", "144432.004000", "144432.007000", "144432.009000", "144432.012000", "144432.015000", "144511.919000", "144511.922000", "144511.925000", "144511.927000", "144511.930000", "144511.933000", "144511.935000", "144511.938000", "144511.940000", "144511.943000", "144511.945000", "144511.948000", "144511.951000", "144511.953000", "144511.956000", "144511.959000", "144511.961000", "144511.964000", "144511.966000", "144511.969000", "144511.971000", "144511.974000", "144511.976000", "144511.979000", "144511.982000", "144511.984000", "144511.987000", "144511.989000", "144511.992000", "144511.995000", "144511.997000", "144512.001000", "144512.003000", "144512.006000", "144550.318000", "144550.321000", "144550.323000", "144550.326000", "144550.329000", "144550.331000", "144550.334000", "144550.337000", "144550.348000", "144550.350000", "144550.353000", "144550.355000", "144550.358000", "144550.361000", "144550.367000", "144550.369000", "144550.372000", "144550.374000", "144550.377000", "144550.380000", "144550.382000", "144550.385000", "144550.387000", "144550.390000", "144550.393000", "144550.395000", "144550.398000", "144550.400000", "144550.403000", "144550.406000", "144550.408000", "144550.411000"],
      "InstanceCreationTime": ["144231.925000", "144231.931000", "144231.933000", "144231.936000", "144231.939000", "144231.941000", "144231.944000", "144231.947000", "144231.949000", "144231.952000", "144231.954000", "144231.957000", "144231.959000", "144231.968000", "144231.971000", "144231.973000", "144231.976000", "144231.978000", "144231.981000", "144231.984000", "144231.992000", "144231.994000", "144231.997000", "144232.000000", "144232.003000", "144232.005000", "144232.020000", "144232.023000", "144232.025000", "144311.924000", "144311.927000", "144311.929000", "144311.932000", "144311.934000", "144311.937000", "144311.939000", "144311.942000", "144311.945000", "144311.947000", "144311.950000", "144311.952000", "144311.968000", "144311.971000", "144311.973000", "144311.976000", "144311.978000", "144311.981000", "144311.984000", "144311.986000", "144311.989000", "144311.991000", "144311.994000", "144311.996000", "144312.007000", "144312.010000", "144312.012000", "144312.015000", "144312.017000", "144312.020000", "144312.023000", "144312.025000", "144312.028000", "144312.031000", "144351.919000", "144351.922000", "144351.925000", "144351.928000", "144351.930000", "144351.933000", "144351.936000", "144351.938000", "144351.941000", "144351.944000", "144351.946000", "144351.949000", "144351.951000", "144351.954000", "144351.957000", "144351.959000", "144351.962000", "144351.964000", "144351.967000", "144351.970000", "144351.972000", "144351.975000", "144351.981000", "144351.984000", "144351.986000", "144351.989000", "144351.991000", "144351.994000", "144351.996000", "144352.000000", "144352.003000", "144352.005000", "144352.008000", "144431.920000", "144431.923000", "144431.926000", "144431.929000", "144431.931000", "144431.934000", "144431.937000", "144431.939000", "144431.942000", "144431.944000", "144431.947000", "144431.950000", "144431.952000", "144431.955000", "144431.957000", "144431.970000", "144431.972000", "144431.975000", "144431.977000", "144431.980000", "144431.983000", "144431.985000", "144431.988000", "144431.990000", "144431.993000", "144431.995000", "144431.998000", "144432.002000", "144432.004000", "144432.007000", "144432.009000", "144432.012000", "144432.015000", "144511.919000", "144511.922000", "144511.925000", "144511.927000", "144511.930000", "144511.933000", "144511.935000", "144511.938000", "144511.940000", "144511.943000", "144511.945000", "144511.948000", "144511.951000", "144511.953000", "144511.956000", "144511.959000", "144511.961000", "144511.964000", "144511.966000", "144511.969000", "144511.971000", "144511.974000", "144511.976000", "144511.979000", "144511.982000", "144511.984000", "144511.987000", "144511.989000", "144511.992000", "144511.995000", "144511.997000", "144512.001000", "144512.003000", "144512.006000", "144550.318000", "144550.321000", "144550.323000", "144550.326000", "144550.329000", "144550.331000", "144550.334000", "144550.337000", "144550.348000", "144550.350000", "144550.353000", "144550.355000", "144550.358000", "144550.361000", "144550.367000", "144550.369000", "144550.372000", "144550.374000", "144550.377000", "144550.380000", "144550.382000", "144550.385000", "144550.387000", "144550.390000", "144550.393000", "144550.395000", "144550.398000", "144550.400000", "144550.403000", "144550.406000", "144550.408000", "144550.411000"],
      "InstanceNumber": [1, 2, 3, 4, 5, 6, 7, 8, 9, 10, 11, 12, 13, 14, 15, 16, 17, 18, 19, 20, 21, 22, 23, 24, 25, 26, 27, 28, 29, 30, 31, 32, 33, 34, 35, 36, 37, 38, 39, 40, 41, 42, 43, 44, 45, 46, 47, 48, 49, 50, 51, 52, 53, 54, 55, 56, 57, 58, 59, 60, 61, 62, 63, 64, 65, 66, 67, 68, 69, 70, 71, 72, 73, 74, 75, 76, 77, 78, 79, 80, 81, 82, 83, 84, 85, 86, 87, 88, 89, 90, 91, 92, 93, 94, 95, 96, 97, 98, 99, 100, 101, 102, 103, 104, 105, 106, 107, 108, 109, 110, 111, 112, 113, 114, 115, 116, 117, 118, 119, 120, 121, 122, 123, 124, 125, 126, 127, 128, 129, 130, 131, 132, 133, 134, 135, 136, 137, 138, 139, 140, 141, 142, 143, 144, 145, 146, 147, 148, 149, 150, 151, 152, 153, 154, 155, 156, 157, 158, 159, 160, 161, 162, 163, 164, 165, 166, 167, 168, 169, 170, 171, 172, 173, 174, 175, 176, 177, 178, 179, 180, 181, 182, 183, 184, 185, 186, 187, 188, 189, 190, 191, 192, 193, 194, 195],
      "LargestImagePixelValue": [1683, 1592, 1528, 1569, 1522, 1563, 1579, 1540, 1541, 1586, 1634, 1630, 1734, 1805, 1659, 1623, 1697, 1528, 1568, 1561, 1554, 1627, 1605, 1607, 1574, 1590, 1543, 1628, 1557, 1560, 1765, 1642, 1637, 1594, 1613, 1639, 1650, 1659, 1637, 1636, 1652, 1642, 1576, 1616, 1609, 1629, 1830, 1634, 1593, 1572, 1739, 1721, 1579, 1761, 1634, 1573, 1570, 1598, 1603, 1648, 1601, 1580, 1575, 1620, 1566, 1760, 1578, 1527, 1722, 1742, 1598, 1549, 1781, 1555, 1576, 1752, 1566, 1630, 1808, 1633, 1555, 1606, 1573, 1574, 1555, 1537, 1611, 1540, 1531, 1531, 1602, 1613, 1528, 1757, 1684, 1568, 1725, 1688, 1765, 1675, 1703, 1625, 1806, 1552, 1551, 1644, 1553, 1638, 1587, 1518, 1534, 1611, 1633, 1521, 1522, 1550, 1580, 1623, 1670, 1563, 1613, 1628, 1612, 1574, 1741, 1633, 1523, 1533, 1797, 1664, 1712, 1846, 1720, 1834, 1682, 1663, 1574, 1580, 1578, 1588, 1542, 1581, 1716, 1573, 1572, 1617, 1580, 1578, 1639, 1659, 1631, 1617, 1539, 1543, 1559, 1564, 1550, 1558, 1933, 1665, 1577, 1571, 1586, 1587, 1780, 1581, 1627, 1588, 1604, 1864, 1668, 1551, 1554, 1735, 1556, 1706, 1848, 1569, 1554, 1711, 1555, 1659, 1737, 1694, 1753, 1581, 1986, 1861, 1871, 1567, 2050, 1911, 1867, 1842, 1632],
      "WindowCenter": [552.0, 548.0, 546.0, 547.0, 546.0, 547.0, 547.0, 546.0, 546.0, 547.0, 548.0, 548.0, 551.0, 551.0, 548.0, 548.0, 550.0, 547.0, 547.0, 547.0, 547.0, 547.0, 546.0, 546.0, 547.0, 547.0, 546.0, 548.0, 546.0, 546.0, 549.0, 548.0, 549.0, 549.0, 550.0, 550.0, 549.0, 548.0, 546.0, 546.0, 546.0, 546.0, 545.0, 546.0, 547.0, 547.0, 550.0, 547.0, 547.0, 547.0, 550.0, 549.0, 545.0, 548.0, 546.0, 545.0, 546.0, 547.0, 547.0, 548.0, 548.0, 548.0, 548.0, 547.0, 547.0, 549.0, 546.0, 544.0, 547.0, 548.0, 545.0, 544.0, 549.0, 546.0, 546.0, 550.0, 547.0, 549.0, 551.0, 549.0, 547.0, 547.0, 547.0, 546.0, 546.0, 545.0, 547.0, 546.0, 546.0, 546.0, 546.0, 547.0, 545.0, 548.0, 547.0, 545.0, 548.0, 548.0, 550.0, 550.0, 551.0, 549.0, 551.0, 547.0, 545.0, 547.0, 546.0, 546.0, 544.0, 542.0, 543.0, 543.0, 543.0, 541.0, 541.0, 543.0, 545.0, 547.0, 548.0, 547.0, 548.0, 547.0, 546.0, 544.0, 547.0, 545.0, 542.0, 543.0, 547.0, 545.0, 547.0, 549.0, 547.0, 549.0, 547.0, 546.0, 545.0, 545.0, 546.0, 546.0, 545.0, 546.0, 548.0, 545.0, 545.0, 546.0, 547.0, 547.0, 547.0, 547.0, 545.0, 544.0, 542.0, 541.0, 541.0, 542.0, 542.0, 542.0, 549.0, 545.0, 545.0, 546.0, 546.0, 546.0, 550.0, 546.0, 546.0, 546.0, 546.0, 551.0, 547.0, 545.0, 545.0, 547.0, 545.0, 547.0, 549.0, 545.0, 545.0, 546.0, 543.0, 545.0, 547.0, 546.0, 547.0, 545.0, 551.0, 550.0, 551.0, 547.0, 554.0, 552.0, 552.0, 550.0, 547.0],
      "WindowWidth": [1169.0, 1162.0, 1159.0, 1159.0, 1158.0, 1159.0, 1160.0, 1158.0, 1159.0, 1160.0, 1162.0, 1161.0, 1166.0, 1167.0, 1162.0, 1163.0, 1166.0, 1161.0, 1160.0, 1160.0, 1159.0, 1160.0, 1158.0, 1159.0, 1159.0, 1160.0, 1158.0, 1161.0, 1159.0, 1158.0, 1162.0, 1161.0, 1165.0, 1165.0, 1166.0, 1166.0, 1164.0, 1162.0, 1158.0, 1157.0, 1156.0, 1157.0, 1157.0, 1158.0, 1159.0, 1160.0, 1165.0, 1159.0, 1160.0, 1161.0, 1165.0, 1162.0, 1157.0, 1161.0, 1157.0, 1156.0, 1158.0, 1160.0, 1161.0, 1162.0, 1162.0, 1161.0, 1161.0, 1160.0, 1159.0, 1164.0, 1158.0, 1154.0, 1159.0, 1161.0, 1155.0, 1155.0, 1164.0, 1157.0, 1159.0, 1165.0, 1160.0, 1163.0, 1168.0, 1163.0, 1159.0, 1160.0, 1160.0, 1159.0, 1157.0, 1156.0, 1159.0, 1158.0, 1159.0, 1158.0, 1158.0, 1159.0, 1155.0, 1161.0, 1158.0, 1157.0, 1162.0, 1162.0, 1166.0, 1166.0, 1167.0, 1163.0, 1167.0, 1159.0, 1156.0, 1160.0, 1157.0, 1158.0, 1154.0, 1150.0, 1151.0, 1152.0, 1151.0, 1148.0, 1148.0, 1152.0, 1157.0, 1159.0, 1162.0, 1161.0, 1162.0, 1160.0, 1157.0, 1154.0, 1159.0, 1154.0, 1150.0, 1151.0, 1159.0, 1155.0, 1159.0, 1162.0, 1159.0, 1161.0, 1160.0, 1158.0, 1155.0, 1156.0, 1157.0, 1157.0, 1155.0, 1157.0, 1161.0, 1156.0, 1156.0, 1158.0, 1161.0, 1161.0, 1160.0, 1159.0, 1156.0, 1154.0, 1149.0, 1148.0, 1148.0, 1149.0, 1149.0, 1150.0, 1162.0, 1156.0, 1155.0, 1157.0, 1159.0, 1158.0, 1164.0, 1158.0, 1158.0, 1158.0, 1157.0, 1166.0, 1160.0, 1156.0, 1155.0, 1159.0, 1155.0, 1159.0, 1162.0, 1155.0, 1155.0, 1157.0, 1153.0, 1155.0, 1158.0, 1156.0, 1159.0, 1157.0, 1166.0, 1164.0, 1166.0, 1160.0, 1172.0, 1169.0, 1169.0, 1165.0, 1159.0]
    },
    "slices": {}
  }
}