{
  "AcquisitionMatrixPE": 88,
  "AcquisitionNumber": 1,
  "AcquisitionTime": "14:21:10.405000",
  "BandwidthPerPixelPhaseEncode": 19.592,
  "BaseResolution": 88,
  "BodyPartExamined": "BRAIN",
  "ConsistencyInfo": "N4_VE11C_LATEST_20160120",
  "ConversionSoftware": "dcm2niix",
  "ConversionSoftwareVersion": "v1.0.20190902",
  "DerivedVendorReportedEchoSpacing": 0.000580014,
  "DeviceSerialNumber": "67050",
  "DwellTime": 2.6e-06,
  "EchoTime": 0.033,
  "EchoTrainLength": 88,
  "EffectiveEchoSpacing": 0.000580014,
  "FlipAngle": 62,
  "ImageOrientationPatientDICOM": [0.997562, 0.0543138, -0.0438263, -0.0555977, 0.998043, -0.0286287],
  "ImageType": [
    "ORIGINAL",
    "PRIMARY",
    "M",
    "ND",
    "MOSAIC"
],
  "ImagingFrequency": 123.251,
  "InPlanePhaseEncodingDirectionDICOM": "COL",
  "InstitutionAddress": "Olive_Street_60_Providence_RI_US_02912",
  "InstitutionName": "BROWN_UNIVERSITY_MRF",
  "InstitutionalDepartmentName": "Department",
  "MRAcquisitionType": "2D",
  "MagneticFieldStrength": 3,
  "Manufacturer": "Siemens",
  "ManufacturersModelName": "Prisma_fit",
  "Modality": "MR",
  "MultibandAccelerationFactor": 4,
  "PartialFourier": 1,
  "PatientPosition": "HFS",
  "PercentPhaseFOV": 100,
  "PhaseEncodingDirection": "j-",
  "PhaseEncodingSteps": 88,
  "PhaseResolution": 1,
  "PixelBandwidth": 2185,
  "ProcedureStepDescription": "ASHENHAV_1222",
  "ProtocolName": "func-bold_task-RDMcolor_run-05",
  "PulseSequenceDetails": "%SiemensSeq%_ep2d_bold",
  "ReceiveCoilActiveElements": "HC1-7;NC1",
  "ReceiveCoilName": "HeadNeck_64",
  "ReconMatrixPE": 88,
  "RefLinesPE": 8,
  "RepetitionTime": 1.2,
  "SAR": 0.0484969,
  "ScanOptions": "FS",
  "ScanningSequence": "EP",
  "SequenceName": "_epfid2d1_88",
  "SequenceVariant": "SK",
  "SeriesDescription": "func-bold_task-RDMcolor_run-05",
  "SeriesNumber": 16,
  "ShimSetting": [1749, -9087, 4383, 363, -43, -237, -162, 6],
  "SliceThickness": 2.4,
  "SliceTiming": [0.55, 0, 0.63, 0.08, 0.7075, 0.1575, 0.7875, 0.235, 0.865, 0.315, 0.945, 0.3925, 1.0225, 0.4725, 1.1025, 0.55, 0, 0.63, 0.08, 0.7075, 0.1575, 0.7875, 0.235, 0.865, 0.315, 0.945, 0.3925, 1.0225, 0.4725, 1.1025, 0.55, 0, 0.63, 0.08, 0.7075, 0.1575, 0.7875, 0.235, 0.865, 0.315, 0.945, 0.3925, 1.0225, 0.4725, 1.1025, 0.55, 0, 0.63, 0.08, 0.7075, 0.1575, 0.7875, 0.235, 0.865, 0.315, 0.945, 0.3925, 1.0225, 0.4725, 1.1025],
  "SoftwareVersions": "syngo_MR_E11",
  "SpacingBetweenSlices": 2.4,
  "StationName": "AWP67050",
  "TaskName": "RDMcolor",
  "TotalReadoutTime": 0.0504612,
  "TxRefAmp": 218.677,
  "dcmmeta_affine": [
    [-2.391880750656128, -0.13330815732479095, -0.10124549269676208, 114.77777099609375],
    [-0.13022959232330322, 2.3930342197418213, -0.07438936084508896, -83.39673614501953],
    [-0.10508359968662262, 0.06864388287067413, 2.3967092037200928, -57.30762481689453],
    [0.0, 0.0, 0.0, 1.0]
],
  "dcmmeta_reorient_transform": [
    [0.0, -1.0, 0.0, 87.0],
    [1.0, 0.0, 0.0, 0.0],
    [0.0, 0.0, 1.0, 0.0],
    [0.0, 0.0, 0.0, 1.0]
],
  "dcmmeta_shape": [88, 88, 60, 392],
  "dcmmeta_slice_dim": 2,
  "dcmmeta_version": 0.6,
  "global": {
    "const": {
      "AcquisitionMatrix": [88, 0, 0, 88],
      "AngioFlag": "N",
      "BitsAllocated": 16,
      "BitsStored": 12,
      "BodyPartExamined": "BRAIN",
      "Columns": 704,
      "DeidentificationMethodCodeSequence": [
        {
          "CodeMeaning": "XNAT DicomEdit 6 Script",
          "CodeValue": "3",
          "CodingSchemeDesignator": "XNAT",
          "CodingSchemeVersion": "1.0"}
],
      "EchoNumbers": 1,
      "EchoTime": 33.0,
      "EchoTrainLength": 88,
      "FlipAngle": 62.0,
      "HighBit": 11,
      "ImageOrientationPatient": [0.99756166082786, 0.05431376454039, -0.0438263371481, -0.0555977162785, 0.9980427294218, -0.0286287302008],
      "ImagePositionPatient": [-798.82033143562, -901.96250683216, 2.1724582172377],
      "ImageType": [
        "ORIGINAL",
        "PRIMARY",
        "M",
        "ND",
        "MOSAIC"
],
      "ImagedNucleus": "1H",
      "ImagingFrequency": 123.250535,
      "InPlanePhaseEncodingDirection": "COL",
      "MRAcquisitionType": "2D",
      "MagneticFieldStrength": 3.0,
      "Manufacturer": "SIEMENS",
      "ManufacturerModelName": "Prisma_fit",
      "Modality": "MR",
      "NumberOfAverages": 1.0,
      "NumberOfPhaseEncodingSteps": 88,
      "PercentPhaseFieldOfView": 100.0,
      "PercentSampling": 100.0,
      "PerformedProcedureStepStartTime": "132250.855000",
      "PhotometricInterpretation": "MONOCHROME2",
      "PixelBandwidth": 2185.0,
      "PixelRepresentation": 0,
      "PixelSpacing": [2.3977272510529, 2.3977272510529],
      "ProtocolName": "func-bold_task-RDMcolor_run-05",
      "RepetitionTime": 1200.0,
      "Rows": 704,
      "SAR": 0.04849686522983,
      "SamplesPerPixel": 1,
      "ScanOptions": "FS",
      "ScanningSequence": "EP",
      "SequenceName": "*epfid2d1_88",
      "SequenceVariant": "SK",
      "SeriesDescription": "func-bold_task-RDMcolor_run-05",
      "SeriesNumber": 16,
      "SeriesTime": "142151.920000",
      "SliceLocation": -59.486093979055,
      "SliceThickness": 2.4000000953674,
      "SmallestImagePixelValue": 0,
      "SoftwareVersions": "syngo MR E11",
      "SpacingBetweenSlices": 2.3999999920267,
      "SpecificCharacterSet": "ISO_IR 100",
      "StudyID": "1",
      "StudyTime": "132250.761000",
      "TransmitCoilName": "Body",
      "VariableFlipAngleFlag": "N",
      "WindowCenterWidthExplanation": "Algo1",
      "dBdt": 0.0},
    "slices": {}
  },
  "time": {
    "samples": {
      "AcquisitionNumber": [1, 2, 3, 4, 5, 6, 7, 8, 9, 10, 11, 12, 13, 14, 15, 16, 17, 18, 19, 20, 21, 22, 23, 24, 25, 26, 27, 28, 29, 30, 31, 32, 33, 34, 35, 36, 37, 38, 39, 40, 41, 42, 43, 44, 45, 46, 47, 48, 49, 50, 51, 52, 53, 54, 55, 56, 57, 58, 59, 60, 61, 62, 63, 64, 65, 66, 67, 68, 69, 70, 71, 72, 73, 74, 75, 76, 77, 78, 79, 80, 81, 82, 83, 84, 85, 86, 87, 88, 89, 90, 91, 92, 93, 94, 95, 96, 97, 98, 99, 100, 101, 102, 103, 104, 105, 106, 107, 108, 109, 110, 111, 112, 113, 114, 115, 116, 117, 118, 119, 120, 121, 122, 123, 124, 125, 126, 127, 128, 129, 130, 131, 132, 133, 134, 135, 136, 137, 138, 139, 140, 141, 142, 143, 144, 145, 146, 147, 148, 149, 150, 151, 152, 153, 154, 155, 156, 157, 158, 159, 160, 161, 162, 163, 164, 165, 166, 167, 168, 169, 170, 171, 172, 173, 174, 175, 176, 177, 178, 179, 180, 181, 182, 183, 184, 185, 186, 187, 188, 189, 190, 191, 192, 193, 194, 195, 196, 197, 198, 199, 200, 201, 202, 203, 204, 205, 206, 207, 208, 209, 210, 211, 212, 213, 214, 215, 216, 217, 218, 219, 220, 221, 222, 223, 224, 225, 226, 227, 228, 229, 230, 231, 232, 233, 234, 235, 236, 237, 238, 239, 240, 241, 242, 243, 244, 245, 246, 247, 248, 249, 250, 251, 252, 253, 254, 255, 256, 257, 258, 259, 260, 261, 262, 263, 264, 265, 266, 267, 268, 269, 270, 271, 272, 273, 274, 275, 276, 277, 278, 279, 280, 281, 282, 283, 284, 285, 286, 287, 288, 289, 290, 291, 292, 293, 294, 295, 296, 297, 298, 299, 300, 301, 302, 303, 304, 305, 306, 307, 308, 309, 310, 311, 312, 313, 314, 315, 316, 317, 318, 319, 320, 321, 322, 323, 324, 325, 326, 327, 328, 329, 330, 331, 332, 333, 334, 335, 336, 337, 338, 339, 340, 341, 342, 343, 344, 345, 346, 347, 348, 349, 350, 351, 352, 353, 354, 355, 356, 357, 358, 359, 360, 361, 362, 363, 364, 365, 366, 367, 368, 369, 370, 371, 372, 373, 374, 375, 376, 377, 378, 379, 380, 381, 382, 383, 384, 385, 386, 387, 388, 389, 390, 391, 392],
      "AcquisitionTime": ["142110.405000", "142111.605000", "142112.805000", "142114.005000", "142115.205000", "142116.405000", "142117.605000", "142118.805000", "142120.005000", "142121.205000", "142122.405000", "142123.605000", "142124.805000", "142126.005000", "142127.205000", "142128.405000", "142129.605000", "142130.805000", "142132.005000", "142133.205000", "142134.405000", "142135.605000", "142136.805000", "142138.005000", "142139.205000", "142140.405000", "142141.605000", "142142.805000", "142144.005000", "142145.205000", "142146.405000", "142147.605000", "142148.805000", "142150.005000", "142151.205000", "142152.405000", "142153.605000", "142154.805000", "142156.005000", "142157.205000", "142158.405000", "142159.605000", "142200.805000", "142202.005000", "142203.205000", "142204.405000", "142205.605000", "142206.805000", "142208.005000", "142209.205000", "142210.405000", "142211.605000", "142212.805000", "142214.005000", "142215.205000", "142216.405000", "142217.605000", "142218.805000", "142220.005000", "142221.205000", "142222.405000", "142223.605000", "142224.805000", "142226.005000", "142227.205000", "142228.405000", "142229.605000", "142230.805000", "142232.005000", "142233.205000", "142234.405000", "142235.605000", "142236.805000", "142238.005000", "142239.205000", "142240.405000", "142241.605000", "142242.805000", "142244.005000", "142245.205000", "142246.405000", "142247.605000", "142248.805000", "142250.005000", "142251.205000", "142252.405000", "142253.605000", "142254.805000", "142256.005000", "142257.205000", "142258.405000", "142259.605000", "142300.805000", "142302.005000", "142303.205000", "142304.405000", "142305.605000", "142306.805000", "142308.005000", "142309.205000", "142310.405000", "142311.605000", "142312.805000", "142314.005000", "142315.205000", "142316.405000", "142317.605000", "142318.805000", "142320.005000", "142321.205000", "142322.405000", "142323.605000", "142324.805000", "142326.005000", "142327.205000", "142328.405000", "142329.605000", "142330.805000", "142332.005000", "142333.205000", "142334.405000", "142335.605000", "142336.805000", "142338.005000", "142339.205000", "142340.405000", "142341.605000", "142342.805000", "142344.005000", "142345.205000", "142346.405000", "142347.605000", "142348.805000", "142350.005000", "142351.205000", "142352.405000", "142353.605000", "142354.805000", "142356.005000", "142357.205000", "142358.405000", "142359.605000", "142400.805000", "142402.005000", "142403.205000", "142404.405000", "142405.605000", "142406.805000", "142408.005000", "142409.205000", "142410.405000", "142411.605000", "142412.805000", "142414.005000", "142415.205000", "142416.405000", "142417.605000", "142418.805000", "142420.005000", "142421.205000", "142422.405000", "142423.605000", "142424.805000", "142426.005000", "142427.205000", "142428.405000", "142429.605000", "142430.805000", "142432.005000", "142433.205000", "142434.405000", "142435.605000", "142436.805000", "142438.005000", "142439.205000", "142440.405000", "142441.605000", "142442.805000", "142444.005000", "142445.205000", "142446.405000", "142447.605000", "142448.805000", "142450.005000", "142451.205000", "142452.405000", "142453.605000", "142454.805000", "142456.005000", "142457.205000", "142458.405000", "142459.605000", "142500.805000", "142502.005000", "142503.205000", "142504.405000", "142505.605000", "142506.805000", "142508.005000", "142509.205000", "142510.405000", "142511.605000", "142512.805000", "142514.005000", "142515.205000", "142516.405000", "142517.605000", "142518.805000", "142520.005000", "142521.205000", "142522.405000", "142523.605000", "142524.805000", "142526.005000", "142527.205000", "142528.405000", "142529.605000", "142530.805000", "142532.005000", "142533.205000", "142534.405000", "142535.605000", "142536.805000", "142538.005000", "142539.205000", "142540.405000", "142541.605000", "142542.805000", "142544.005000", "142545.205000", "142546.405000", "142547.605000", "142548.805000", "142550.005000", "142551.205000", "142552.405000", "142553.605000", "142554.805000", "142556.005000", "142557.205000", "142558.405000", "142559.605000", "142600.805000", "142602.005000", "142603.205000", "142604.405000", "142605.605000", "142606.805000", "142608.005000", "142609.205000", "142610.405000", "142611.605000", "142612.805000", "142614.005000", "142615.205000", "142616.405000", "142617.605000", "142618.805000", "142620.005000", "142621.205000", "142622.405000", "142623.605000", "142624.805000", "142626.005000", "142627.205000", "142628.405000", "142629.605000", "142630.805000", "142632.005000", "142633.205000", "142634.405000", "142635.605000", "142636.805000", "142638.005000", "142639.205000", "142640.405000", "142641.605000", "142642.805000", "142644.005000", "142645.205000", "142646.405000", "142647.605000", "142648.805000", "142650.005000", "142651.205000", "142652.405000", "142653.605000", "142654.805000", "142656.005000", "142657.205000", "142658.405000", "142659.605000", "142700.805000", "142702.005000", "142703.205000", "142704.405000", "142705.605000", "142706.805000", "142708.005000", "142709.205000", "142710.405000", "142711.605000", "142712.805000", "142714.005000", "142715.205000", "142716.405000", "142717.605000", "142718.805000", "142720.005000", "142721.205000", "142722.405000", "142723.605000", "142724.805000", "142726.005000", "142727.205000", "142728.405000", "142729.605000", "142730.805000", "142732.005000", "142733.205000", "142734.405000", "142735.605000", "142736.805000", "142738.005000", "142739.205000", "142740.405000", "142741.605000", "142742.805000", "142744.005000", "142745.205000", "142746.405000", "142747.605000", "142748.805000", "142750.005000", "142751.205000", "142752.405000", "142753.605000", "142754.805000", "142756.005000", "142757.205000", "142758.405000", "142759.605000", "142800.805000", "142802.005000", "142803.205000", "142804.405000", "142805.605000", "142806.805000", "142808.005000", "142809.205000", "142810.405000", "142811.605000", "142812.805000", "142814.005000", "142815.205000", "142816.405000", "142817.605000", "142818.805000", "142820.005000", "142821.205000", "142822.405000", "142823.605000", "142824.805000", "142826.005000", "142827.205000", "142828.405000", "142829.605000", "142830.805000", "142832.005000", "142833.205000", "142834.405000", "142835.605000", "142836.805000", "142838.005000", "142839.205000", "142840.405000", "142841.605000", "142842.805000", "142844.005000", "142845.205000", "142846.405000", "142847.605000", "142848.805000", "142850.005000", "142851.205000", "142852.405000", "142853.605000", "142854.805000", "142856.005000", "142857.205000", "142858.405000", "142859.605000"],
      "ContentTime": ["142151.924000", "142151.927000", "142151.930000", "142151.932000", "142151.935000", "142151.938000", "142151.940000", "142151.943000", "142151.945000", "142151.948000", "142151.950000", "142151.953000", "142151.956000", "142151.978000", "142151.980000", "142151.983000", "142151.986000", "142151.988000", "142151.991000", "142151.993000", "142151.996000", "142151.998000", "142152.003000", "142152.006000", "142152.025000", "142152.027000", "142152.030000", "142152.033000", "142152.035000", "142152.038000", "142152.040000", "142152.043000", "142152.046000", "142152.048000", "142231.920000", "142231.923000", "142231.925000", "142231.928000", "142231.930000", "142231.933000", "142231.936000", "142231.939000", "142231.941000", "142231.944000", "142231.946000", "142231.949000", "142231.952000", "142231.954000", "142231.957000", "142231.959000", "142231.962000", "142231.965000", "142231.967000", "142231.970000", "142231.973000", "142231.975000", "142231.978000", "142231.981000", "142231.983000", "142231.986000", "142231.989000", "142231.991000", "142231.994000", "142231.997000", "142232.000000", "142232.003000", "142232.005000", "142311.920000", "142311.923000", "142311.926000", "142311.929000", "142311.931000", "142311.934000", "142311.936000", "142311.939000", "142311.942000", "142311.944000", "142311.947000", "142311.949000", "142311.952000", "142311.960000", "142311.962000", "142311.965000", "142311.967000", "142311.970000", "142311.973000", "142311.975000", "142311.978000", "142311.980000", "142311.983000", "142311.985000", "142311.988000", "142311.991000", "142311.993000", "142311.996000", "142311.998000", "142312.001000", "142312.003000", "142312.006000", "142312.009000", "142312.011000", "142351.920000", "142351.923000", "142351.926000", "142351.929000", "142351.931000", "142351.934000", "142351.936000", "142351.939000", "142351.941000", "142351.944000", "142351.947000", "142351.949000", "142351.952000", "142351.954000", "142351.957000", "142351.960000", "142351.962000", "142351.965000", "142351.968000", "142351.970000", "142351.973000", "142351.976000", "142351.978000", "142351.981000", "142351.983000", "142351.986000", "142351.995000", "142351.998000", "142352.003000", "142352.006000", "142352.008000", "142352.011000", "142352.013000", "142431.919000", "142431.923000", "142431.925000", "142431.928000", "142431.930000", "142431.933000", "142431.935000", "142431.938000", "142431.941000", "142431.943000", "142431.946000", "142431.948000", "142431.951000", "142431.954000", "142431.956000", "142431.959000", "142431.961000", "142431.964000", "142431.967000", "142431.969000", "142431.972000", "142431.974000", "142431.977000", "142431.979000", "142431.982000", "142431.985000", "142431.987000", "142431.990000", "142431.993000", "142431.995000", "142431.998000", "142432.002000", "142432.004000", "142511.919000", "142511.922000", "142511.925000", "142511.928000", "142511.930000", "142511.933000", "142511.935000", "142511.938000", "142511.941000", "142511.943000", "142511.946000", "142511.948000", "142511.951000", "142511.954000", "142511.956000", "142511.959000", "142511.961000", "142511.964000", "142511.966000", "142511.969000", "142511.972000", "142511.974000", "142511.977000", "142511.980000", "142511.982000", "142511.985000", "142511.987000", "142511.990000", "142511.993000", "142511.995000", "142511.998000", "142512.001000", "142512.004000", "142512.007000", "142551.920000", "142551.923000", "142551.926000", "142551.929000", "142551.931000", "142551.934000", "142551.937000", "142551.939000", "142551.942000", "142551.944000", "142551.947000", "142551.950000", "142551.952000", "142551.955000", "142551.958000", "142551.960000", "142551.963000", "142551.966000", "142551.968000", "142551.971000", "142551.974000", "142551.993000", "142551.996000", "142552.001000", "142552.004000", "142552.006000", "142552.009000", "142552.012000", "142552.014000", "142552.017000", "142552.020000", "142552.022000", "142552.025000", "142631.919000", "142631.922000", "142631.925000", "142631.928000", "142631.930000", "142631.933000", "142631.936000", "142631.938000", "142631.941000", "142631.943000", "142631.946000", "142631.949000", "142631.951000", "142631.954000", "142631.957000", "142631.959000", "142631.970000", "142631.972000", "142631.975000", "142631.978000", "142631.980000", "142631.983000", "142631.985000", "142631.988000", "142631.991000", "142631.993000", "142631.996000", "142632.000000", "142632.003000", "142632.006000", "142632.009000", "142632.011000", "142632.014000", "142711.919000", "142711.923000", "142711.925000", "142711.928000", "142711.930000", "142711.933000", "142711.936000", "142711.938000", "142711.941000", "142711.944000", "142711.946000", "142711.949000", "142711.951000", "142711.954000", "142711.957000", "142711.959000", "142711.962000", "142711.965000", "142711.967000", "142711.970000", "142711.972000", "142711.975000", "142711.978000", "142711.980000", "142711.983000", "142711.985000", "142711.988000", "142711.990000", "142711.993000", "142711.996000", "142711.998000", "142712.002000", "142712.005000", "142712.007000", "142731.920000", "142731.923000", "142731.925000", "142731.928000", "142731.931000", "142731.933000", "142731.936000", "142731.938000", "142731.941000", "142731.944000", "142731.946000", "142731.949000", "142731.951000", "142731.954000", "142731.957000", "142731.959000", "142811.920000", "142811.923000", "142811.926000", "142811.929000", "142811.931000", "142811.934000", "142811.936000", "142811.939000", "142811.941000", "142811.944000", "142811.947000", "142811.949000", "142811.952000", "142811.954000", "142811.957000", "142811.960000", "142811.963000", "142811.965000", "142811.968000", "142811.970000", "142811.973000", "142811.975000", "142811.978000", "142811.981000", "142811.983000", "142811.986000", "142811.988000", "142811.991000", "142812.002000", "142812.004000", "142812.007000", "142812.009000", "142812.012000", "142812.014000", "142851.920000", "142851.922000", "142851.925000", "142851.928000", "142851.930000", "142851.933000", "142851.935000", "142851.938000", "142851.941000", "142851.943000", "142851.946000", "142851.948000", "142851.951000", "142851.954000", "142851.956000", "142851.959000", "142851.962000", "142851.964000", "142851.967000", "142851.969000", "142851.972000", "142851.975000", "142851.977000", "142851.980000", "142851.983000", "142851.985000", "142851.988000", "142851.990000", "142851.993000", "142851.996000", "142852.001000", "142852.003000", "142852.006000", "142900.853000", "142900.856000", "142900.858000", "142900.861000", "142900.864000", "142900.866000", "142900.869000", "142900.872000"],
      "InstanceCreationTime": ["142151.924000", "142151.927000", "142151.930000", "142151.932000", "142151.935000", "142151.938000", "142151.940000", "142151.943000", "142151.945000", "142151.948000", "142151.950000", "142151.953000", "142151.956000", "142151.978000", "142151.980000", "142151.983000", "142151.986000", "142151.988000", "142151.991000", "142151.993000", "142151.996000", "142151.998000", "142152.003000", "142152.006000", "142152.025000", "142152.027000", "142152.030000", "142152.033000", "142152.035000", "142152.038000", "142152.040000", "142152.043000", "142152.046000", "142152.048000", "142231.920000", "142231.923000", "142231.925000", "142231.928000", "142231.930000", "142231.933000", "142231.936000", "142231.939000", "142231.941000", "142231.944000", "142231.946000", "142231.949000", "142231.952000", "142231.954000", "142231.957000", "142231.959000", "142231.962000", "142231.965000", "142231.967000", "142231.970000", "142231.973000", "142231.975000", "142231.978000", "142231.981000", "142231.983000", "142231.986000", "142231.989000", "142231.991000", "142231.994000", "142231.997000", "142232.000000", "142232.003000", "142232.005000", "142311.920000", "142311.923000", "142311.926000", "142311.929000", "142311.931000", "142311.934000", "142311.936000", "142311.939000", "142311.942000", "142311.944000", "142311.947000", "142311.949000", "142311.952000", "142311.960000", "142311.962000", "142311.965000", "142311.967000", "142311.970000", "142311.973000", "142311.975000", "142311.978000", "142311.980000", "142311.983000", "142311.985000", "142311.988000", "142311.991000", "142311.993000", "142311.996000", "142311.998000", "142312.001000", "142312.003000", "142312.006000", "142312.009000", "142312.011000", "142351.920000", "142351.923000", "142351.926000", "142351.929000", "142351.931000", "142351.934000", "142351.936000", "142351.939000", "142351.941000", "142351.944000", "142351.947000", "142351.949000", "142351.952000", "142351.954000", "142351.957000", "142351.960000", "142351.962000", "142351.965000", "142351.968000", "142351.970000", "142351.973000", "142351.976000", "142351.978000", "142351.981000", "142351.983000", "142351.986000", "142351.995000", "142351.998000", "142352.003000", "142352.006000", "142352.008000", "142352.011000", "142352.013000", "142431.919000", "142431.923000", "142431.925000", "142431.928000", "142431.930000", "142431.933000", "142431.935000", "142431.938000", "142431.941000", "142431.943000", "142431.946000", "142431.948000", "142431.951000", "142431.954000", "142431.956000", "142431.959000", "142431.961000", "142431.964000", "142431.967000", "142431.969000", "142431.972000", "142431.974000", "142431.977000", "142431.979000", "142431.982000", "142431.985000", "142431.987000", "142431.990000", "142431.993000", "142431.995000", "142431.998000", "142432.002000", "142432.004000", "142511.919000", "142511.922000", "142511.925000", "142511.928000", "142511.930000", "142511.933000", "142511.935000", "142511.938000", "142511.941000", "142511.943000", "142511.946000", "142511.948000", "142511.951000", "142511.954000", "142511.956000", "142511.959000", "142511.961000", "142511.964000", "142511.966000", "142511.969000", "142511.972000", "142511.974000", "142511.977000", "142511.980000", "142511.982000", "142511.985000", "142511.987000", "142511.990000", "142511.993000", "142511.995000", "142511.998000", "142512.001000", "142512.004000", "142512.007000", "142551.920000", "142551.923000", "142551.926000", "142551.929000", "142551.931000", "142551.934000", "142551.937000", "142551.939000", "142551.942000", "142551.944000", "142551.947000", "142551.950000", "142551.952000", "142551.955000", "142551.958000", "142551.960000", "142551.963000", "142551.966000", "142551.968000", "142551.971000", "142551.974000", "142551.993000", "142551.996000", "142552.001000", "142552.004000", "142552.006000", "142552.009000", "142552.012000", "142552.014000", "142552.017000", "142552.020000", "142552.022000", "142552.025000", "142631.919000", "142631.922000", "142631.925000", "142631.928000", "142631.930000", "142631.933000", "142631.936000", "142631.938000", "142631.941000", "142631.943000", "142631.946000", "142631.949000", "142631.951000", "142631.954000", "142631.957000", "142631.959000", "142631.970000", "142631.972000", "142631.975000", "142631.978000", "142631.980000", "142631.983000", "142631.985000", "142631.988000", "142631.991000", "142631.993000", "142631.996000", "142632.000000", "142632.003000", "142632.006000", "142632.009000", "142632.011000", "142632.014000", "142711.919000", "142711.923000", "142711.925000", "142711.928000", "142711.930000", "142711.933000", "142711.936000", "142711.938000", "142711.941000", "142711.944000", "142711.946000", "142711.949000", "142711.951000", "142711.954000", "142711.957000", "142711.959000", "142711.962000", "142711.965000", "142711.967000", "142711.970000", "142711.972000", "142711.975000", "142711.978000", "142711.980000", "142711.983000", "142711.985000", "142711.988000", "142711.990000", "142711.993000", "142711.996000", "142711.998000", "142712.002000", "142712.005000", "142712.007000", "142731.920000", "142731.923000", "142731.925000", "142731.928000", "142731.931000", "142731.933000", "142731.936000", "142731.938000", "142731.941000", "142731.944000", "142731.946000", "142731.949000", "142731.951000", "142731.954000", "142731.957000", "142731.959000", "142811.920000", "142811.923000", "142811.926000", "142811.929000", "142811.931000", "142811.934000", "142811.936000", "142811.939000", "142811.941000", "142811.944000", "142811.947000", "142811.949000", "142811.952000", "142811.954000", "142811.957000", "142811.960000", "142811.963000", "142811.965000", "142811.968000", "142811.970000", "142811.973000", "142811.975000", "142811.978000", "142811.981000", "142811.983000", "142811.986000", "142811.988000", "142811.991000", "142812.002000", "142812.004000", "142812.007000", "142812.009000", "142812.012000", "142812.014000", "142851.920000", "142851.922000", "142851.925000", "142851.928000", "142851.930000", "142851.933000", "142851.935000", "142851.938000", "142851.941000", "142851.943000", "142851.946000", "142851.948000", "142851.951000", "142851.954000", "142851.956000", "142851.959000", "142851.962000", "142851.964000", "142851.967000", "142851.969000", "142851.972000", "142851.975000", "142851.977000", "142851.980000", "142851.983000", "142851.985000", "142851.988000", "142851.990000", "142851.993000", "142851.996000", "142852.001000", "142852.003000", "142852.006000", "142900.853000", "142900.856000", "142900.858000", "142900.861000", "142900.864000", "142900.866000", "142900.869000", "142900.872000"],
      "InstanceNumber": [1, 2, 3, 4, 5, 6, 7, 8, 9, 10, 11, 12, 13, 14, 15, 16, 17, 18, 19, 20, 21, 22, 23, 24, 25, 26, 27, 28, 29, 30, 31, 32, 33, 34, 35, 36, 37, 38, 39, 40, 41, 42, 43, 44, 45, 46, 47, 48, 49, 50, 51, 52, 53, 54, 55, 56, 57, 58, 59, 60, 61, 62, 63, 64, 65, 66, 67, 68, 69, 70, 71, 72, 73, 74, 75, 76, 77, 78, 79, 80, 81, 82, 83, 84, 85, 86, 87, 88, 89, 90, 91, 92, 93, 94, 95, 96, 97, 98, 99, 100, 101, 102, 103, 104, 105, 106, 107, 108, 109, 110, 111, 112, 113, 114, 115, 116, 117, 118, 119, 120, 121, 122, 123, 124, 125, 126, 127, 128, 129, 130, 131, 132, 133, 134, 135, 136, 137, 138, 139, 140, 141, 142, 143, 144, 145, 146, 147, 148, 149, 150, 151, 152, 153, 154, 155, 156, 157, 158, 159, 160, 161, 162, 163, 164, 165, 166, 167, 168, 169, 170, 171, 172, 173, 174, 175, 176, 177, 178, 179, 180, 181, 182, 183, 184, 185, 186, 187, 188, 189, 190, 191, 192, 193, 194, 195, 196, 197, 198, 199, 200, 201, 202, 203, 204, 205, 206, 207, 208, 209, 210, 211, 212, 213, 214, 215, 216, 217, 218, 219, 220, 221, 222, 223, 224, 225, 226, 227, 228, 229, 230, 231, 232, 233, 234, 235, 236, 237, 238, 239, 240, 241, 242, 243, 244, 245, 246, 247, 248, 249, 250, 251, 252, 253, 254, 255, 256, 257, 258, 259, 260, 261, 262, 263, 264, 265, 266, 267, 268, 269, 270, 271, 272, 273, 274, 275, 276, 277, 278, 279, 280, 281, 282, 283, 284, 285, 286, 287, 288, 289, 290, 291, 292, 293, 294, 295, 296, 297, 298, 299, 300, 301, 302, 303, 304, 305, 306, 307, 308, 309, 310, 311, 312, 313, 314, 315, 316, 317, 318, 319, 320, 321, 322, 323, 324, 325, 326, 327, 328, 329, 330, 331, 332, 333, 334, 335, 336, 337, 338, 339, 340, 341, 342, 343, 344, 345, 346, 347, 348, 349, 350, 351, 352, 353, 354, 355, 356, 357, 358, 359, 360, 361, 362, 363, 364, 365, 366, 367, 368, 369, 370, 371, 372, 373, 374, 375, 376, 377, 378, 379, 380, 381, 382, 383, 384, 385, 386, 387, 388, 389, 390, 391, 392],
