{
  "AcquisitionMatrixPE": 88,
  "AcquisitionNumber": 1,
  "AcquisitionTime": "13:53:19.495000",
  "BandwidthPerPixelPhaseEncode": 19.592,
  "BaseResolution": 88,
  "BodyPartExamined": "BRAIN",
  "ConsistencyInfo": "N4_VE11C_LATEST_20160120",
  "ConversionSoftware": "dcm2niix",
  "ConversionSoftwareVersion": "v1.0.20190902",
  "DerivedVendorReportedEchoSpacing": 0.000580014,
  "DeviceSerialNumber": "67050",
  "DwellTime": 2.6e-06,
  "EchoTime": 0.033,
  "EchoTrainLength": 88,
  "EffectiveEchoSpacing": 0.000580014,
  "FlipAngle": 62,
  "ImageOrientationPatientDICOM": [0.997562, 0.0543138, -0.0438263, -0.0555977, 0.998043, -0.0286287],
  "ImageType": [
    "ORIGINAL",
    "PRIMARY",
    "M",
    "ND",
    "MOSAIC"
],
  "ImagingFrequency": 123.251,
  "InPlanePhaseEncodingDirectionDICOM": "COL",
  "InstitutionAddress": "Olive_Street_60_Providence_RI_US_02912",
  "InstitutionName": "BROWN_UNIVERSITY_MRF",
  "InstitutionalDepartmentName": "Department",
  "MRAcquisitionType": "2D",
  "MagneticFieldStrength": 3,
  "Manufacturer": "Siemens",
  "ManufacturersModelName": "Prisma_fit",
  "Modality": "MR",
  "MultibandAccelerationFactor": 4,
  "PartialFourier": 1,
  "PatientPosition": "HFS",
  "PercentPhaseFOV": 100,
  "PhaseEncodingDirection": "j-",
  "PhaseEncodingSteps": 88,
  "PhaseResolution": 1,
  "PixelBandwidth": 2185,
  "ProcedureStepDescription": "ASHENHAV_1222",
  "ProtocolName": "func-bold_task-RDMmotion_run-03",
  "PulseSequenceDetails": "%SiemensSeq%_ep2d_bold",
  "ReceiveCoilActiveElements": "HC1-7;NC1",
  "ReceiveCoilName": "HeadNeck_64",
  "ReconMatrixPE": 88,
  "RefLinesPE": 8,
  "RepetitionTime": 1.2,
  "SAR": 0.0480046,
  "ScanOptions": "FS",
  "ScanningSequence": "EP",
  "SequenceName": "_epfid2d1_88",
  "SequenceVariant": "SK",
  "SeriesDescription": "func-bold_task-RDMmotion_run-03",
  "SeriesNumber": 11,
  "ShimSetting": [1749, -9087, 4383, 363, -43, -237, -162, 6],
  "SliceThickness": 2.4,
  "SliceTiming": [0.5525, 0, 0.63, 0.08, 0.71, 0.1575, 0.7875, 0.2375, 0.8675, 0.315, 0.945, 0.395, 1.0225, 0.4725, 1.1025, 0.5525, 0, 0.63, 0.08, 0.71, 0.1575, 0.7875, 0.2375, 0.8675, 0.315, 0.945, 0.395, 1.0225, 0.4725, 1.1025, 0.5525, 0, 0.63, 0.08, 0.71, 0.1575, 0.7875, 0.2375, 0.8675, 0.315, 0.945, 0.395, 1.0225, 0.4725, 1.1025, 0.5525, 0, 0.63, 0.08, 0.71, 0.1575, 0.7875, 0.2375, 0.8675, 0.315, 0.945, 0.395, 1.0225, 0.4725, 1.1025],
  "SoftwareVersions": "syngo_MR_E11",
  "SpacingBetweenSlices": 2.4,
  "StationName": "AWP67050",
  "TaskName": "RDMmotion",
  "TotalReadoutTime": 0.0504612,
  "TxRefAmp": 218.677,
  "dcmmeta_affine": [
    [-2.391880750656128, -0.13330815732479095, -0.10124549269676208, 114.77777099609375],
    [-0.13022959232330322, 2.3930342197418213, -0.07438936084508896, -83.39673614501953],
    [-0.10508359968662262, 0.06864388287067413, 2.3967092037200928, -57.30762481689453],
    [0.0, 0.0, 0.0, 1.0]
],
  "dcmmeta_reorient_transform": [
    [0.0, -1.0, 0.0, 87.0],
    [1.0, 0.0, 0.0, 0.0],
    [0.0, 0.0, 1.0, 0.0],
    [0.0, 0.0, 0.0, 1.0]
],
  "dcmmeta_shape": [88, 88, 60, 125],
  "dcmmeta_slice_dim": 2,
  "dcmmeta_version": 0.6,
  "global": {
    "const": {
      "AcquisitionMatrix": [88, 0, 0, 88],
      "AngioFlag": "N",
      "BitsAllocated": 16,
      "BitsStored": 12,
      "BodyPartExamined": "BRAIN",
      "Columns": 704,
      "DeidentificationMethodCodeSequence": [
        {
          "CodeMeaning": "XNAT DicomEdit 6 Script",
          "CodeValue": "3",
          "CodingSchemeDesignator": "XNAT",
          "CodingSchemeVersion": "1.0"}
],
      "EchoNumbers": 1,
      "EchoTime": 33.0,
      "EchoTrainLength": 88,
      "FlipAngle": 62.0,
      "HighBit": 11,
      "ImageOrientationPatient": [0.99756166082786, 0.05431376454039, -0.0438263371481, -0.0555977162785, 0.9980427294218, -0.0286287302008],
      "ImagePositionPatient": [-798.82033143562, -901.96250683216, 2.1724582172377],
      "ImageType": [
        "ORIGINAL",
        "PRIMARY",
        "M",
        "ND",
        "MOSAIC"
],
      "ImagedNucleus": "1H",
      "ImagingFrequency": 123.250533,
      "InPlanePhaseEncodingDirection": "COL",
      "MRAcquisitionType": "2D",
      "MagneticFieldStrength": 3.0,
      "Manufacturer": "SIEMENS",
      "ManufacturerModelName": "Prisma_fit",
      "Modality": "MR",
      "NumberOfAverages": 1.0,
      "NumberOfPhaseEncodingSteps": 88,
      "PercentPhaseFieldOfView": 100.0,
      "PercentSampling": 100.0,
      "PerformedProcedureStepStartTime": "132250.855000",
      "PhotometricInterpretation": "MONOCHROME2",
      "PixelBandwidth": 2185.0,
      "PixelRepresentation": 0,
      "PixelSpacing": [2.3977272510529, 2.3977272510529],
      "ProtocolName": "func-bold_task-RDMmotion_run-03",
      "RepetitionTime": 1200.0,
      "Rows": 704,
      "SAR": 0.0480046059734,
      "SamplesPerPixel": 1,
      "ScanOptions": "FS",
      "ScanningSequence": "EP",
      "SequenceName": "*epfid2d1_88",
      "SequenceVariant": "SK",
      "SeriesDescription": "func-bold_task-RDMmotion_run-03",
      "SeriesNumber": 11,
      "SeriesTime": "135359.010000",
      "SliceLocation": -59.486093979055,
      "SliceThickness": 2.4000000953674,
      "SmallestImagePixelValue": 0,
      "SoftwareVersions": "syngo MR E11",
      "SpacingBetweenSlices": 2.3999999920267,
      "SpecificCharacterSet": "ISO_IR 100",
      "StudyID": "1",
      "StudyTime": "132250.761000",
      "TransmitCoilName": "Body",
      "VariableFlipAngleFlag": "N",
      "WindowCenterWidthExplanation": "Algo1",
      "dBdt": 0.0},
    "slices": {}
  },
  "time": {
    "samples": {
      "AcquisitionNumber": [1, 2, 3, 4, 5, 6, 7, 8, 9, 10, 11, 12, 13, 14, 15, 16, 17, 18, 19, 20, 21, 22, 23, 24, 25, 26, 27, 28, 29, 30, 31, 32, 33, 34, 35, 36, 37, 38, 39, 40, 41, 42, 43, 44, 45, 46, 47, 48, 49, 50, 51, 52, 53, 54, 55, 56, 57, 58, 59, 60, 61, 62, 63, 64, 65, 66, 67, 68, 69, 70, 71, 72, 73, 74, 75, 76, 77, 78, 79, 80, 81, 82, 83, 84, 85, 86, 87, 88, 89, 90, 91, 92, 93, 94, 95, 96, 97, 98, 99, 100, 101, 102, 103, 104, 105, 106, 107, 108, 109, 110, 111, 112, 113, 114, 115, 116, 117, 118, 119, 120, 121, 122, 123, 124, 125],
      "AcquisitionTime": ["135319.495000", "135320.695000", "135321.895000", "135323.095000", "135324.295000", "135325.495000", "135326.695000", "135327.895000", "135329.095000", "135330.295000", "135331.495000", "135332.695000", "135333.895000", "135335.095000", "135336.295000", "135337.495000", "135338.695000", "135339.895000", "135341.095000", "135342.295000", "135343.495000", "135344.695000", "135345.895000", "135347.095000", "135348.295000", "135349.495000", "135350.695000", "135351.895000", "135353.095000", "135354.295000", "135355.495000", "135356.695000", "135357.895000", "135359.095000", "135400.295000", "135401.495000", "135402.695000", "135403.895000", "135405.095000", "135406.295000", "135407.495000", "135408.695000", "135409.895000", "135411.095000", "135412.295000", "135413.495000", "135414.695000", "135415.895000", "135417.095000", "135418.295000", "135419.495000", "135420.695000", "135421.895000", "135423.095000", "135424.295000", "135425.495000", "135426.695000", "135427.895000", "135429.095000", "135430.295000", "135431.495000", "135432.695000", "135433.895000", "135435.095000", "135436.295000", "135437.495000", "135438.695000", "135439.895000", "135441.095000", "135442.295000", "135443.495000", "135444.695000", "135445.895000", "135447.095000", "135448.295000", "135449.495000", "135450.695000", "135451.895000", "135453.095000", "135454.295000", "135455.495000", "135456.695000", "135457.895000", "135459.095000", "135500.295000", "135501.495000", "135502.695000", "135503.895000", "135505.095000", "135506.295000", "135507.495000", "135508.695000", "135509.895000", "135511.095000", "135512.295000", "135513.495000", "135514.695000", "135515.895000", "135517.095000", "135518.295000", "135519.495000", "135520.695000", "135521.895000", "135523.095000", "135524.295000", "135525.495000", "135526.695000", "135527.895000", "135529.095000", "135530.295000", "135531.495000", "135532.695000", "135533.895000", "135535.095000", "135536.295000", "135537.495000", "135538.695000", "135539.895000", "135541.095000", "135542.295000", "135543.495000", "135544.695000", "135545.895000", "135547.095000", "135548.295000"],
      "ContentTime": ["135359.014000", "135359.018000", "135359.021000", "135359.024000", "135359.027000", "135359.036000", "135359.039000", "135359.042000", "135359.045000", "135359.059000", "135359.062000", "135359.064000", "135359.067000", "135359.070000", "135359.072000", "135359.075000", "135359.079000", "135359.081000", "135359.084000", "135359.087000", "135359.090000", "135359.093000", "135359.096000", "135359.099000", "135359.101000", "135359.104000", "135359.107000", "135359.109000", "135359.112000", "135359.114000", "135359.117000", "135359.120000", "135439.011000", "135439.013000", "135439.016000", "135439.018000", "135439.021000", "135439.029000", "135439.031000", "135439.034000", "135439.036000", "135439.039000", "135439.042000", "135439.044000", "135439.047000", "135439.049000", "135439.052000", "135439.055000", "135439.057000", "135439.060000", "135439.063000", "135439.065000", "135439.068000", "135439.070000", "135439.073000", "135439.076000", "135439.078000", "135439.081000", "135439.084000", "135439.086000", "135439.089000", "135439.092000", "135439.094000", "135439.097000", "135439.099000", "135439.102000", "135519.009000", "135519.012000", "135519.015000", "135519.018000", "135519.020000", "135519.023000", "135519.025000", "135519.028000", "135519.030000", "135519.033000", "135519.036000", "135519.038000", "135519.041000", "135519.044000", "135519.046000", "135519.049000", "135519.052000", "135519.054000", "135519.057000", "135519.059000", "135519.062000", "135519.065000", "135519.067000", "135519.070000", "135519.072000", "135519.075000", "135519.088000", "135519.091000", "135519.093000", "135519.096000", "135519.098000", "135519.101000", "135519.103000", "135549.435000", "135549.438000", "135549.441000", "135549.443000", "135549.446000", "135549.448000", "135549.451000", "135549.454000", "135549.456000", "135549.459000", "135549.461000", "135549.464000", "135549.467000", "135549.469000", "135549.472000", "135549.474000", "135549.477000", "135549.480000", "135549.495000", "135549.498000", "135549.500000", "135549.503000", "135549.506000", "135549.508000", "135549.511000", "135549.513000"],
      "InstanceCreationTime": ["135359.014000", "135359.018000", "135359.021000", "135359.024000", "135359.027000", "135359.036000", "135359.039000", "135359.042000", "135359.045000", "135359.059000", "135359.062000", "135359.064000", "135359.067000", "135359.070000", "135359.072000", "135359.075000", "135359.079000", "135359.081000", "135359.084000", "135359.087000", "135359.090000", "135359.093000", "135359.096000", "135359.099000", "135359.101000", "135359.104000", "135359.107000", "135359.109000", "135359.112000", "135359.114000", "135359.117000", "135359.120000", "135439.011000", "135439.013000", "135439.016000", "135439.018000", "135439.021000", "135439.029000", "135439.031000", "135439.034000", "135439.036000", "135439.039000", "135439.042000", "135439.044000", "135439.047000", "135439.049000", "135439.052000", "135439.055000", "135439.057000", "135439.060000", "135439.063000", "135439.065000", "135439.068000", "135439.070000", "135439.073000", "135439.076000", "135439.078000", "135439.081000", "135439.084000", "135439.086000", "135439.089000", "135439.092000", "135439.094000", "135439.097000", "135439.099000", "135439.102000", "135519.009000", "135519.012000", "135519.015000", "135519.018000", "135519.020000", "135519.023000", "135519.025000", "135519.028000", "135519.030000", "135519.033000", "135519.036000", "135519.038000", "135519.041000", "135519.044000", "135519.046000", "135519.049000", "135519.052000", "135519.054000", "135519.057000", "135519.059000", "135519.062000", "135519.065000", "135519.067000", "135519.070000", "135519.072000", "135519.075000", "135519.088000", "135519.091000", "135519.093000", "135519.096000", "135519.098000", "135519.101000", "135519.103000", "135549.435000", "135549.438000", "135549.441000", "135549.443000", "135549.446000", "135549.448000", "135549.451000", "135549.454000", "135549.456000", "135549.459000", "135549.461000", "135549.464000", "135549.467000", "135549.469000", "135549.472000", "135549.474000", "135549.477000", "135549.480000", "135549.495000", "135549.498000", "135549.500000", "135549.503000", "135549.506000", "135549.508000", "135549.511000", "135549.513000"],
      "InstanceNumber": [1, 2, 3, 4, 5, 6, 7, 8, 9, 10, 11, 12, 13, 14, 15, 16, 17, 18, 19, 20, 21, 22, 23, 24, 25, 26, 27, 28, 29, 30, 31, 32, 33, 34, 35, 36, 37, 38, 39, 40, 41, 42, 43, 44, 45, 46, 47, 48, 49, 50, 51, 52, 53, 54, 55, 56, 57, 58, 59, 60, 61, 62, 63, 64, 65, 66, 67, 68, 69, 70, 71, 72, 73, 74, 75, 76, 77, 78, 79, 80, 81, 82, 83, 84, 85, 86, 87, 88, 89, 90, 91, 92, 93, 94, 95, 96, 97, 98, 99, 100, 101, 102, 103, 104, 105, 106, 107, 108, 109, 110, 111, 112, 113, 114, 115, 116, 117, 118, 119, 120, 121, 122, 123, 124, 125],
      "LargestImagePixelValue": [1886, 1746, 1668, 1828, 1565, 1542, 1576, 1530, 1538, 1557, 1679, 1638, 1673, 1659, 1707, 1652, 1756, 1655, 1720, 1913, 1714, 1810, 1962, 1706, 1709, 1594, 1841, 1815, 1680, 1628, 1864, 1594, 1710, 1695, 1662, 1934, 1741, 1707, 1848, 1648, 1912, 1629, 1742, 1794, 1672, 1713, 1758, 1752, 1789, 1745, 1849, 1728, 1867, 1669, 1662, 1705, 1699, 1781, 1671, 1768, 1738, 1778, 1737, 1704, 2017, 1682, 1809, 1673, 1818, 1675, 1802, 1844, 1681, 1716, 2029, 1752, 1634, 1709, 1707, 1665, 1762, 1746, 1707, 1718, 1699, 1705, 1788, 1792, 1724, 1791, 1690, 1877, 1678, 1824, 1701, 1749, 1894, 1813, 1706, 1646, 1631, 1690, 1728, 1721, 1699, 1708, 1807, 1698, 1685, 1697, 1845, 1779, 1764, 1694, 1780, 1742, 1665, 1988, 1735, 1704, 1740, 1702, 1899, 1952, 1814],
      "WindowCenter": [567.0, 562.0, 559.0, 561.0, 556.0, 554.0, 555.0, 554.0, 554.0, 556.0, 557.0, 556.0, 556.0, 556.0, 557.0, 556.0, 558.0, 556.0, 557.0, 560.0, 556.0, 558.0, 560.0, 557.0, 557.0, 556.0, 559.0, 558.0, 556.0, 554.0, 558.0, 554.0, 556.0, 557.0, 556.0, 562.0, 559.0, 559.0, 562.0, 559.0, 563.0, 557.0, 559.0, 559.0, 557.0, 558.0, 558.0, 559.0, 559.0, 558.0, 560.0, 557.0, 559.0, 556.0, 556.0, 557.0, 556.0, 558.0, 556.0, 557.0, 556.0, 557.0, 556.0, 555.0, 560.0, 555.0, 557.0, 556.0, 558.0, 555.0, 558.0, 559.0, 557.0, 559.0, 563.0, 559.0, 558.0, 558.0, 558.0, 556.0, 558.0, 557.0, 556.0, 555.0, 555.0, 555.0, 556.0, 556.0, 555.0, 556.0, 555.0, 558.0, 554.0, 557.0, 555.0, 556.0, 558.0, 557.0, 557.0, 556.0, 557.0, 557.0, 558.0, 559.0, 559.0, 558.0, 559.0, 557.0, 556.0, 557.0, 559.0, 559.0, 560.0, 560.0, 563.0, 561.0, 560.0, 563.0, 558.0, 556.0, 555.0, 552.0, 556.0, 557.0, 556.0],
      "WindowWidth": [1200.0, 1190.0, 1185.0, 1187.0, 1178.0, 1176.0, 1176.0, 1175.0, 1175.0, 1178.0, 1179.0, 1178.0, 1178.0, 1178.0, 1179.0, 1178.0, 1181.0, 1178.0, 1179.0, 1184.0, 1177.0, 1180.0, 1183.0, 1179.0, 1181.0, 1178.0, 1184.0, 1181.0, 1177.0, 1175.0, 1181.0, 1175.0, 1178.0, 1179.0, 1178.0, 1188.0, 1183.0, 1184.0, 1189.0, 1184.0, 1190.0, 1180.0, 1183.0, 1183.0, 1180.0, 1181.0, 1182.0, 1182.0, 1184.0, 1182.0, 1185.0, 1181.0, 1183.0, 1179.0, 1178.0, 1179.0, 1178.0, 1181.0, 1177.0, 1179.0, 1177.0, 1178.0, 1177.0, 1176.0, 1183.0, 1176.0, 1180.0, 1177.0, 1180.0, 1176.0, 1180.0, 1182.0, 1180.0, 1183.0, 1190.0, 1185.0, 1182.0, 1183.0, 1181.0, 1179.0, 1181.0, 1180.0, 1177.0, 1177.0, 1175.0, 1175.0, 1177.0, 1177.0, 1176.0, 1177.0, 1176.0, 1179.0, 1174.0, 1178.0, 1175.0, 1177.0, 1180.0, 1179.0, 1180.0, 1178.0, 1180.0, 1180.0, 1183.0, 1184.0, 1183.0, 1182.0, 1184.0, 1180.0, 1178.0, 1179.0, 1183.0, 1184.0, 1186.0, 1188.0, 1192.0, 1189.0, 1186.0, 1191.0, 1181.0, 1176.0, 1174.0, 1170.0, 1176.0, 1177.0, 1176.0]
    },
    "slices": {}
  }
}