{
  "AcquisitionMatrixPE": 88,
  "AcquisitionNumber": 1,
  "AcquisitionTime": "10:32:31.107500",
  "BandwidthPerPixelPhaseEncode": 19.592,
  "BaseResolution": 88,
  "BodyPartExamined": "BRAIN",
  "ConsistencyInfo": "N4_VE11C_LATEST_20160120",
  "ConversionSoftware": "dcm2niix",
  "ConversionSoftwareVersion": "v1.0.20190902",
  "DerivedVendorReportedEchoSpacing": 0.000580014,
  "DeviceSerialNumber": "67050",
  "DwellTime": 2.6e-06,
  "EchoTime": 0.033,
  "EchoTrainLength": 88,
  "EffectiveEchoSpacing": 0.000580014,
  "FlipAngle": 62,
  "ImageOrientationPatientDICOM": [0.997351, -0.068948, -0.0231983, 0.071491, 0.98795, 0.137271],
  "ImageType": [
    "ORIGINAL",
    "PRIMARY",
    "M",
    "ND",
    "MOSAIC"
],
  "ImagingFrequency": 123.251,
  "InPlanePhaseEncodingDirectionDICOM": "COL",
  "InstitutionAddress": "Olive_Street_60_Providence_RI_US_02912",
  "InstitutionName": "BROWN_UNIVERSITY_MRF",
  "InstitutionalDepartmentName": "Department",
  "MRAcquisitionType": "2D",
  "MagneticFieldStrength": 3,
  "Manufacturer": "Siemens",
  "ManufacturersModelName": "Prisma_fit",
  "Modality": "MR",
  "MultibandAccelerationFactor": 4,
  "PartialFourier": 1,
  "PatientPosition": "HFS",
  "PercentPhaseFOV": 100,
  "PhaseEncodingDirection": "j-",
  "PhaseEncodingSteps": 88,
  "PhaseResolution": 1,
  "PixelBandwidth": 2185,
  "ProcedureStepDescription": "ASHENHAV_1222",
  "ProtocolName": "func-bold_task-RDMcolor_run-06",
  "PulseSequenceDetails": "%SiemensSeq%_ep2d_bold",
  "ReceiveCoilActiveElements": "HC1-7;NC1",
  "ReceiveCoilName": "HeadNeck_64",
  "ReconMatrixPE": 88,
  "RefLinesPE": 8,
  "RepetitionTime": 1.2,
  "SAR": 0.0441942,
  "ScanOptions": "FS",
  "ScanningSequence": "EP",
  "SequenceName": "_epfid2d1_88",
  "SequenceVariant": "SK",
  "SeriesDescription": "func-bold_task-RDMcolor_run-06",
  "SeriesNumber": 19,
  "ShimSetting": [1740, -9175, 4427, 559, -64, -420, 144, 77],
  "SliceThickness": 2.4,
  "SliceTiming": [0.5525, 0, 0.63, 0.08, 0.71, 0.1575, 0.7875, 0.2375, 0.8675, 0.315, 0.945, 0.395, 1.0225, 0.4725, 1.1025, 0.5525, 0, 0.63, 0.08, 0.71, 0.1575, 0.7875, 0.2375, 0.8675, 0.315, 0.945, 0.395, 1.0225, 0.4725, 1.1025, 0.5525, 0, 0.63, 0.08, 0.71, 0.1575, 0.7875, 0.2375, 0.8675, 0.315, 0.945, 0.395, 1.0225, 0.4725, 1.1025, 0.5525, 0, 0.63, 0.08, 0.71, 0.1575, 0.7875, 0.2375, 0.8675, 0.315, 0.945, 0.395, 1.0225, 0.4725, 1.1025],
  "SoftwareVersions": "syngo_MR_E11",
  "SpacingBetweenSlices": 2.4,
  "StationName": "AWP67050",
  "TaskName": "RDMcolor",
  "TotalReadoutTime": 0.0504612,
  "TxRefAmp": 214.526,
  "dcmmeta_affine": [
    [-2.3913745880126953, 0.17141595482826233, -0.03228998929262161, 99.19923400878906],
    [0.16531838476657867, 2.368835210800171, 0.33255845308303833, -104.7194595336914],
    [-0.055623117834329605, -0.32913902401924133, 2.3766283988952637, -44.41888427734375],
    [0.0, 0.0, 0.0, 1.0]
],
  "dcmmeta_reorient_transform": [
    [0.0, -1.0, 0.0, 87.0],
    [1.0, 0.0, 0.0, 0.0],
    [0.0, 0.0, 1.0, 0.0],
    [0.0, 0.0, 0.0, 1.0]
],
  "dcmmeta_shape": [88, 88, 60, 392],
  "dcmmeta_slice_dim": 2,
  "dcmmeta_version": 0.6,
  "global": {
    "const": {
      "AcquisitionMatrix": [88, 0, 0, 88],
      "AngioFlag": "N",
      "BitsAllocated": 16,
      "BitsStored": 12,
      "BodyPartExamined": "BRAIN",
      "Columns": 704,
      "DeidentificationMethodCodeSequence": [
        {
          "CodeMeaning": "XNAT DicomEdit 6 Script",
          "CodeValue": "3",
          "CodingSchemeDesignator": "XNAT",
          "CodingSchemeVersion": "1.0"}
],
      "EchoNumbers": 1,
      "EchoTime": 33.0,
      "EchoTrainLength": 88,
      "FlipAngle": 62.0,
      "HighBit": 11,
      "ImageOrientationPatient": [0.9973505001402, -0.0689479530706, -0.0231982679843, 0.07149101622701, 0.98795021970464, 0.13727125694907],
      "ImagePositionPatient": [-903.45187572421, -780.05236477938, -157.2968812959],
      "ImageType": [
        "ORIGINAL",
        "PRIMARY",
        "M",
        "ND",
        "MOSAIC"
],
      "ImagedNucleus": "1H",
      "ImagingFrequency": 123.250641,
      "InPlanePhaseEncodingDirection": "COL",
      "MRAcquisitionType": "2D",
      "MagneticFieldStrength": 3.0,
      "Manufacturer": "SIEMENS",
      "ManufacturerModelName": "Prisma_fit",
      "Modality": "MR",
      "NumberOfAverages": 1.0,
      "NumberOfPhaseEncodingSteps": 88,
      "PercentPhaseFieldOfView": 100.0,
      "PercentSampling": 100.0,
      "PerformedProcedureStepStartTime": "091550.092000",
      "PhotometricInterpretation": "MONOCHROME2",
      "PixelBandwidth": 2185.0,
      "PixelRepresentation": 0,
      "PixelSpacing": [2.3977272510529, 2.3977272510529],
      "ProtocolName": "func-bold_task-RDMcolor_run-06",
      "RepetitionTime": 1200.0,
      "Rows": 704,
      "SAR": 0.04419417247299,
      "SamplesPerPixel": 1,
      "ScanOptions": "FS",
      "ScanningSequence": "EP",
      "SequenceName": "*epfid2d1_88",
      "SequenceVariant": "SK",
      "SeriesDescription": "func-bold_task-RDMcolor_run-06",
      "SeriesNumber": 19,
      "SeriesTime": "103312.170000",
      "SliceLocation": -59.831526165609,
      "SliceThickness": 2.4000000953674,
      "SmallestImagePixelValue": 0,
      "SoftwareVersions": "syngo MR E11",
      "SpacingBetweenSlices": 2.3999999628816,
      "SpecificCharacterSet": "ISO_IR 100",
      "StudyID": "1",
      "StudyTime": "091549.905000",
      "TransmitCoilName": "Body",
      "VariableFlipAngleFlag": "N",
      "WindowCenterWidthExplanation": "Algo1",
      "dBdt": 0.0},
    "slices": {}
  },
  "time": {
    "samples": {
      "AcquisitionNumber": [1, 2, 3, 4, 5, 6, 7, 8, 9, 10, 11, 12, 13, 14, 15, 16, 17, 18, 19, 20, 21, 22, 23, 24, 25, 26, 27, 28, 29, 30, 31, 32, 33, 34, 35, 36, 37, 38, 39, 40, 41, 42, 43, 44, 45, 46, 47, 48, 49, 50, 51, 52, 53, 54, 55, 56, 57, 58, 59, 60, 61, 62, 63, 64, 65, 66, 67, 68, 69, 70, 71, 72, 73, 74, 75, 76, 77, 78, 79, 80, 81, 82, 83, 84, 85, 86, 87, 88, 89, 90, 91, 92, 93, 94, 95, 96, 97, 98, 99, 100, 101, 102, 103, 104, 105, 106, 107, 108, 109, 110, 111, 112, 113, 114, 115, 116, 117, 118, 119, 120, 121, 122, 123, 124, 125, 126, 127, 128, 129, 130, 131, 132, 133, 134, 135, 136, 137, 138, 139, 140, 141, 142, 143, 144, 145, 146, 147, 148, 149, 150, 151, 152, 153, 154, 155, 156, 157, 158, 159, 160, 161, 162, 163, 164, 165, 166, 167, 168, 169, 170, 171, 172, 173, 174, 175, 176, 177, 178, 179, 180, 181, 182, 183, 184, 185, 186, 187, 188, 189, 190, 191, 192, 193, 194, 195, 196, 197, 198, 199, 200, 201, 202, 203, 204, 205, 206, 207, 208, 209, 210, 211, 212, 213, 214, 215, 216, 217, 218, 219, 220, 221, 222, 223, 224, 225, 226, 227, 228, 229, 230, 231, 232, 233, 234, 235, 236, 237, 238, 239, 240, 241, 242, 243, 244, 245, 246, 247, 248, 249, 250, 251, 252, 253, 254, 255, 256, 257, 258, 259, 260, 261, 262, 263, 264, 265, 266, 267, 268, 269, 270, 271, 272, 273, 274, 275, 276, 277, 278, 279, 280, 281, 282, 283, 284, 285, 286, 287, 288, 289, 290, 291, 292, 293, 294, 295, 296, 297, 298, 299, 300, 301, 302, 303, 304, 305, 306, 307, 308, 309, 310, 311, 312, 313, 314, 315, 316, 317, 318, 319, 320, 321, 322, 323, 324, 325, 326, 327, 328, 329, 330, 331, 332, 333, 334, 335, 336, 337, 338, 339, 340, 341, 342, 343, 344, 345, 346, 347, 348, 349, 350, 351, 352, 353, 354, 355, 356, 357, 358, 359, 360, 361, 362, 363, 364, 365, 366, 367, 368, 369, 370, 371, 372, 373, 374, 375, 376, 377, 378, 379, 380, 381, 382, 383, 384, 385, 386, 387, 388, 389, 390, 391, 392],
      "AcquisitionTime": ["103231.107500", "103232.307500", "103233.507500", "103234.707500", "103235.907500", "103237.107500", "103238.307500", "103239.507500", "103240.707500", "103241.907500", "103243.107500", "103244.307500", "103245.507500", "103246.707500", "103247.907500", "103249.107500", "103250.307500", "103251.507500", "103252.707500", "103253.907500", "103255.107500", "103256.307500", "103257.507500", "103258.707500", "103259.907500", "103301.107500", "103302.307500", "103303.507500", "103304.707500", "103305.907500", "103307.107500", "103308.307500", "103309.507500", "103310.707500", "103311.907500", "103313.107500", "103314.307500", "103315.507500", "103316.707500", "103317.907500", "103319.107500", "103320.307500", "103321.507500", "103322.707500", "103323.907500", "103325.107500", "103326.307500", "103327.507500", "103328.707500", "103329.907500", "103331.107500", "103332.307500", "103333.507500", "103334.707500", "103335.907500", "103337.107500", "103338.307500", "103339.507500", "103340.707500", "103341.907500", "103343.107500", "103344.307500", "103345.507500", "103346.707500", "103347.907500", "103349.107500", "103350.307500", "103351.507500", "103352.707500", "103353.907500", "103355.107500", "103356.307500", "103357.507500", "103358.707500", "103359.907500", "103401.107500", "103402.307500", "103403.507500", "103404.707500", "103405.907500", "103407.107500", "103408.307500", "103409.507500", "103410.707500", "103411.907500", "103413.107500", "103414.307500", "103415.507500", "103416.707500", "103417.907500", "103419.107500", "103420.307500", "103421.507500", "103422.707500", "103423.907500", "103425.107500", "103426.307500", "103427.507500", "103428.707500", "103429.907500", "103431.107500", "103432.307500", "103433.507500", "103434.707500", "103435.907500", "103437.107500", "103438.307500", "103439.507500", "103440.707500", "103441.907500", "103443.107500", "103444.307500", "103445.507500", "103446.707500", "103447.907500", "103449.107500", "103450.307500", "103451.507500", "103452.707500", "103453.907500", "103455.107500", "103456.307500", "103457.507500", "103458.707500", "103459.907500", "103501.107500", "103502.307500", "103503.507500", "103504.707500", "103505.907500", "103507.107500", "103508.307500", "103509.507500", "103510.707500", "103511.907500", "103513.107500", "103514.307500", "103515.507500", "103516.707500", "103517.907500", "103519.107500", "103520.307500", "103521.507500", "103522.707500", "103523.907500", "103525.107500", "103526.307500", "103527.507500", "103528.707500", "103529.907500", "103531.107500", "103532.307500", "103533.507500", "103534.707500", "103535.907500", "103537.107500", "103538.307500", "103539.507500", "103540.707500", "103541.907500", "103543.107500", "103544.307500", "103545.507500", "103546.707500", "103547.907500", "103549.107500", "103550.307500", "103551.507500", "103552.707500", "103553.907500", "103555.107500", "103556.307500", "103557.507500", "103558.707500", "103559.907500", "103601.107500", "103602.307500", "103603.507500", "103604.707500", "103605.907500", "103607.107500", "103608.307500", "103609.507500", "103610.707500", "103611.907500", "103613.107500", "103614.307500", "103615.507500", "103616.707500", "103617.907500", "103619.107500", "103620.307500", "103621.507500", "103622.707500", "103623.907500", "103625.107500", "103626.307500", "103627.507500", "103628.707500", "103629.907500", "103631.107500", "103632.307500", "103633.507500", "103634.707500", "103635.907500", "103637.107500", "103638.307500", "103639.507500", "103640.707500", "103641.907500", "103643.107500", "103644.307500", "103645.507500", "103646.707500", "103647.907500", "103649.107500", "103650.307500", "103651.507500", "103652.707500", "103653.907500", "103655.107500", "103656.307500", "103657.507500", "103658.707500", "103659.907500", "103701.107500", "103702.307500", "103703.507500", "103704.707500", "103705.907500", "103707.107500", "103708.307500", "103709.507500", "103710.707500", "103711.907500", "103713.107500", "103714.307500", "103715.507500", "103716.707500", "103717.907500", "103719.107500", "103720.307500", "103721.507500", "103722.707500", "103723.907500", "103725.107500", "103726.307500", "103727.507500", "103728.707500", "103729.907500", "103731.107500", "103732.307500", "103733.507500", "103734.707500", "103735.907500", "103737.107500", "103738.307500", "103739.507500", "103740.707500", "103741.907500", "103743.107500", "103744.307500", "103745.507500", "103746.707500", "103747.907500", "103749.107500", "103750.307500", "103751.507500", "103752.707500", "103753.907500", "103755.107500", "103756.307500", "103757.507500", "103758.707500", "103759.907500", "103801.107500", "103802.307500", "103803.507500", "103804.707500", "103805.907500", "103807.107500", "103808.307500", "103809.507500", "103810.707500", "103811.907500", "103813.107500", "103814.307500", "103815.507500", "103816.707500", "103817.907500", "103819.107500", "103820.307500", "103821.507500", "103822.707500", "103823.907500", "103825.107500", "103826.307500", "103827.507500", "103828.707500", "103829.907500", "103831.107500", "103832.307500", "103833.507500", "103834.707500", "103835.907500", "103837.107500", "103838.307500", "103839.507500", "103840.707500", "103841.907500", "103843.107500", "103844.307500", "103845.507500", "103846.707500", "103847.907500", "103849.107500", "103850.307500", "103851.507500", "103852.707500", "103853.907500", "103855.107500", "103856.307500", "103857.507500", "103858.707500", "103859.907500", "103901.107500", "103902.307500", "103903.507500", "103904.707500", "103905.907500", "103907.107500", "103908.307500", "103909.507500", "103910.707500", "103911.907500", "103913.107500", "103914.307500", "103915.507500", "103916.707500", "103917.907500", "103919.107500", "103920.307500", "103921.507500", "103922.707500", "103923.907500", "103925.107500", "103926.307500", "103927.507500", "103928.707500", "103929.907500", "103931.107500", "103932.307500", "103933.507500", "103934.707500", "103935.907500", "103937.107500", "103938.307500", "103939.507500", "103940.707500", "103941.907500", "103943.107500", "103944.307500", "103945.507500", "103946.707500", "103947.907500", "103949.107500", "103950.307500", "103951.507500", "103952.707500", "103953.907500", "103955.107500", "103956.307500", "103957.507500", "103958.707500", "103959.907500", "104001.107500", "104002.307500", "104003.507500", "104004.707500", "104005.907500", "104007.107500", "104008.307500", "104009.507500", "104010.707500", "104011.907500", "104013.107500", "104014.307500", "104015.507500", "104016.707500", "104017.907500", "104019.107500", "104020.307500"],
      "ContentTime": ["103312.173000", "103312.176000", "103312.179000", "103312.181000", "103312.184000", "103312.187000", "103312.189000", "103312.192000", "103312.194000", "103312.197000", "103312.200000", "103312.202000", "103312.205000", "103312.207000", "103312.222000", "103312.225000", "103312.227000", "103312.230000", "103312.233000", "103312.235000", "103312.247000", "103312.249000", "103312.252000", "103312.254000", "103312.257000", "103312.259000", "103312.282000", "103312.285000", "103312.288000", "103312.290000", "103312.293000", "103312.296000", "103312.298000", "103352.168000", "103352.171000", "103352.174000", "103352.177000", "103352.179000", "103352.186000", "103352.189000", "103352.192000", "103352.194000", "103352.197000", "103352.200000", "103352.202000", "103352.205000", "103352.207000", "103352.210000", "103352.212000", "103352.220000", "103352.223000", "103352.226000", "103352.228000", "103352.231000", "103352.233000", "103352.236000", "103352.239000", "103352.241000", "103352.244000", "103352.246000", "103352.249000", "103352.251000", "103352.254000", "103352.257000", "103352.259000", "103352.262000", "103352.264000", "103432.169000", "103432.172000", "103432.175000", "103432.177000", "103432.180000", "103432.182000", "103432.185000", "103432.188000", "103432.190000", "103432.193000", "103432.195000", "103432.198000", "103432.201000", "103432.203000", "103432.206000", "103432.209000", "103432.211000", "103432.214000", "103432.216000", "103432.219000", "103432.229000", "103432.231000", "103432.234000", "103432.237000", "103432.239000", "103432.242000", "103432.245000", "103432.247000", "103432.250000", "103432.252000", "103432.255000", "103432.258000", "103432.260000", "103512.169000", "103512.172000", "103512.174000", "103512.177000", "103512.180000", "103512.182000", "103512.185000", "103512.188000", "103512.190000", "103512.193000", "103512.195000", "103512.198000", "103512.201000", "103512.203000", "103512.206000", "103512.209000", "103512.211000", "103512.214000", "103512.216000", "103512.219000", "103512.222000", "103512.224000", "103512.227000", "103512.230000", "103512.232000", "103512.235000", "103512.237000", "103512.240000", "103512.242000", "103512.245000", "103512.247000", "103512.250000", "103512.253000", "103552.168000", "103552.171000", "103552.174000", "103552.176000", "103552.179000", "103552.182000", "103552.184000", "103552.187000", "103552.189000", "103552.192000", "103552.195000", "103552.197000", "103552.200000", "103552.202000", "103552.205000", "103552.208000", "103552.210000", "103552.213000", "103552.215000", "103552.218000", "103552.220000", "103552.223000", "103552.226000", "103552.228000", "103552.231000", "103552.233000", "103552.236000", "103552.239000", "103552.241000", "103552.244000", "103552.246000", "103552.249000", "103552.251000", "103552.254000", "103632.169000", "103632.171000", "103632.174000", "103632.177000", "103632.179000", "103632.182000", "103632.185000", "103632.187000", "103632.190000", "103632.192000", "103632.195000", "103632.198000", "103632.200000", "103632.203000", "103632.205000", "103632.208000", "103632.211000", "103632.213000", "103632.216000", "103632.219000", "103632.221000", "103632.224000", "103632.226000", "103632.229000", "103632.232000", "103632.234000", "103632.237000", "103632.239000", "103632.242000", "103632.245000", "103632.247000", "103632.250000", "103632.252000", "103712.169000", "103712.171000", "103712.174000", "103712.177000", "103712.179000", "103712.182000", "103712.184000", "103712.187000", "103712.190000", "103712.192000", "103712.195000", "103712.198000", "103712.200000", "103712.203000", "103712.206000", "103712.208000", "103712.211000", "103712.214000", "103712.216000", "103712.219000", "103712.222000", "103712.224000", "103712.243000", "103712.245000", "103712.248000", "103712.255000", "103712.258000", "103712.260000", "103712.263000", "103712.265000", "103712.268000", "103712.271000", "103712.273000", "103752.168000", "103752.171000", "103752.174000", "103752.177000", "103752.179000", "103752.182000", "103752.185000", "103752.188000", "103752.190000", "103752.193000", "103752.196000", "103752.198000", "103752.201000", "103752.203000", "103752.206000", "103752.208000", "103752.211000", "103752.214000", "103752.216000", "103752.219000", "103752.222000", "103752.224000", "103752.227000", "103752.229000", "103752.232000", "103752.235000", "103752.237000", "103752.240000", "103752.242000", "103752.245000", "103752.248000", "103752.250000", "103752.253000", "103832.169000", "103832.172000", "103832.174000", "103832.177000", "103832.180000", "103832.182000", "103832.185000", "103832.187000", "103832.190000", "103832.193000", "103832.195000", "103832.198000", "103832.200000", "103832.203000", "103832.206000", "103832.208000", "103832.211000", "103832.213000", "103832.216000", "103832.219000", "103832.221000", "103832.224000", "103832.226000", "103832.229000", "103832.232000", "103832.234000", "103832.237000", "103832.239000", "103832.242000", "103832.244000", "103832.247000", "103832.250000", "103832.252000", "103832.255000", "103912.169000", "103912.171000", "103912.174000", "103912.177000", "103912.179000", "103912.182000", "103912.185000", "103912.187000", "103912.190000", "103912.193000", "103912.195000", "103912.198000", "103912.200000", "103912.203000", "103912.206000", "103912.208000", "103912.211000", "103912.214000", "103912.216000", "103912.219000", "103912.222000", "103912.224000", "103912.227000", "103912.229000", "103912.232000", "103912.235000", "103912.237000", "103912.240000", "103912.243000", "103912.245000", "103912.248000", "103912.250000", "103912.253000", "103952.167000", "103952.170000", "103952.173000", "103952.176000", "103952.178000", "103952.181000", "103952.184000", "103952.186000", "103952.189000", "103952.191000", "103952.194000", "103952.197000", "103952.199000", "103952.202000", "103952.205000", "103952.207000", "103952.210000", "103952.212000", "103952.215000", "103952.218000", "103952.220000", "103952.223000", "103952.226000", "103952.228000", "103952.231000", "103952.233000", "103952.236000", "103952.238000", "103952.241000", "103952.244000", "103952.246000", "103952.249000", "103952.251000", "104022.220000", "104022.223000", "104022.225000", "104022.228000", "104022.231000", "104022.233000", "104022.236000", "104022.239000", "104022.241000", "104022.244000", "104022.247000", "104022.249000", "104022.252000", "104022.254000", "104022.257000", "104022.260000", "104022.263000", "104022.265000", "104022.268000", "104022.271000", "104022.275000", "104022.278000", "104022.281000", "104022.284000", "104022.287000", "104022.290000"],
      "InstanceCreationTime": ["103312.173000", "103312.176000", "103312.179000", "103312.181000", "103312.184000", "103312.187000", "103312.189000", "103312.192000", "103312.194000", "103312.197000", "103312.200000", "103312.202000", "103312.205000", "103312.207000", "103312.222000", "103312.225000", "103312.227000", "103312.230000", "103312.233000", "103312.235000", "103312.247000", "103312.249000", "103312.252000", "103312.254000", "103312.257000", "103312.259000", "103312.282000", "103312.285000", "103312.288000", "103312.290000", "103312.293000", "103312.296000", "103312.298000", "103352.168000", "103352.171000", "103352.174000", "103352.177000", "103352.179000", "103352.186000", "103352.189000", "103352.192000", "103352.194000", "103352.197000", "103352.200000", "103352.202000", "103352.205000", "103352.207000", "103352.210000", "103352.212000", "103352.220000", "103352.223000", "103352.226000", "103352.228000", "103352.231000", "103352.233000", "103352.236000", "103352.239000", "103352.241000", "103352.244000", "103352.246000", "103352.249000", "103352.251000", "103352.254000", "103352.257000", "103352.259000", "103352.262000", "103352.264000", "103432.169000", "103432.172000", "103432.175000", "103432.177000", "103432.180000", "103432.182000", "103432.185000", "103432.188000", "103432.190000", "103432.193000", "103432.195000", "103432.198000", "103432.201000", "103432.203000", "103432.206000", "103432.209000", "103432.211000", "103432.214000", "103432.216000", "103432.219000", "103432.229000", "103432.231000", "103432.234000", "103432.237000", "103432.239000", "103432.242000", "103432.245000", "103432.247000", "103432.250000", "103432.252000", "103432.255000", "103432.258000", "103432.260000", "103512.169000", "103512.172000", "103512.174000", "103512.177000", "103512.180000", "103512.182000", "103512.185000", "103512.188000", "103512.190000", "103512.193000", "103512.195000", "103512.198000", "103512.201000", "103512.203000", "103512.206000", "103512.209000", "103512.211000", "103512.214000", "103512.216000", "103512.219000", "103512.222000", "103512.224000", "103512.227000", "103512.230000", "103512.232000", "103512.235000", "103512.237000", "103512.240000", "103512.242000", "103512.245000", "103512.247000", "103512.250000", "103512.253000", "103552.168000", "103552.171000", "103552.174000", "103552.176000", "103552.179000", "103552.182000", "103552.184000", "103552.187000", "103552.189000", "103552.192000", "103552.195000", "103552.197000", "103552.200000", "103552.202000", "103552.205000", "103552.208000", "103552.210000", "103552.213000", "103552.215000", "103552.218000", "103552.220000", "103552.223000", "103552.226000", "103552.228000", "103552.231000", "103552.233000", "103552.236000", "103552.239000", "103552.241000", "103552.244000", "103552.246000", "103552.249000", "103552.251000", "103552.254000", "103632.169000", "103632.171000", "103632.174000", "103632.177000", "103632.179000", "103632.182000", "103632.185000", "103632.187000", "103632.190000", "103632.192000", "103632.195000", "103632.198000", "103632.200000", "103632.203000", "103632.205000", "103632.208000", "103632.211000", "103632.213000", "103632.216000", "103632.219000", "103632.221000", "103632.224000", "103632.226000", "103632.229000", "103632.232000", "103632.234000", "103632.237000", "103632.239000", "103632.242000", "103632.245000", "103632.247000", "103632.250000", "103632.252000", "103712.169000", "103712.171000", "103712.174000", "103712.177000", "103712.179000", "103712.182000", "103712.184000", "103712.187000", "103712.190000", "103712.192000", "103712.195000", "103712.198000", "103712.200000", "103712.203000", "103712.206000", "103712.208000", "103712.211000", "103712.214000", "103712.216000", "103712.219000", "103712.222000", "103712.224000", "103712.243000", "103712.245000", "103712.248000", "103712.255000", "103712.258000", "103712.260000", "103712.263000", "103712.265000", "103712.268000", "103712.271000", "103712.273000", "103752.168000", "103752.171000", "103752.174000", "103752.177000", "103752.179000", "103752.182000", "103752.185000", "103752.188000", "103752.190000", "103752.193000", "103752.196000", "103752.198000", "103752.201000", "103752.203000", "103752.206000", "103752.208000", "103752.211000", "103752.214000", "103752.216000", "103752.219000", "103752.222000", "103752.224000", "103752.227000", "103752.229000", "103752.232000", "103752.235000", "103752.237000", "103752.240000", "103752.242000", "103752.245000", "103752.248000", "103752.250000", "103752.253000", "103832.169000", "103832.172000", "103832.174000", "103832.177000", "103832.180000", "103832.182000", "103832.185000", "103832.187000", "103832.190000", "103832.193000", "103832.195000", "103832.198000", "103832.200000", "103832.203000", "103832.206000", "103832.208000", "103832.211000", "103832.213000", "103832.216000", "103832.219000", "103832.221000", "103832.224000", "103832.226000", "103832.229000", "103832.232000", "103832.234000", "103832.237000", "103832.239000", "103832.242000", "103832.244000", "103832.247000", "103832.250000", "103832.252000", "103832.255000", "103912.169000", "103912.171000", "103912.174000", "103912.177000", "103912.179000", "103912.182000", "103912.185000", "103912.187000", "103912.190000", "103912.193000", "103912.195000", "103912.198000", "103912.200000", "103912.203000", "103912.206000", "103912.208000", "103912.211000", "103912.214000", "103912.216000", "103912.219000", "103912.222000", "103912.224000", "103912.227000", "103912.229000", "103912.232000", "103912.235000", "103912.237000", "103912.240000", "103912.243000", "103912.245000", "103912.248000", "103912.250000", "103912.253000", "103952.167000", "103952.170000", "103952.173000", "103952.176000", "103952.178000", "103952.181000", "103952.184000", "103952.186000", "103952.189000", "103952.191000", "103952.194000", "103952.197000", "103952.199000", "103952.202000", "103952.205000", "103952.207000", "103952.210000", "103952.212000", "103952.215000", "103952.218000", "103952.220000", "103952.223000", "103952.226000", "103952.228000", "103952.231000", "103952.233000", "103952.236000", "103952.238000", "103952.241000", "103952.244000", "103952.246000", "103952.249000", "103952.251000", "104022.220000", "104022.223000", "104022.225000", "104022.228000", "104022.231000", "104022.233000", "104022.236000", "104022.239000", "104022.241000", "104022.244000", "104022.247000", "104022.249000", "104022.252000", "104022.254000", "104022.257000", "104022.260000", "104022.263000", "104022.265000", "104022.268000", "104022.271000", "104022.275000", "104022.278000", "104022.281000", "104022.284000", "104022.287000", "104022.290000"],
      "InstanceNumber": [1, 2, 3, 4, 5, 6, 7, 8, 9, 10, 11, 12, 13, 14, 15, 16, 17, 18, 19, 20, 21, 22, 23, 24, 25, 26, 27, 28, 29, 30, 31, 32, 33, 34, 35, 36, 37, 38, 39, 40, 41, 42, 43, 44, 45, 46, 47, 48, 49, 50, 51, 52, 53, 54, 55, 56, 57, 58, 59, 60, 61, 62, 63, 64, 65, 66, 67, 68, 69, 70, 71, 72, 73, 74, 75, 76, 77, 78, 79, 80, 81, 82, 83, 84, 85, 86, 87, 88, 89, 90, 91, 92, 93, 94, 95, 96, 97, 98, 99, 100, 101, 102, 103, 104, 105, 106, 107, 108, 109, 110, 111, 112, 113, 114, 115, 116, 117, 118, 119, 120, 121, 122, 123, 124, 125, 126, 127, 128, 129, 130, 131, 132, 133, 134, 135, 136, 137, 138, 139, 140, 141, 142, 143, 144, 145, 146, 147, 148, 149, 150, 151, 152, 153, 154, 155, 156, 157, 158, 159, 160, 161, 162, 163, 164, 165, 166, 167, 168, 169, 170, 171, 172, 173, 174, 175, 176, 177, 178, 179, 180, 181, 182, 183, 184, 185, 186, 187, 188, 189, 190, 191, 192, 193, 194, 195, 196, 197, 198, 199, 200, 201, 202, 203, 204, 205, 206, 207, 208, 209, 210, 211, 212, 213, 214, 215, 216, 217, 218, 219, 220, 221, 222, 223, 224, 225, 226, 227, 228, 229, 230, 231, 232, 233, 234, 235, 236, 237, 238, 239, 240, 241, 242, 243, 244, 245, 246, 247, 248, 249, 250, 251, 252, 253, 254, 255, 256, 257, 258, 259, 260, 261, 262, 263, 264, 265, 266, 267, 268, 269, 270, 271, 272, 273, 274, 275, 276, 277, 278, 279, 280, 281, 282, 283, 284, 285, 286, 287, 288, 289, 290, 291, 292, 293, 294, 295, 296, 297, 298, 299, 300, 301, 302, 303, 304, 305, 306, 307, 308, 309, 310, 311, 312, 313, 314, 315, 316, 317, 318, 319, 320, 321, 322, 323, 324, 325, 326, 327, 328, 329, 330, 331, 332, 333, 334, 335, 336, 337, 338, 339, 340, 341, 342, 343, 344, 345, 346, 347, 348, 349, 350, 351, 352, 353, 354, 355, 356, 357, 358, 359, 360, 361, 362, 363, 364, 365, 366, 367, 368, 369, 370, 371, 372, 373, 374, 375, 376, 377, 378, 379, 380, 381, 382, 383, 384, 385, 386, 387, 388, 389, 390, 391, 392],
