{
  "AcquisitionMatrixPE": 88,
  "AcquisitionNumber": 1,
  "AcquisitionTime": "09:33:13.122500",
  "BandwidthPerPixelPhaseEncode": 19.592,
  "BaseResolution": 88,
  "BodyPartExamined": "BRAIN",
  "ConsistencyInfo": "N4_VE11C_LATEST_20160120",
  "ConversionSoftware": "dcm2niix",
  "ConversionSoftwareVersion": "v1.0.20190902",
  "DerivedVendorReportedEchoSpacing": 0.000580014,
  "DeviceSerialNumber": "67050",
  "DwellTime": 2.6e-06,
  "EchoTime": 0.033,
  "EchoTrainLength": 88,
  "EffectiveEchoSpacing": 0.000580014,
  "FlipAngle": 62,
  "ImageOrientationPatientDICOM": [0.997351, -0.068948, -0.0231983, 0.071491, 0.98795, 0.137271],
  "ImageType": [
    "ORIGINAL",
    "PRIMARY",
    "M",
    "ND",
    "MOSAIC"
],
  "ImagingFrequency": 123.251,
  "InPlanePhaseEncodingDirectionDICOM": "COL",
  "InstitutionAddress": "Olive_Street_60_Providence_RI_US_02912",
  "InstitutionName": "BROWN_UNIVERSITY_MRF",
  "InstitutionalDepartmentName": "Department",
  "MRAcquisitionType": "2D",
  "MagneticFieldStrength": 3,
  "Manufacturer": "Siemens",
  "ManufacturersModelName": "Prisma_fit",
  "Modality": "MR",
  "MultibandAccelerationFactor": 4,
  "PartialFourier": 1,
  "PatientPosition": "HFS",
  "PercentPhaseFOV": 100,
  "PhaseEncodingDirection": "j-",
  "PhaseEncodingSteps": 88,
  "PhaseResolution": 1,
  "PixelBandwidth": 2185,
  "ProcedureStepDescription": "ASHENHAV_1222",
  "ProtocolName": "func-bold_task-RDMcolor_run-01",
  "PulseSequenceDetails": "%SiemensSeq%_ep2d_bold",
  "ReceiveCoilActiveElements": "HC1-7;NC1",
  "ReceiveCoilName": "HeadNeck_64",
  "ReconMatrixPE": 88,
  "RefLinesPE": 8,
  "RepetitionTime": 1.2,
  "SAR": 0.0441942,
  "ScanOptions": "FS",
  "ScanningSequence": "EP",
  "SequenceName": "_epfid2d1_88",
  "SequenceVariant": "SK",
  "SeriesDescription": "func-bold_task-RDMcolor_run-01",
  "SeriesNumber": 9,
  "ShimSetting": [1740, -9175, 4427, 559, -64, -420, 144, 77],
  "SliceThickness": 2.4,
  "SliceTiming": [0.55, 0, 0.63, 0.08, 0.7075, 0.1575, 0.7875, 0.2375, 0.865, 0.315, 0.945, 0.3925, 1.0225, 0.4725, 1.1025, 0.55, 0, 0.63, 0.08, 0.7075, 0.1575, 0.7875, 0.2375, 0.865, 0.315, 0.945, 0.3925, 1.0225, 0.4725, 1.1025, 0.55, 0, 0.63, 0.08, 0.7075, 0.1575, 0.7875, 0.2375, 0.865, 0.315, 0.945, 0.3925, 1.0225, 0.4725, 1.1025, 0.55, 0, 0.63, 0.08, 0.7075, 0.1575, 0.7875, 0.2375, 0.865, 0.315, 0.945, 0.3925, 1.0225, 0.4725, 1.1025],
  "SoftwareVersions": "syngo_MR_E11",
  "SpacingBetweenSlices": 2.4,
  "StationName": "AWP67050",
  "TaskName": "RDMcolor",
  "TotalReadoutTime": 0.0504612,
  "TxRefAmp": 214.526,
  "dcmmeta_affine": [
    [-2.3913745880126953, 0.17141595482826233, -0.03228998929262161, 99.19923400878906],
    [0.16531838476657867, 2.368835210800171, 0.33255845308303833, -104.7194595336914],
    [-0.055623117834329605, -0.32913902401924133, 2.3766283988952637, -44.41888427734375],
    [0.0, 0.0, 0.0, 1.0]
],
  "dcmmeta_reorient_transform": [
    [0.0, -1.0, 0.0, 87.0],
    [1.0, 0.0, 0.0, 0.0],
    [0.0, 0.0, 1.0, 0.0],
    [0.0, 0.0, 0.0, 1.0]
],
  "dcmmeta_shape": [88, 88, 60, 392],
  "dcmmeta_slice_dim": 2,
  "dcmmeta_version": 0.6,
  "global": {
    "const": {
      "AcquisitionMatrix": [88, 0, 0, 88],
      "AngioFlag": "N",
      "BitsAllocated": 16,
      "BitsStored": 12,
      "BodyPartExamined": "BRAIN",
      "Columns": 704,
      "DeidentificationMethodCodeSequence": [
        {
          "CodeMeaning": "XNAT DicomEdit 6 Script",
          "CodeValue": "3",
          "CodingSchemeDesignator": "XNAT",
          "CodingSchemeVersion": "1.0"}
],
      "EchoNumbers": 1,
      "EchoTime": 33.0,
      "EchoTrainLength": 88,
      "FlipAngle": 62.0,
      "HighBit": 11,
      "ImageOrientationPatient": [0.9973505001402, -0.0689479530706, -0.0231982679843, 0.07149101622701, 0.98795021970464, 0.13727125694907],
      "ImagePositionPatient": [-903.45187572421, -780.05236477938, -157.2968812959],
      "ImageType": [
        "ORIGINAL",
        "PRIMARY",
        "M",
        "ND",
        "MOSAIC"
],
      "ImagedNucleus": "1H",
      "ImagingFrequency": 123.250619,
      "InPlanePhaseEncodingDirection": "COL",
      "MRAcquisitionType": "2D",
      "MagneticFieldStrength": 3.0,
      "Manufacturer": "SIEMENS",
      "ManufacturerModelName": "Prisma_fit",
      "Modality": "MR",
      "NumberOfAverages": 1.0,
      "NumberOfPhaseEncodingSteps": 88,
      "PercentPhaseFieldOfView": 100.0,
      "PercentSampling": 100.0,
      "PerformedProcedureStepStartTime": "091550.092000",
      "PhotometricInterpretation": "MONOCHROME2",
      "PixelBandwidth": 2185.0,
      "PixelRepresentation": 0,
      "PixelSpacing": [2.3977272510529, 2.3977272510529],
      "ProtocolName": "func-bold_task-RDMcolor_run-01",
      "RepetitionTime": 1200.0,
      "Rows": 704,
      "SAR": 0.04419417247299,
      "SamplesPerPixel": 1,
      "ScanOptions": "FS",
      "ScanningSequence": "EP",
      "SequenceName": "*epfid2d1_88",
      "SequenceVariant": "SK",
      "SeriesDescription": "func-bold_task-RDMcolor_run-01",
      "SeriesNumber": 9,
      "SeriesTime": "093344.033000",
      "SliceLocation": -59.831526165609,
      "SliceThickness": 2.4000000953674,
      "SmallestImagePixelValue": 0,
      "SoftwareVersions": "syngo MR E11",
      "SpacingBetweenSlices": 2.3999999628816,
      "SpecificCharacterSet": "ISO_IR 100",
      "StudyID": "1",
      "StudyTime": "091549.905000",
      "TransmitCoilName": "Body",
      "VariableFlipAngleFlag": "N",
      "WindowCenterWidthExplanation": "Algo1",
      "dBdt": 0.0},
    "slices": {}
  },
  "time": {
    "samples": {
      "AcquisitionNumber": [1, 2, 3, 4, 5, 6, 7, 8, 9, 10, 11, 12, 13, 14, 15, 16, 17, 18, 19, 20, 21, 22, 23, 24, 25, 26, 27, 28, 29, 30, 31, 32, 33, 34, 35, 36, 37, 38, 39, 40, 41, 42, 43, 44, 45, 46, 47, 48, 49, 50, 51, 52, 53, 54, 55, 56, 57, 58, 59, 60, 61, 62, 63, 64, 65, 66, 67, 68, 69, 70, 71, 72, 73, 74, 75, 76, 77, 78, 79, 80, 81, 82, 83, 84, 85, 86, 87, 88, 89, 90, 91, 92, 93, 94, 95, 96, 97, 98, 99, 100, 101, 102, 103, 104, 105, 106, 107, 108, 109, 110, 111, 112, 113, 114, 115, 116, 117, 118, 119, 120, 121, 122, 123, 124, 125, 126, 127, 128, 129, 130, 131, 132, 133, 134, 135, 136, 137, 138, 139, 140, 141, 142, 143, 144, 145, 146, 147, 148, 149, 150, 151, 152, 153, 154, 155, 156, 157, 158, 159, 160, 161, 162, 163, 164, 165, 166, 167, 168, 169, 170, 171, 172, 173, 174, 175, 176, 177, 178, 179, 180, 181, 182, 183, 184, 185, 186, 187, 188, 189, 190, 191, 192, 193, 194, 195, 196, 197, 198, 199, 200, 201, 202, 203, 204, 205, 206, 207, 208, 209, 210, 211, 212, 213, 214, 215, 216, 217, 218, 219, 220, 221, 222, 223, 224, 225, 226, 227, 228, 229, 230, 231, 232, 233, 234, 235, 236, 237, 238, 239, 240, 241, 242, 243, 244, 245, 246, 247, 248, 249, 250, 251, 252, 253, 254, 255, 256, 257, 258, 259, 260, 261, 262, 263, 264, 265, 266, 267, 268, 269, 270, 271, 272, 273, 274, 275, 276, 277, 278, 279, 280, 281, 282, 283, 284, 285, 286, 287, 288, 289, 290, 291, 292, 293, 294, 295, 296, 297, 298, 299, 300, 301, 302, 303, 304, 305, 306, 307, 308, 309, 310, 311, 312, 313, 314, 315, 316, 317, 318, 319, 320, 321, 322, 323, 324, 325, 326, 327, 328, 329, 330, 331, 332, 333, 334, 335, 336, 337, 338, 339, 340, 341, 342, 343, 344, 345, 346, 347, 348, 349, 350, 351, 352, 353, 354, 355, 356, 357, 358, 359, 360, 361, 362, 363, 364, 365, 366, 367, 368, 369, 370, 371, 372, 373, 374, 375, 376, 377, 378, 379, 380, 381, 382, 383, 384, 385, 386, 387, 388, 389, 390, 391, 392],
      "AcquisitionTime": ["093313.122500", "093314.322500", "093315.522500", "093316.722500", "093317.922500", "093319.122500", "093320.322500", "093321.522500", "093322.722500", "093323.922500", "093325.122500", "093326.322500", "093327.522500", "093328.722500", "093329.922500", "093331.122500", "093332.322500", "093333.522500", "093334.722500", "093335.922500", "093337.122500", "093338.322500", "093339.522500", "093340.722500", "093341.922500", "093343.122500", "093344.322500", "093345.522500", "093346.722500", "093347.922500", "093349.122500", "093350.322500", "093351.522500", "093352.722500", "093353.922500", "093355.122500", "093356.322500", "093357.522500", "093358.722500", "093359.922500", "093401.122500", "093402.322500", "093403.522500", "093404.722500", "093405.922500", "093407.122500", "093408.322500", "093409.522500", "093410.722500", "093411.922500", "093413.122500", "093414.322500", "093415.522500", "093416.722500", "093417.922500", "093419.122500", "093420.322500", "093421.522500", "093422.722500", "093423.922500", "093425.122500", "093426.322500", "093427.522500", "093428.722500", "093429.922500", "093431.122500", "093432.322500", "093433.522500", "093434.722500", "093435.922500", "093437.122500", "093438.322500", "093439.522500", "093440.722500", "093441.922500", "093443.122500", "093444.322500", "093445.522500", "093446.722500", "093447.922500", "093449.122500", "093450.322500", "093451.522500", "093452.722500", "093453.922500", "093455.122500", "093456.322500", "093457.522500", "093458.722500", "093459.922500", "093501.122500", "093502.322500", "093503.522500", "093504.722500", "093505.922500", "093507.122500", "093508.322500", "093509.522500", "093510.722500", "093511.922500", "093513.122500", "093514.322500", "093515.522500", "093516.722500", "093517.922500", "093519.122500", "093520.322500", "093521.522500", "093522.722500", "093523.922500", "093525.122500", "093526.322500", "093527.522500", "093528.722500", "093529.922500", "093531.122500", "093532.322500", "093533.522500", "093534.722500", "093535.922500", "093537.122500", "093538.322500", "093539.522500", "093540.722500", "093541.922500", "093543.122500", "093544.322500", "093545.522500", "093546.722500", "093547.922500", "093549.122500", "093550.322500", "093551.522500", "093552.722500", "093553.922500", "093555.122500", "093556.322500", "093557.522500", "093558.722500", "093559.922500", "093601.122500", "093602.322500", "093603.522500", "093604.722500", "093605.922500", "093607.122500", "093608.322500", "093609.522500", "093610.722500", "093611.922500", "093613.122500", "093614.322500", "093615.522500", "093616.722500", "093617.922500", "093619.122500", "093620.322500", "093621.522500", "093622.722500", "093623.922500", "093625.122500", "093626.322500", "093627.522500", "093628.722500", "093629.922500", "093631.122500", "093632.322500", "093633.522500", "093634.722500", "093635.922500", "093637.122500", "093638.322500", "093639.522500", "093640.722500", "093641.922500", "093643.122500", "093644.322500", "093645.522500", "093646.722500", "093647.922500", "093649.122500", "093650.322500", "093651.522500", "093652.722500", "093653.922500", "093655.122500", "093656.322500", "093657.522500", "093658.722500", "093659.922500", "093701.122500", "093702.322500", "093703.522500", "093704.722500", "093705.922500", "093707.122500", "093708.322500", "093709.522500", "093710.722500", "093711.922500", "093713.122500", "093714.322500", "093715.522500", "093716.722500", "093717.922500", "093719.122500", "093720.322500", "093721.522500", "093722.722500", "093723.922500", "093725.122500", "093726.322500", "093727.522500", "093728.722500", "093729.922500", "093731.122500", "093732.322500", "093733.522500", "093734.722500", "093735.922500", "093737.122500", "093738.322500", "093739.522500", "093740.722500", "093741.922500", "093743.122500", "093744.322500", "093745.522500", "093746.722500", "093747.922500", "093749.122500", "093750.322500", "093751.522500", "093752.722500", "093753.922500", "093755.122500", "093756.322500", "093757.522500", "093758.722500", "093759.922500", "093801.122500", "093802.322500", "093803.522500", "093804.722500", "093805.922500", "093807.122500", "093808.322500", "093809.522500", "093810.722500", "093811.922500", "093813.122500", "093814.322500", "093815.522500", "093816.722500", "093817.922500", "093819.122500", "093820.322500", "093821.522500", "093822.722500", "093823.922500", "093825.122500", "093826.322500", "093827.522500", "093828.722500", "093829.922500", "093831.122500", "093832.322500", "093833.522500", "093834.722500", "093835.922500", "093837.122500", "093838.322500", "093839.522500", "093840.722500", "093841.922500", "093843.122500", "093844.322500", "093845.522500", "093846.722500", "093847.922500", "093849.122500", "093850.322500", "093851.522500", "093852.722500", "093853.922500", "093855.122500", "093856.322500", "093857.522500", "093858.722500", "093859.922500", "093901.122500", "093902.322500", "093903.522500", "093904.722500", "093905.922500", "093907.122500", "093908.322500", "093909.522500", "093910.722500", "093911.922500", "093913.122500", "093914.322500", "093915.522500", "093916.722500", "093917.922500", "093919.122500", "093920.322500", "093921.522500", "093922.722500", "093923.922500", "093925.122500", "093926.322500", "093927.522500", "093928.722500", "093929.922500", "093931.122500", "093932.322500", "093933.522500", "093934.722500", "093935.922500", "093937.122500", "093938.322500", "093939.522500", "093940.722500", "093941.922500", "093943.122500", "093944.322500", "093945.522500", "093946.722500", "093947.922500", "093949.122500", "093950.322500", "093951.522500", "093952.722500", "093953.922500", "093955.122500", "093956.322500", "093957.522500", "093958.722500", "093959.922500", "094001.122500", "094002.322500", "094003.522500", "094004.722500", "094005.922500", "094007.122500", "094008.322500", "094009.522500", "094010.722500", "094011.922500", "094013.122500", "094014.322500", "094015.522500", "094016.722500", "094017.922500", "094019.122500", "094020.322500", "094021.522500", "094022.722500", "094023.922500", "094025.122500", "094026.322500", "094027.522500", "094028.722500", "094029.922500", "094031.122500", "094032.322500", "094033.522500", "094034.722500", "094035.922500", "094037.122500", "094038.322500", "094039.522500", "094040.722500", "094041.922500", "094043.122500", "094044.322500", "094045.522500", "094046.722500", "094047.922500", "094049.122500", "094050.322500", "094051.522500", "094052.722500", "094053.922500", "094055.122500", "094056.322500", "094057.522500", "094058.722500", "094059.922500", "094101.122500", "094102.322500"],
      "ContentTime": ["093344.037000", "093344.040000", "093344.055000", "093344.058000", "093344.060000", "093344.063000", "093344.066000", "093344.068000", "093344.071000", "093344.073000", "093344.076000", "093344.078000", "093344.081000", "093344.084000", "093344.086000", "093344.089000", "093344.095000", "093344.098000", "093344.100000", "093344.103000", "093344.105000", "093344.108000", "093344.111000", "093344.113000", "093344.116000", "093424.034000", "093424.036000", "093424.039000", "093424.042000", "093424.044000", "093424.047000", "093424.049000", "093424.052000", "093424.054000", "093424.057000", "093424.060000", "093424.062000", "093424.065000", "093424.069000", "093424.071000", "093424.074000", "093424.077000", "093424.079000", "093424.082000", "093424.084000", "093424.087000", "093424.089000", "093424.092000", "093424.101000", "093424.104000", "093424.106000", "093424.109000", "093424.112000", "093424.114000", "093424.117000", "093424.119000", "093424.122000", "093424.125000", "093504.033000", "093504.036000", "093504.039000", "093504.041000", "093504.044000", "093504.046000", "093504.049000", "093504.052000", "093504.054000", "093504.057000", "093504.059000", "093504.062000", "093504.064000", "093504.067000", "093504.069000", "093504.072000", "093504.075000", "093504.077000", "093504.080000", "093504.082000", "093504.100000", "093504.102000", "093504.105000", "093504.115000", "093504.117000", "093504.120000", "093504.126000", "093504.129000", "093504.131000", "093504.134000", "093504.136000", "093504.139000", "093504.142000", "093544.033000", "093544.036000", "093544.039000", "093544.041000", "093544.044000", "093544.046000", "093544.049000", "093544.051000", "093544.054000", "093544.056000", "093544.059000", "093544.061000", "093544.064000", "093544.066000", "093544.069000", "093544.071000", "093544.074000", "093544.076000", "093544.079000", "093544.082000", "093544.084000", "093544.087000", "093544.089000", "093544.092000", "093544.094000", "093544.097000", "093544.099000", "093544.102000", "093544.104000", "093544.107000", "093544.110000", "093544.112000", "093544.115000", "093544.117000", "093624.032000", "093624.035000", "093624.038000", "093624.040000", "093624.043000", "093624.045000", "093624.048000", "093624.051000", "093624.053000", "093624.056000", "093624.058000", "093624.061000", "093624.063000", "093624.067000", "093624.070000", "093624.072000", "093624.075000", "093624.078000", "093624.080000", "093624.083000", "093624.085000", "093624.088000", "093624.090000", "093624.093000", "093624.095000", "093624.098000", "093624.100000", "093624.103000", "093624.106000", "093624.108000", "093624.111000", "093624.113000", "093624.116000", "093704.033000", "093704.036000", "093704.039000", "093704.041000", "093704.044000", "093704.047000", "093704.050000", "093704.053000", "093704.056000", "093704.064000", "093704.067000", "093704.069000", "093704.072000", "093704.075000", "093704.077000", "093704.080000", "093704.082000", "093704.085000", "093704.088000", "093704.090000", "093704.093000", "093704.095000", "093704.098000", "093704.100000", "093704.103000", "093704.106000", "093704.108000", "093704.111000", "093704.113000", "093704.116000", "093704.128000", "093704.131000", "093704.133000", "093744.033000", "093744.036000", "093744.039000", "093744.041000", "093744.044000", "093744.047000", "093744.049000", "093744.052000", "093744.054000", "093744.057000", "093744.059000", "093744.062000", "093744.064000", "093744.067000", "093744.069000", "093744.072000", "093744.074000", "093744.077000", "093744.079000", "093744.082000", "093744.085000", "093744.087000", "093744.090000", "093744.092000", "093744.095000", "093744.097000", "093744.100000", "093744.102000", "093744.105000", "093744.115000", "093744.119000", "093744.121000", "093744.124000", "093744.126000", "093824.033000", "093824.035000", "093824.038000", "093824.040000", "093824.043000", "093824.045000", "093824.048000", "093824.050000", "093824.053000", "093824.055000", "093824.058000", "093824.060000", "093824.063000", "093824.066000", "093824.069000", "093824.072000", "093824.074000", "093824.077000", "093824.079000", "093824.082000", "093824.084000", "093824.087000", "093824.089000", "093824.092000", "093824.094000", "093824.097000", "093824.099000", "093824.102000", "093824.104000", "093824.107000", "093824.109000", "093824.112000", "093824.114000", "093904.034000", "093904.037000", "093904.039000", "093904.043000", "093904.066000", "093904.069000", "093904.071000", "093904.074000", "093904.077000", "093904.079000", "093904.082000", "093904.084000", "093904.087000", "093904.089000", "093904.092000", "093904.094000", "093904.097000", "093904.099000", "093904.102000", "093904.104000", "093904.107000", "093904.110000", "093904.112000", "093904.115000", "093904.117000", "093904.120000", "093904.122000", "093904.125000", "093904.127000", "093904.130000", "093904.132000", "093904.135000", "093904.137000", "093924.034000", "093924.036000", "093924.039000", "093924.042000", "093924.044000", "093924.047000", "093924.049000", "093924.052000", "093924.054000", "093924.057000", "093924.059000", "093924.062000", "093924.070000", "093924.073000", "093924.076000", "093924.078000", "093924.081000", "094004.034000", "094004.036000", "094004.039000", "094004.041000", "094004.044000", "094004.046000", "094004.049000", "094004.051000", "094004.054000", "094004.056000", "094004.059000", "094004.062000", "094004.065000", "094004.068000", "094004.071000", "094004.074000", "094004.076000", "094004.079000", "094004.081000", "094004.084000", "094004.087000", "094004.089000", "094004.092000", "094004.094000", "094004.097000", "094004.099000", "094004.102000", "094004.104000", "094004.107000", "094004.109000", "094004.112000", "094004.114000", "094004.117000", "094044.032000", "094044.035000", "094044.038000", "094044.040000", "094044.043000", "094044.045000", "094044.048000", "094044.050000", "094044.053000", "094044.056000", "094044.058000", "094044.061000", "094044.064000", "094044.066000", "094044.069000", "094044.071000", "094044.074000", "094044.076000", "094044.079000", "094044.081000", "094044.084000", "094044.086000", "094044.089000", "094044.092000", "094044.094000", "094044.097000", "094044.100000", "094044.102000", "094044.105000", "094044.107000", "094044.110000", "094044.112000", "094044.115000", "094044.117000", "094104.091000", "094104.094000", "094104.097000", "094104.100000", "094104.103000", "094104.105000", "094104.108000", "094104.111000", "094104.113000", "094104.125000", "094104.128000", "094104.130000", "094104.133000", "094104.135000", "094104.138000", "094104.140000", "094104.143000"],
      "InstanceCreationTime": ["093344.037000", "093344.040000", "093344.055000", "093344.058000", "093344.060000", "093344.063000", "093344.066000", "093344.068000", "093344.071000", "093344.073000", "093344.076000", "093344.078000", "093344.081000", "093344.084000", "093344.086000", "093344.089000", "093344.095000", "093344.098000", "093344.100000", "093344.103000", "093344.105000", "093344.108000", "093344.111000", "093344.113000", "093344.116000", "093424.034000", "093424.036000", "093424.039000", "093424.042000", "093424.044000", "093424.047000", "093424.049000", "093424.052000", "093424.054000", "093424.057000", "093424.060000", "093424.062000", "093424.065000", "093424.069000", "093424.071000", "093424.074000", "093424.077000", "093424.079000", "093424.082000", "093424.084000", "093424.087000", "093424.089000", "093424.092000", "093424.101000", "093424.104000", "093424.106000", "093424.109000", "093424.112000", "093424.114000", "093424.117000", "093424.119000", "093424.122000", "093424.125000", "093504.033000", "093504.036000", "093504.039000", "093504.041000", "093504.044000", "093504.046000", "093504.049000", "093504.052000", "093504.054000", "093504.057000", "093504.059000", "093504.062000", "093504.064000", "093504.067000", "093504.069000", "093504.072000", "093504.075000", "093504.077000", "093504.080000", "093504.082000", "093504.100000", "093504.102000", "093504.105000", "093504.115000", "093504.117000", "093504.120000", "093504.126000", "093504.129000", "093504.131000", "093504.134000", "093504.136000", "093504.139000", "093504.142000", "093544.033000", "093544.036000", "093544.039000", "093544.041000", "093544.044000", "093544.046000", "093544.049000", "093544.051000", "093544.054000", "093544.056000", "093544.059000", "093544.061000", "093544.064000", "093544.066000", "093544.069000", "093544.071000", "093544.074000", "093544.076000", "093544.079000", "093544.082000", "093544.084000", "093544.087000", "093544.089000", "093544.092000", "093544.094000", "093544.097000", "093544.099000", "093544.102000", "093544.104000", "093544.107000", "093544.110000", "093544.112000", "093544.115000", "093544.117000", "093624.032000", "093624.035000", "093624.038000", "093624.040000", "093624.043000", "093624.045000", "093624.048000", "093624.051000", "093624.053000", "093624.056000", "093624.058000", "093624.061000", "093624.063000", "093624.067000", "093624.070000", "093624.072000", "093624.075000", "093624.078000", "093624.080000", "093624.083000", "093624.085000", "093624.088000", "093624.090000", "093624.093000", "093624.095000", "093624.098000", "093624.100000", "093624.103000", "093624.106000", "093624.108000", "093624.111000", "093624.113000", "093624.116000", "093704.033000", "093704.036000", "093704.039000", "093704.041000", "093704.044000", "093704.047000", "093704.050000", "093704.053000", "093704.056000", "093704.064000", "093704.067000", "093704.069000", "093704.072000", "093704.075000", "093704.077000", "093704.080000", "093704.082000", "093704.085000", "093704.088000", "093704.090000", "093704.093000", "093704.095000", "093704.098000", "093704.100000", "093704.103000", "093704.106000", "093704.108000", "093704.111000", "093704.113000", "093704.116000", "093704.128000", "093704.131000", "093704.133000", "093744.033000", "093744.036000", "093744.039000", "093744.041000", "093744.044000", "093744.047000", "093744.049000", "093744.052000", "093744.054000", "093744.057000", "093744.059000", "093744.062000", "093744.064000", "093744.067000", "093744.069000", "093744.072000", "093744.074000", "093744.077000", "093744.079000", "093744.082000", "093744.085000", "093744.087000", "093744.090000", "093744.092000", "093744.095000", "093744.097000", "093744.100000", "093744.102000", "093744.105000", "093744.115000", "093744.119000", "093744.121000", "093744.124000", "093744.126000", "093824.033000", "093824.035000", "093824.038000", "093824.040000", "093824.043000", "093824.045000", "093824.048000", "093824.050000", "093824.053000", "093824.055000", "093824.058000", "093824.060000", "093824.063000", "093824.066000", "093824.069000", "093824.072000", "093824.074000", "093824.077000", "093824.079000", "093824.082000", "093824.084000", "093824.087000", "093824.089000", "093824.092000", "093824.094000", "093824.097000", "093824.099000", "093824.102000", "093824.104000", "093824.107000", "093824.109000", "093824.112000", "093824.114000", "093904.034000", "093904.037000", "093904.039000", "093904.043000", "093904.066000", "093904.069000", "093904.071000", "093904.074000", "093904.077000", "093904.079000", "093904.082000", "093904.084000", "093904.087000", "093904.089000", "093904.092000", "093904.094000", "093904.097000", "093904.099000", "093904.102000", "093904.104000", "093904.107000", "093904.110000", "093904.112000", "093904.115000", "093904.117000", "093904.120000", "093904.122000", "093904.125000", "093904.127000", "093904.130000", "093904.132000", "093904.135000", "093904.137000", "093924.034000", "093924.036000", "093924.039000", "093924.042000", "093924.044000", "093924.047000", "093924.049000", "093924.052000", "093924.054000", "093924.057000", "093924.059000", "093924.062000", "093924.070000", "093924.073000", "093924.076000", "093924.078000", "093924.081000", "094004.034000", "094004.036000", "094004.039000", "094004.041000", "094004.044000", "094004.046000", "094004.049000", "094004.051000", "094004.054000", "094004.056000", "094004.059000", "094004.062000", "094004.065000", "094004.068000", "094004.071000", "094004.074000", "094004.076000", "094004.079000", "094004.081000", "094004.084000", "094004.087000", "094004.089000", "094004.092000", "094004.094000", "094004.097000", "094004.099000", "094004.102000", "094004.104000", "094004.107000", "094004.109000", "094004.112000", "094004.114000", "094004.117000", "094044.032000", "094044.035000", "094044.038000", "094044.040000", "094044.043000", "094044.045000", "094044.048000", "094044.050000", "094044.053000", "094044.056000", "094044.058000", "094044.061000", "094044.064000", "094044.066000", "094044.069000", "094044.071000", "094044.074000", "094044.076000", "094044.079000", "094044.081000", "094044.084000", "094044.086000", "094044.089000", "094044.092000", "094044.094000", "094044.097000", "094044.100000", "094044.102000", "094044.105000", "094044.107000", "094044.110000", "094044.112000", "094044.115000", "094044.117000", "094104.091000", "094104.094000", "094104.097000", "094104.100000", "094104.103000", "094104.105000", "094104.108000", "094104.111000", "094104.113000", "094104.125000", "094104.128000", "094104.130000", "094104.133000", "094104.135000", "094104.138000", "094104.140000", "094104.143000"],
      "InstanceNumber": [1, 2, 3, 4, 5, 6, 7, 8, 9, 10, 11, 12, 13, 14, 15, 16, 17, 18, 19, 20, 21, 22, 23, 24, 25, 26, 27, 28, 29, 30, 31, 32, 33, 34, 35, 36, 37, 38, 39, 40, 41, 42, 43, 44, 45, 46, 47, 48, 49, 50, 51, 52, 53, 54, 55, 56, 57, 58, 59, 60, 61, 62, 63, 64, 65, 66, 67, 68, 69, 70, 71, 72, 73, 74, 75, 76, 77, 78, 79, 80, 81, 82, 83, 84, 85, 86, 87, 88, 89, 90, 91, 92, 93, 94, 95, 96, 97, 98, 99, 100, 101, 102, 103, 104, 105, 106, 107, 108, 109, 110, 111, 112, 113, 114, 115, 116, 117, 118, 119, 120, 121, 122, 123, 124, 125, 126, 127, 128, 129, 130, 131, 132, 133, 134, 135, 136, 137, 138, 139, 140, 141, 142, 143, 144, 145, 146, 147, 148, 149, 150, 151, 152, 153, 154, 155, 156, 157, 158, 159, 160, 161, 162, 163, 164, 165, 166, 167, 168, 169, 170, 171, 172, 173, 174, 175, 176, 177, 178, 179, 180, 181, 182, 183, 184, 185, 186, 187, 188, 189, 190, 191, 192, 193, 194, 195, 196, 197, 198, 199, 200, 201, 202, 203, 204, 205, 206, 207, 208, 209, 210, 211, 212, 213, 214, 215, 216, 217, 218, 219, 220, 221, 222, 223, 224, 225, 226, 227, 228, 229, 230, 231, 232, 233, 234, 235, 236, 237, 238, 239, 240, 241, 242, 243, 244, 245, 246, 247, 248, 249, 250, 251, 252, 253, 254, 255, 256, 257, 258, 259, 260, 261, 262, 263, 264, 265, 266, 267, 268, 269, 270, 271, 272, 273, 274, 275, 276, 277, 278, 279, 280, 281, 282, 283, 284, 285, 286, 287, 288, 289, 290, 291, 292, 293, 294, 295, 296, 297, 298, 299, 300, 301, 302, 303, 304, 305, 306, 307, 308, 309, 310, 311, 312, 313, 314, 315, 316, 317, 318, 319, 320, 321, 322, 323, 324, 325, 326, 327, 328, 329, 330, 331, 332, 333, 334, 335, 336, 337, 338, 339, 340, 341, 342, 343, 344, 345, 346, 347, 348, 349, 350, 351, 352, 353, 354, 355, 356, 357, 358, 359, 360, 361, 362, 363, 364, 365, 366, 367, 368, 369, 370, 371, 372, 373, 374, 375, 376, 377, 378, 379, 380, 381, 382, 383, 384, 385, 386, 387, 388, 389, 390, 391, 392],
