{
  "AcquisitionMatrixPE": 88,
  "AcquisitionNumber": 1,
  "AcquisitionTime": "10:17:24.845000",
  "BandwidthPerPixelPhaseEncode": 19.592,
  "BaseResolution": 88,
  "BodyPartExamined": "BRAIN",
  "ConsistencyInfo": "N4_VE11C_LATEST_20160120",
  "ConversionSoftware": "dcm2niix",
  "ConversionSoftwareVersion": "v1.0.20190902",
  "DerivedVendorReportedEchoSpacing": 0.000580014,
  "DeviceSerialNumber": "67050",
  "DwellTime": 2.6e-06,
  "EchoTime": 0.033,
  "EchoTrainLength": 88,
  "EffectiveEchoSpacing": 0.000580014,
  "FlipAngle": 62,
  "ImageOrientationPatientDICOM": [0.997351, -0.068948, -0.0231983, 0.071491, 0.98795, 0.137271],
  "ImageType": [
    "ORIGINAL",
    "PRIMARY",
    "M",
    "ND",
    "MOSAIC"
],
  "ImagingFrequency": 123.251,
  "InPlanePhaseEncodingDirectionDICOM": "COL",
  "InstitutionAddress": "Olive_Street_60_Providence_RI_US_02912",
  "InstitutionName": "BROWN_UNIVERSITY_MRF",
  "InstitutionalDepartmentName": "Department",
  "MRAcquisitionType": "2D",
  "MagneticFieldStrength": 3,
  "Manufacturer": "Siemens",
  "ManufacturersModelName": "Prisma_fit",
  "Modality": "MR",
  "MultibandAccelerationFactor": 4,
  "PartialFourier": 1,
  "PatientPosition": "HFS",
  "PercentPhaseFOV": 100,
  "PhaseEncodingDirection": "j-",
  "PhaseEncodingSteps": 88,
  "PhaseResolution": 1,
  "PixelBandwidth": 2185,
  "ProcedureStepDescription": "ASHENHAV_1222",
  "ProtocolName": "func-bold_task-RDMmotion_run-05",
  "PulseSequenceDetails": "%SiemensSeq%_ep2d_bold",
  "ReceiveCoilActiveElements": "HC1-7;NC1",
  "ReceiveCoilName": "HeadNeck_64",
  "ReconMatrixPE": 88,
  "RefLinesPE": 8,
  "RepetitionTime": 1.2,
  "SAR": 0.0437456,
  "ScanOptions": "FS",
  "ScanningSequence": "EP",
  "SequenceName": "_epfid2d1_88",
  "SequenceVariant": "SK",
  "SeriesDescription": "func-bold_task-RDMmotion_run-05",
  "SeriesNumber": 16,
  "ShimSetting": [1740, -9175, 4427, 559, -64, -420, 144, 77],
  "SliceThickness": 2.4,
  "SliceTiming": [0.55, 0, 0.63, 0.0775, 0.7075, 0.1575, 0.7875, 0.235, 0.865, 0.315, 0.945, 0.3925, 1.0225, 0.4725, 1.1, 0.55, 0, 0.63, 0.0775, 0.7075, 0.1575, 0.7875, 0.235, 0.865, 0.315, 0.945, 0.3925, 1.0225, 0.4725, 1.1, 0.55, 0, 0.63, 0.0775, 0.7075, 0.1575, 0.7875, 0.235, 0.865, 0.315, 0.945, 0.3925, 1.0225, 0.4725, 1.1, 0.55, 0, 0.63, 0.0775, 0.7075, 0.1575, 0.7875, 0.235, 0.865, 0.315, 0.945, 0.3925, 1.0225, 0.4725, 1.1],
  "SoftwareVersions": "syngo_MR_E11",
  "SpacingBetweenSlices": 2.4,
  "StationName": "AWP67050",
  "TaskName": "RDMmotion",
  "TotalReadoutTime": 0.0504612,
  "TxRefAmp": 214.526,
  "dcmmeta_affine": [
    [-2.3913745880126953, 0.17141595482826233, -0.03228998929262161, 99.19923400878906],
    [0.16531838476657867, 2.368835210800171, 0.33255845308303833, -104.7194595336914],
    [-0.055623117834329605, -0.32913902401924133, 2.3766283988952637, -44.41888427734375],
    [0.0, 0.0, 0.0, 1.0]
],
  "dcmmeta_reorient_transform": [
    [0.0, -1.0, 0.0, 87.0],
    [1.0, 0.0, 0.0, 0.0],
    [0.0, 0.0, 1.0, 0.0],
    [0.0, 0.0, 0.0, 1.0]
],
  "dcmmeta_shape": [88, 88, 60, 125],
  "dcmmeta_slice_dim": 2,
  "dcmmeta_version": 0.6,
  "global": {
    "const": {
      "AcquisitionMatrix": [88, 0, 0, 88],
      "AngioFlag": "N",
      "BitsAllocated": 16,
      "BitsStored": 12,
      "BodyPartExamined": "BRAIN",
      "Columns": 704,
      "DeidentificationMethodCodeSequence": [
        {
          "CodeMeaning": "XNAT DicomEdit 6 Script",
          "CodeValue": "3",
          "CodingSchemeDesignator": "XNAT",
          "CodingSchemeVersion": "1.0"}
],
      "EchoNumbers": 1,
      "EchoTime": 33.0,
      "EchoTrainLength": 88,
      "FlipAngle": 62.0,
      "HighBit": 11,
      "ImageOrientationPatient": [0.9973505001402, -0.0689479530706, -0.0231982679843, 0.07149101622701, 0.98795021970464, 0.13727125694907],
      "ImagePositionPatient": [-903.45187572421, -780.05236477938, -157.2968812959],
      "ImageType": [
        "ORIGINAL",
        "PRIMARY",
        "M",
        "ND",
        "MOSAIC"
],
      "ImagedNucleus": "1H",
      "ImagingFrequency": 123.250638,
      "InPlanePhaseEncodingDirection": "COL",
      "MRAcquisitionType": "2D",
      "MagneticFieldStrength": 3.0,
      "Manufacturer": "SIEMENS",
      "ManufacturerModelName": "Prisma_fit",
      "Modality": "MR",
      "NumberOfAverages": 1.0,
      "NumberOfPhaseEncodingSteps": 88,
      "PercentPhaseFieldOfView": 100.0,
      "PercentSampling": 100.0,
      "PerformedProcedureStepStartTime": "091550.092000",
      "PhotometricInterpretation": "MONOCHROME2",
      "PixelBandwidth": 2185.0,
      "PixelRepresentation": 0,
      "PixelSpacing": [2.3977272510529, 2.3977272510529],
      "ProtocolName": "func-bold_task-RDMmotion_run-05",
      "RepetitionTime": 1200.0,
      "Rows": 704,
      "SAR": 0.0437455864954,
      "SamplesPerPixel": 1,
      "ScanOptions": "FS",
      "ScanningSequence": "EP",
      "SequenceName": "*epfid2d1_88",
      "SequenceVariant": "SK",
      "SeriesDescription": "func-bold_task-RDMmotion_run-05",
      "SeriesNumber": 16,
      "SeriesTime": "101752.169000",
      "SliceLocation": -59.831526165609,
      "SliceThickness": 2.4000000953674,
      "SmallestImagePixelValue": 0,
      "SoftwareVersions": "syngo MR E11",
      "SpacingBetweenSlices": 2.3999999628816,
      "SpecificCharacterSet": "ISO_IR 100",
      "StudyID": "1",
      "StudyTime": "091549.905000",
      "TransmitCoilName": "Body",
      "VariableFlipAngleFlag": "N",
      "WindowCenterWidthExplanation": "Algo1",
      "dBdt": 0.0},
    "slices": {}
  },
  "time": {
    "samples": {
      "AcquisitionNumber": [1, 2, 3, 4, 5, 6, 7, 8, 9, 10, 11, 12, 13, 14, 15, 16, 17, 18, 19, 20, 21, 22, 23, 24, 25, 26, 27, 28, 29, 30, 31, 32, 33, 34, 35, 36, 37, 38, 39, 40, 41, 42, 43, 44, 45, 46, 47, 48, 49, 50, 51, 52, 53, 54, 55, 56, 57, 58, 59, 60, 61, 62, 63, 64, 65, 66, 67, 68, 69, 70, 71, 72, 73, 74, 75, 76, 77, 78, 79, 80, 81, 82, 83, 84, 85, 86, 87, 88, 89, 90, 91, 92, 93, 94, 95, 96, 97, 98, 99, 100, 101, 102, 103, 104, 105, 106, 107, 108, 109, 110, 111, 112, 113, 114, 115, 116, 117, 118, 119, 120, 121, 122, 123, 124, 125],
      "AcquisitionTime": ["101724.845000", "101726.045000", "101727.245000", "101728.445000", "101729.645000", "101730.845000", "101732.045000", "101733.245000", "101734.445000", "101735.645000", "101736.845000", "101738.045000", "101739.245000", "101740.445000", "101741.645000", "101742.845000", "101744.045000", "101745.245000", "101746.445000", "101747.645000", "101748.845000", "101750.045000", "101751.245000", "101752.445000", "101753.645000", "101754.845000", "101756.045000", "101757.245000", "101758.445000", "101759.645000", "101800.845000", "101802.045000", "101803.245000", "101804.445000", "101805.645000", "101806.845000", "101808.045000", "101809.245000", "101810.445000", "101811.645000", "101812.845000", "101814.045000", "101815.245000", "101816.445000", "101817.645000", "101818.845000", "101820.045000", "101821.245000", "101822.445000", "101823.645000", "101824.845000", "101826.045000", "101827.245000", "101828.445000", "101829.645000", "101830.845000", "101832.045000", "101833.245000", "101834.445000", "101835.645000", "101836.845000", "101838.045000", "101839.245000", "101840.445000", "101841.645000", "101842.845000", "101844.045000", "101845.245000", "101846.445000", "101847.645000", "101848.845000", "101850.045000", "101851.245000", "101852.445000", "101853.645000", "101854.845000", "101856.045000", "101857.245000", "101858.445000", "101859.645000", "101900.845000", "101902.045000", "101903.245000", "101904.445000", "101905.645000", "101906.845000", "101908.045000", "101909.245000", "101910.445000", "101911.645000", "101912.845000", "101914.045000", "101915.245000", "101916.445000", "101917.645000", "101918.845000", "101920.045000", "101921.245000", "101922.445000", "101923.645000", "101924.845000", "101926.045000", "101927.245000", "101928.445000", "101929.645000", "101930.845000", "101932.045000", "101933.245000", "101934.445000", "101935.645000", "101936.845000", "101938.045000", "101939.245000", "101940.445000", "101941.645000", "101942.845000", "101944.045000", "101945.245000", "101946.445000", "101947.645000", "101948.845000", "101950.045000", "101951.245000", "101952.445000", "101953.645000"],
      "ContentTime": ["101752.173000", "101752.176000", "101752.179000", "101752.182000", "101752.184000", "101752.187000", "101752.190000", "101752.192000", "101752.195000", "101752.197000", "101752.209000", "101752.212000", "101752.215000", "101752.217000", "101752.220000", "101752.223000", "101752.225000", "101752.228000", "101752.230000", "101752.233000", "101752.235000", "101752.238000", "101832.167000", "101832.171000", "101832.173000", "101832.176000", "101832.178000", "101832.181000", "101832.183000", "101832.186000", "101832.189000", "101832.191000", "101832.194000", "101832.196000", "101832.199000", "101832.202000", "101832.204000", "101832.207000", "101832.209000", "101832.212000", "101832.215000", "101832.217000", "101832.220000", "101832.222000", "101832.225000", "101832.227000", "101832.230000", "101832.233000", "101832.235000", "101832.238000", "101832.240000", "101832.243000", "101832.246000", "101832.254000", "101832.257000", "101912.168000", "101912.170000", "101912.173000", "101912.176000", "101912.178000", "101912.181000", "101912.183000", "101912.186000", "101912.189000", "101912.191000", "101912.194000", "101912.196000", "101912.199000", "101912.201000", "101912.204000", "101912.207000", "101912.209000", "101912.212000", "101912.214000", "101912.217000", "101912.220000", "101912.222000", "101912.225000", "101912.228000", "101912.230000", "101912.233000", "101912.235000", "101912.238000", "101912.241000", "101912.243000", "101912.246000", "101912.248000", "101912.251000", "101912.254000", "101952.169000", "101952.171000", "101952.174000", "101952.177000", "101952.180000", "101952.182000", "101952.185000", "101952.187000", "101952.190000", "101952.193000", "101952.195000", "101952.198000", "101952.200000", "101952.203000", "101952.215000", "101952.217000", "101952.220000", "101952.223000", "101952.225000", "101952.228000", "101952.231000", "101952.233000", "101952.236000", "101952.238000", "101952.241000", "101952.244000", "101952.246000", "101952.249000", "101952.252000", "101952.254000", "101952.257000", "101952.259000", "101952.262000", "101955.163000", "101955.166000", "101955.168000"],
      "InstanceCreationTime": ["101752.173000", "101752.176000", "101752.179000", "101752.182000", "101752.184000", "101752.187000", "101752.190000", "101752.192000", "101752.195000", "101752.197000", "101752.209000", "101752.212000", "101752.215000", "101752.217000", "101752.220000", "101752.223000", "101752.225000", "101752.228000", "101752.230000", "101752.233000", "101752.235000", "101752.238000", "101832.167000", "101832.171000", "101832.173000", "101832.176000", "101832.178000", "101832.181000", "101832.183000", "101832.186000", "101832.189000", "101832.191000", "101832.194000", "101832.196000", "101832.199000", "101832.202000", "101832.204000", "101832.207000", "101832.209000", "101832.212000", "101832.215000", "101832.217000", "101832.220000", "101832.222000", "101832.225000", "101832.227000", "101832.230000", "101832.233000", "101832.235000", "101832.238000", "101832.240000", "101832.243000", "101832.246000", "101832.254000", "101832.257000", "101912.168000", "101912.170000", "101912.173000", "101912.176000", "101912.178000", "101912.181000", "101912.183000", "101912.186000", "101912.189000", "101912.191000", "101912.194000", "101912.196000", "101912.199000", "101912.201000", "101912.204000", "101912.207000", "101912.209000", "101912.212000", "101912.214000", "101912.217000", "101912.220000", "101912.222000", "101912.225000", "101912.228000", "101912.230000", "101912.233000", "101912.235000", "101912.238000", "101912.241000", "101912.243000", "101912.246000", "101912.248000", "101912.251000", "101912.254000", "101952.169000", "101952.171000", "101952.174000", "101952.177000", "101952.180000", "101952.182000", "101952.185000", "101952.187000", "101952.190000", "101952.193000", "101952.195000", "101952.198000", "101952.200000", "101952.203000", "101952.215000", "101952.217000", "101952.220000", "101952.223000", "101952.225000", "101952.228000", "101952.231000", "101952.233000", "101952.236000", "101952.238000", "101952.241000", "101952.244000", "101952.246000", "101952.249000", "101952.252000", "101952.254000", "101952.257000", "101952.259000", "101952.262000", "101955.163000", "101955.166000", "101955.168000"],
      "InstanceNumber": [1, 2, 3, 4, 5, 6, 7, 8, 9, 10, 11, 12, 13, 14, 15, 16, 17, 18, 19, 20, 21, 22, 23, 24, 25, 26, 27, 28, 29, 30, 31, 32, 33, 34, 35, 36, 37, 38, 39, 40, 41, 42, 43, 44, 45, 46, 47, 48, 49, 50, 51, 52, 53, 54, 55, 56, 57, 58, 59, 60, 61, 62, 63, 64, 65, 66, 67, 68, 69, 70, 71, 72, 73, 74, 75, 76, 77, 78, 79, 80, 81, 82, 83, 84, 85, 86, 87, 88, 89, 90, 91, 92, 93, 94, 95, 96, 97, 98, 99, 100, 101, 102, 103, 104, 105, 106, 107, 108, 109, 110, 111, 112, 113, 114, 115, 116, 117, 118, 119, 120, 121, 122, 123, 124, 125],
      "LargestImagePixelValue": [1797, 1744, 1723, 1727, 1697, 1687, 1858, 1819, 1623, 1647, 1640, 1722, 1737, 1617, 1626, 1696, 1753, 1697, 1643, 1655, 1634, 1700, 1687, 1581, 1611, 1631, 1695, 1560, 1531, 1592, 1919, 1682, 1552, 1555, 1583, 1656, 1655, 1695, 1667, 1720, 1748, 1580, 1599, 1608, 1777, 1600, 1706, 1592, 1658, 1722, 1590, 1768, 1645, 1679, 1665, 1503, 1494, 1444, 1907, 1609, 1527, 1676, 1710, 1613, 1437, 1722, 1699, 1468, 1544, 1636, 1543, 1614, 1927, 1673, 1461, 1707, 1825, 1558, 1588, 1698, 1595, 1602, 1661, 1619, 1657, 1721, 1794, 1591, 1660, 1676, 1618, 1761, 1566, 1727, 1862, 1680, 1717, 1573, 1663, 1692, 1736, 1619, 1849, 1847, 1617, 1728, 1859, 1467, 1510, 1632, 1668, 1452, 1454, 1466, 1646, 1772, 1433, 1580, 1606, 1637, 1618, 1551, 1755, 1739, 1616],
      "WindowCenter": [546.0, 543.0, 542.0, 542.0, 541.0, 541.0, 543.0, 542.0, 539.0, 539.0, 539.0, 540.0, 541.0, 539.0, 539.0, 540.0, 541.0, 540.0, 539.0, 540.0, 539.0, 540.0, 540.0, 538.0, 538.0, 539.0, 540.0, 537.0, 537.0, 539.0, 543.0, 540.0, 538.0, 538.0, 539.0, 540.0, 540.0, 541.0, 540.0, 542.0, 542.0, 540.0, 539.0, 539.0, 542.0, 539.0, 541.0, 539.0, 540.0, 541.0, 539.0, 541.0, 539.0, 539.0, 538.0, 536.0, 535.0, 534.0, 542.0, 538.0, 536.0, 540.0, 540.0, 538.0, 535.0, 540.0, 539.0, 536.0, 537.0, 539.0, 537.0, 539.0, 544.0, 540.0, 536.0, 540.0, 541.0, 537.0, 538.0, 539.0, 538.0, 538.0, 540.0, 540.0, 540.0, 541.0, 543.0, 539.0, 540.0, 540.0, 539.0, 541.0, 538.0, 541.0, 543.0, 540.0, 540.0, 538.0, 540.0, 541.0, 542.0, 540.0, 542.0, 543.0, 540.0, 541.0, 543.0, 537.0, 537.0, 539.0, 539.0, 536.0, 536.0, 536.0, 539.0, 541.0, 535.0, 538.0, 539.0, 539.0, 538.0, 537.0, 540.0, 540.0, 538.0],
      "WindowWidth": [1150.0, 1144.0, 1142.0, 1142.0, 1141.0, 1141.0, 1144.0, 1142.0, 1137.0, 1137.0, 1137.0, 1138.0, 1139.0, 1136.0, 1136.0, 1139.0, 1140.0, 1139.0, 1137.0, 1138.0, 1137.0, 1138.0, 1137.0, 1135.0, 1135.0, 1137.0, 1138.0, 1134.0, 1134.0, 1136.0, 1143.0, 1138.0, 1135.0, 1136.0, 1137.0, 1138.0, 1139.0, 1140.0, 1139.0, 1141.0, 1142.0, 1139.0, 1138.0, 1138.0, 1142.0, 1137.0, 1140.0, 1138.0, 1139.0, 1141.0, 1137.0, 1139.0, 1137.0, 1136.0, 1135.0, 1130.0, 1129.0, 1128.0, 1140.0, 1134.0, 1132.0, 1138.0, 1138.0, 1135.0, 1131.0, 1138.0, 1137.0, 1132.0, 1134.0, 1137.0, 1134.0, 1136.0, 1144.0, 1138.0, 1133.0, 1139.0, 1140.0, 1134.0, 1134.0, 1136.0, 1134.0, 1135.0, 1138.0, 1138.0, 1139.0, 1141.0, 1143.0, 1138.0, 1139.0, 1139.0, 1137.0, 1140.0, 1136.0, 1140.0, 1143.0, 1137.0, 1139.0, 1136.0, 1139.0, 1140.0, 1142.0, 1139.0, 1142.0, 1143.0, 1138.0, 1140.0, 1143.0, 1133.0, 1134.0, 1136.0, 1137.0, 1132.0, 1131.0, 1132.0, 1136.0, 1139.0, 1130.0, 1135.0, 1136.0, 1137.0, 1135.0, 1133.0, 1138.0, 1137.0, 1134.0]
    },
    "slices": {}
  }
}