{
  "AcquisitionMatrixPE": 88,
  "AcquisitionNumber": 1,
  "AcquisitionTime": "10:41:19.170000",
  "BandwidthPerPixelPhaseEncode": 19.592,
  "BaseResolution": 88,
  "BodyPartExamined": "BRAIN",
  "ConsistencyInfo": "N4_VE11C_LATEST_20160120",
  "ConversionSoftware": "dcm2niix",
  "ConversionSoftwareVersion": "v1.0.20190902",
  "DerivedVendorReportedEchoSpacing": 0.000580014,
  "DeviceSerialNumber": "67050",
  "DwellTime": 2.6e-06,
  "EchoTime": 0.033,
  "EchoTrainLength": 88,
  "EffectiveEchoSpacing": 0.000580014,
  "FlipAngle": 62,
  "ImageOrientationPatientDICOM": [0.997351, -0.068948, -0.0231983, 0.071491, 0.98795, 0.137271],
  "ImageType": [
    "ORIGINAL",
    "PRIMARY",
    "M",
    "ND",
    "MOSAIC"
],
  "ImagingFrequency": 123.251,
  "InPlanePhaseEncodingDirectionDICOM": "COL",
  "InstitutionAddress": "Olive_Street_60_Providence_RI_US_02912",
  "InstitutionName": "BROWN_UNIVERSITY_MRF",
  "InstitutionalDepartmentName": "Department",
  "MRAcquisitionType": "2D",
  "MagneticFieldStrength": 3,
  "Manufacturer": "Siemens",
  "ManufacturersModelName": "Prisma_fit",
  "Modality": "MR",
  "MultibandAccelerationFactor": 4,
  "PartialFourier": 1,
  "PatientPosition": "HFS",
  "PercentPhaseFOV": 100,
  "PhaseEncodingDirection": "j-",
  "PhaseEncodingSteps": 88,
  "PhaseResolution": 1,
  "PixelBandwidth": 2185,
  "ProcedureStepDescription": "ASHENHAV_1222",
  "ProtocolName": "func-bold_task-RDMlocalizer_run-01",
  "PulseSequenceDetails": "%SiemensSeq%_ep2d_bold",
  "ReceiveCoilActiveElements": "HC1-7;NC1",
  "ReceiveCoilName": "HeadNeck_64",
  "ReconMatrixPE": 88,
  "RefLinesPE": 8,
  "RepetitionTime": 1.2,
  "SAR": 0.043978,
  "ScanOptions": "FS",
  "ScanningSequence": "EP",
  "SequenceName": "_epfid2d1_88",
  "SequenceVariant": "SK",
  "SeriesDescription": "func-bold_task-RDMlocalizer_run-01",
  "SeriesNumber": 20,
  "ShimSetting": [1740, -9175, 4427, 559, -64, -420, 144, 77],
  "SliceThickness": 2.4,
  "SliceTiming": [0.55, 0, 0.63, 0.0775, 0.7075, 0.1575, 0.7875, 0.235, 0.865, 0.315, 0.945, 0.3925, 1.0225, 0.4725, 1.1025, 0.55, 0, 0.63, 0.0775, 0.7075, 0.1575, 0.7875, 0.235, 0.865, 0.315, 0.945, 0.3925, 1.0225, 0.4725, 1.1025, 0.55, 0, 0.63, 0.0775, 0.7075, 0.1575, 0.7875, 0.235, 0.865, 0.315, 0.945, 0.3925, 1.0225, 0.4725, 1.1025, 0.55, 0, 0.63, 0.0775, 0.7075, 0.1575, 0.7875, 0.235, 0.865, 0.315, 0.945, 0.3925, 1.0225, 0.4725, 1.1025],
  "SoftwareVersions": "syngo_MR_E11",
  "SpacingBetweenSlices": 2.4,
  "StationName": "AWP67050",
  "TaskName": "RDMlocalizer",
  "TotalReadoutTime": 0.0504612,
  "TxRefAmp": 214.526,
  "dcmmeta_affine": [
    [-2.3913745880126953, 0.17141595482826233, -0.03228998929262161, 99.19923400878906],
    [0.16531838476657867, 2.368835210800171, 0.33255845308303833, -104.7194595336914],
    [-0.055623117834329605, -0.32913902401924133, 2.3766283988952637, -44.41888427734375],
    [0.0, 0.0, 0.0, 1.0]
],
  "dcmmeta_reorient_transform": [
    [0.0, -1.0, 0.0, 87.0],
    [1.0, 0.0, 0.0, 0.0],
    [0.0, 0.0, 1.0, 0.0],
    [0.0, 0.0, 0.0, 1.0]
],
  "dcmmeta_shape": [88, 88, 60, 195],
  "dcmmeta_slice_dim": 2,
  "dcmmeta_version": 0.6,
  "global": {
    "const": {
      "AcquisitionMatrix": [88, 0, 0, 88],
      "AngioFlag": "N",
      "BitsAllocated": 16,
      "BitsStored": 12,
      "BodyPartExamined": "BRAIN",
      "Columns": 704,
      "DeidentificationMethodCodeSequence": [
        {
          "CodeMeaning": "XNAT DicomEdit 6 Script",
          "CodeValue": "3",
          "CodingSchemeDesignator": "XNAT",
          "CodingSchemeVersion": "1.0"}
],
      "EchoNumbers": 1,
      "EchoTime": 33.0,
      "EchoTrainLength": 88,
      "FlipAngle": 62.0,
      "HighBit": 11,
      "ImageOrientationPatient": [0.9973505001402, -0.0689479530706, -0.0231982679843, 0.07149101622701, 0.98795021970464, 0.13727125694907],
      "ImagePositionPatient": [-903.45187572421, -780.05236477938, -157.2968812959],
      "ImageType": [
        "ORIGINAL",
        "PRIMARY",
        "M",
        "ND",
        "MOSAIC"
],
      "ImagedNucleus": "1H",
      "ImagingFrequency": 123.250643,
      "InPlanePhaseEncodingDirection": "COL",
      "MRAcquisitionType": "2D",
      "MagneticFieldStrength": 3.0,
      "Manufacturer": "SIEMENS",
      "ManufacturerModelName": "Prisma_fit",
      "Modality": "MR",
      "NumberOfAverages": 1.0,
      "NumberOfPhaseEncodingSteps": 88,
      "PercentPhaseFieldOfView": 100.0,
      "PercentSampling": 100.0,
      "PerformedProcedureStepStartTime": "091550.092000",
      "PhotometricInterpretation": "MONOCHROME2",
      "PixelBandwidth": 2185.0,
      "PixelRepresentation": 0,
      "PixelSpacing": [2.3977272510529, 2.3977272510529],
      "ProtocolName": "func-bold_task-RDMlocalizer_run-01",
      "RepetitionTime": 1200.0,
      "Rows": 704,
      "SAR": 0.04397801761795,
      "SamplesPerPixel": 1,
      "ScanOptions": "FS",
      "ScanningSequence": "EP",
      "SequenceName": "*epfid2d1_88",
      "SequenceVariant": "SK",
      "SeriesDescription": "func-bold_task-RDMlocalizer_run-01",
      "SeriesNumber": 20,
      "SeriesTime": "104148.986000",
      "SliceLocation": -59.831526165609,
      "SliceThickness": 2.4000000953674,
      "SmallestImagePixelValue": 0,
      "SoftwareVersions": "syngo MR E11",
      "SpacingBetweenSlices": 2.3999999628816,
      "SpecificCharacterSet": "ISO_IR 100",
      "StudyID": "1",
      "StudyTime": "091549.905000",
      "TransmitCoilName": "Body",
      "VariableFlipAngleFlag": "N",
      "WindowCenterWidthExplanation": "Algo1",
      "dBdt": 0.0},
    "slices": {}
  },
  "time": {
    "samples": {
      "AcquisitionNumber": [1, 2, 3, 4, 5, 6, 7, 8, 9, 10, 11, 12, 13, 14, 15, 16, 17, 18, 19, 20, 21, 22, 23, 24, 25, 26, 27, 28, 29, 30, 31, 32, 33, 34, 35, 36, 37, 38, 39, 40, 41, 42, 43, 44, 45, 46, 47, 48, 49, 50, 51, 52, 53, 54, 55, 56, 57, 58, 59, 60, 61, 62, 63, 64, 65, 66, 67, 68, 69, 70, 71, 72, 73, 74, 75, 76, 77, 78, 79, 80, 81, 82, 83, 84, 85, 86, 87, 88, 89, 90, 91, 92, 93, 94, 95, 96, 97, 98, 99, 100, 101, 102, 103, 104, 105, 106, 107, 108, 109, 110, 111, 112, 113, 114, 115, 116, 117, 118, 119, 120, 121, 122, 123, 124, 125, 126, 127, 128, 129, 130, 131, 132, 133, 134, 135, 136, 137, 138, 139, 140, 141, 142, 143, 144, 145, 146, 147, 148, 149, 150, 151, 152, 153, 154, 155, 156, 157, 158, 159, 160, 161, 162, 163, 164, 165, 166, 167, 168, 169, 170, 171, 172, 173, 174, 175, 176, 177, 178, 179, 180, 181, 182, 183, 184, 185, 186, 187, 188, 189, 190, 191, 192, 193, 194, 195],
      "AcquisitionTime": ["104119.170000", "104120.370000", "104121.570000", "104122.770000", "104123.970000", "104125.170000", "104126.370000", "104127.570000", "104128.770000", "104129.970000", "104131.170000", "104132.370000", "104133.570000", "104134.770000", "104135.970000", "104137.170000", "104138.370000", "104139.570000", "104140.770000", "104141.970000", "104143.170000", "104144.370000", "104145.570000", "104146.770000", "104147.970000", "104149.170000", "104150.370000", "104151.570000", "104152.770000", "104153.970000", "104155.170000", "104156.370000", "104157.570000", "104158.770000", "104159.970000", "104201.170000", "104202.370000", "104203.570000", "104204.770000", "104205.970000", "104207.170000", "104208.370000", "104209.570000", "104210.770000", "104211.970000", "104213.170000", "104214.370000", "104215.570000", "104216.770000", "104217.970000", "104219.170000", "104220.370000", "104221.570000", "104222.770000", "104223.970000", "104225.170000", "104226.370000", "104227.570000", "104228.770000", "104229.970000", "104231.170000", "104232.370000", "104233.570000", "104234.770000", "104235.970000", "104237.170000", "104238.370000", "104239.570000", "104240.770000", "104241.970000", "104243.170000", "104244.370000", "104245.570000", "104246.770000", "104247.970000", "104249.170000", "104250.370000", "104251.570000", "104252.770000", "104253.970000", "104255.170000", "104256.370000", "104257.570000", "104258.770000", "104259.970000", "104301.170000", "104302.370000", "104303.570000", "104304.770000", "104305.970000", "104307.170000", "104308.370000", "104309.570000", "104310.770000", "104311.970000", "104313.170000", "104314.370000", "104315.570000", "104316.770000", "104317.970000", "104319.170000", "104320.370000", "104321.570000", "104322.770000", "104323.970000", "104325.170000", "104326.370000", "104327.570000", "104328.770000", "104329.970000", "104331.170000", "104332.370000", "104333.570000", "104334.770000", "104335.970000", "104337.170000", "104338.370000", "104339.570000", "104340.770000", "104341.970000", "104343.170000", "104344.370000", "104345.570000", "104346.770000", "104347.970000", "104349.170000", "104350.370000", "104351.570000", "104352.770000", "104353.970000", "104355.170000", "104356.370000", "104357.570000", "104358.770000", "104359.970000", "104401.170000", "104402.370000", "104403.570000", "104404.770000", "104405.970000", "104407.170000", "104408.370000", "104409.570000", "104410.770000", "104411.970000", "104413.170000", "104414.370000", "104415.570000", "104416.770000", "104417.970000", "104419.170000", "104420.370000", "104421.570000", "104422.770000", "104423.970000", "104425.170000", "104426.370000", "104427.570000", "104428.770000", "104429.970000", "104431.170000", "104432.370000", "104433.570000", "104434.770000", "104435.970000", "104437.170000", "104438.370000", "104439.570000", "104440.770000", "104441.970000", "104443.170000", "104444.370000", "104445.570000", "104446.770000", "104447.970000", "104449.170000", "104450.370000", "104451.570000", "104452.770000", "104453.970000", "104455.170000", "104456.370000", "104457.570000", "104458.770000", "104459.970000", "104501.170000", "104502.370000", "104503.570000", "104504.770000", "104505.970000", "104507.170000", "104508.370000", "104509.570000", "104510.770000", "104511.970000"],
      "ContentTime": ["104148.990000", "104148.993000", "104149.009000", "104149.015000", "104149.018000", "104149.020000", "104149.023000", "104149.025000", "104149.028000", "104149.031000", "104149.033000", "104149.036000", "104149.038000", "104149.054000", "104149.057000", "104149.059000", "104149.062000", "104149.064000", "104149.067000", "104149.070000", "104149.073000", "104149.075000", "104149.078000", "104149.080000", "104228.984000", "104228.987000", "104228.990000", "104228.992000", "104228.995000", "104228.998000", "104229.001000", "104229.004000", "104229.006000", "104229.009000", "104229.012000", "104229.014000", "104229.017000", "104229.019000", "104229.022000", "104229.024000", "104229.027000", "104229.030000", "104229.032000", "104229.035000", "104229.037000", "104229.047000", "104229.050000", "104229.052000", "104229.055000", "104229.057000", "104229.060000", "104229.063000", "104229.065000", "104229.068000", "104229.071000", "104229.073000", "104229.081000", "104308.985000", "104308.988000", "104308.991000", "104308.993000", "104308.996000", "104308.999000", "104309.001000", "104309.004000", "104309.007000", "104309.009000", "104309.012000", "104309.014000", "104309.017000", "104309.019000", "104309.022000", "104309.024000", "104309.027000", "104309.030000", "104309.032000", "104309.035000", "104309.037000", "104309.040000", "104309.043000", "104309.045000", "104309.048000", "104309.051000", "104309.053000", "104309.056000", "104309.058000", "104309.061000", "104309.063000", "104309.066000", "104309.069000", "104309.071000", "104348.986000", "104348.988000", "104348.991000", "104348.994000", "104348.996000", "104349.000000", "104349.002000", "104349.005000", "104349.008000", "104349.010000", "104349.013000", "104349.015000", "104349.018000", "104349.028000", "104349.030000", "104349.033000", "104349.036000", "104349.038000", "104349.041000", "104349.043000", "104349.046000", "104349.049000", "104349.051000", "104349.054000", "104349.057000", "104349.059000", "104349.062000", "104349.065000", "104349.067000", "104349.070000", "104349.072000", "104349.075000", "104349.078000", "104428.986000", "104428.989000", "104428.991000", "104428.994000", "104428.996000", "104429.000000", "104429.003000", "104429.005000", "104429.008000", "104429.011000", "104429.013000", "104429.016000", "104429.018000", "104429.021000", "104429.024000", "104429.026000", "104429.029000", "104429.032000", "104429.034000", "104429.037000", "104429.039000", "104429.042000", "104429.045000", "104429.047000", "104429.050000", "104429.053000", "104429.055000", "104429.058000", "104429.060000", "104429.063000", "104429.066000", "104429.068000", "104429.071000", "104508.985000", "104508.987000", "104508.990000", "104508.992000", "104508.995000", "104508.998000", "104509.001000", "104509.004000", "104509.007000", "104509.009000", "104509.012000", "104509.014000", "104509.017000", "104509.020000", "104509.022000", "104509.025000", "104509.027000", "104509.030000", "104509.032000", "104509.035000", "104509.038000", "104509.040000", "104509.052000", "104509.055000", "104509.057000", "104509.060000", "104509.063000", "104509.065000", "104509.068000", "104509.070000", "104509.081000", "104509.084000", "104509.087000", "104509.090000", "104513.659000", "104513.661000", "104513.664000", "104513.667000"],
      "InstanceCreationTime": ["104148.990000", "104148.993000", "104149.009000", "104149.015000", "104149.018000", "104149.020000", "104149.023000", "104149.025000", "104149.028000", "104149.031000", "104149.033000", "104149.036000", "104149.038000", "104149.054000", "104149.057000", "104149.059000", "104149.062000", "104149.064000", "104149.067000", "104149.070000", "104149.073000", "104149.075000", "104149.078000", "104149.080000", "104228.984000", "104228.987000", "104228.990000", "104228.992000", "104228.995000", "104228.998000", "104229.001000", "104229.004000", "104229.006000", "104229.009000", "104229.012000", "104229.014000", "104229.017000", "104229.019000", "104229.022000", "104229.024000", "104229.027000", "104229.030000", "104229.032000", "104229.035000", "104229.037000", "104229.047000", "104229.050000", "104229.052000", "104229.055000", "104229.057000", "104229.060000", "104229.063000", "104229.065000", "104229.068000", "104229.071000", "104229.073000", "104229.081000", "104308.985000", "104308.988000", "104308.991000", "104308.993000", "104308.996000", "104308.999000", "104309.001000", "104309.004000", "104309.007000", "104309.009000", "104309.012000", "104309.014000", "104309.017000", "104309.019000", "104309.022000", "104309.024000", "104309.027000", "104309.030000", "104309.032000", "104309.035000", "104309.037000", "104309.040000", "104309.043000", "104309.045000", "104309.048000", "104309.051000", "104309.053000", "104309.056000", "104309.058000", "104309.061000", "104309.063000", "104309.066000", "104309.069000", "104309.071000", "104348.986000", "104348.988000", "104348.991000", "104348.994000", "104348.996000", "104349.000000", "104349.002000", "104349.005000", "104349.008000", "104349.010000", "104349.013000", "104349.015000", "104349.018000", "104349.028000", "104349.030000", "104349.033000", "104349.036000", "104349.038000", "104349.041000", "104349.043000", "104349.046000", "104349.049000", "104349.051000", "104349.054000", "104349.057000", "104349.059000", "104349.062000", "104349.065000", "104349.067000", "104349.070000", "104349.072000", "104349.075000", "104349.078000", "104428.986000", "104428.989000", "104428.991000", "104428.994000", "104428.996000", "104429.000000", "104429.003000", "104429.005000", "104429.008000", "104429.011000", "104429.013000", "104429.016000", "104429.018000", "104429.021000", "104429.024000", "104429.026000", "104429.029000", "104429.032000", "104429.034000", "104429.037000", "104429.039000", "104429.042000", "104429.045000", "104429.047000", "104429.050000", "104429.053000", "104429.055000", "104429.058000", "104429.060000", "104429.063000", "104429.066000", "104429.068000", "104429.071000", "104508.985000", "104508.987000", "104508.990000", "104508.992000", "104508.995000", "104508.998000", "104509.001000", "104509.004000", "104509.007000", "104509.009000", "104509.012000", "104509.014000", "104509.017000", "104509.020000", "104509.022000", "104509.025000", "104509.027000", "104509.030000", "104509.032000", "104509.035000", "104509.038000", "104509.040000", "104509.052000", "104509.055000", "104509.057000", "104509.060000", "104509.063000", "104509.065000", "104509.068000", "104509.070000", "104509.081000", "104509.084000", "104509.087000", "104509.090000", "104513.659000", "104513.661000", "104513.664000", "104513.667000"],
      "InstanceNumber": [1, 2, 3, 4, 5, 6, 7, 8, 9, 10, 11, 12, 13, 14, 15, 16, 17, 18, 19, 20, 21, 22, 23, 24, 25, 26, 27, 28, 29, 30, 31, 32, 33, 34, 35, 36, 37, 38, 39, 40, 41, 42, 43, 44, 45, 46, 47, 48, 49, 50, 51, 52, 53, 54, 55, 56, 57, 58, 59, 60, 61, 62, 63, 64, 65, 66, 67, 68, 69, 70, 71, 72, 73, 74, 75, 76, 77, 78, 79, 80, 81, 82, 83, 84, 85, 86, 87, 88, 89, 90, 91, 92, 93, 94, 95, 96, 97, 98, 99, 100, 101, 102, 103, 104, 105, 106, 107, 108, 109, 110, 111, 112, 113, 114, 115, 116, 117, 118, 119, 120, 121, 122, 123, 124, 125, 126, 127, 128, 129, 130, 131, 132, 133, 134, 135, 136, 137, 138, 139, 140, 141, 142, 143, 144, 145, 146, 147, 148, 149, 150, 151, 152, 153, 154, 155, 156, 157, 158, 159, 160, 161, 162, 163, 164, 165, 166, 167, 168, 169, 170, 171, 172, 173, 174, 175, 176, 177, 178, 179, 180, 181, 182, 183, 184, 185, 186, 187, 188, 189, 190, 191, 192, 193, 194, 195],
      "LargestImagePixelValue": [1730, 1756, 1698, 1675, 1746, 1796, 1793, 1706, 1666, 1714, 1625, 1802, 1891, 1625, 1674, 1631, 1581, 1804, 1692, 1459, 1630, 1595, 1645, 1480, 1724, 1585, 1745, 1661, 1639, 1676, 1652, 1744, 1706, 1726, 1840, 1695, 1653, 1692, 1629, 1871, 1813, 1797, 1687, 1828, 1735, 1723, 1752, 1752, 1742, 1751, 1860, 1593, 1430, 1562, 1797, 1670, 1569, 1730, 1765, 1721, 1801, 1769, 1674, 1698, 1595, 1554, 1731, 1787, 1489, 1666, 1771, 1643, 1608, 1585, 1661, 1511, 1663, 1508, 1578, 1644, 1615, 1580, 1605, 1780, 1563, 1710, 1545, 1502, 1712, 1685, 1569, 1525, 1769, 1655, 1689, 1583, 1566, 1638, 1724, 1677, 1752, 1516, 1513, 1773, 1734, 1871, 1756, 1770, 1743, 1672, 1639, 1741, 1522, 1831, 1530, 1741, 1574, 1471, 1689, 1883, 1819, 1621, 1777, 1529, 1712, 1717, 1592, 1405, 1730, 1745, 1645, 1387, 1338, 1521, 1630, 1632, 1670, 1479, 1555, 1704, 1776, 1488, 1822, 1671, 1526, 1371, 1654, 1510, 1831, 1634, 1771, 1791, 1903, 1512, 1891, 1491, 1773, 1697, 1511, 1419, 1489, 1454, 1808, 1580, 1657, 1621, 1739, 1833, 1797, 1629, 1704, 1773, 1523, 1724, 1724, 1886, 1468, 1462, 1636, 1859, 1677, 1733, 1571, 1854, 1707, 1378, 1643, 1660, 1603, 1664, 1749, 1742, 1581, 1349, 1483],
      "WindowCenter": [544.0, 543.0, 542.0, 541.0, 542.0, 543.0, 542.0, 540.0, 539.0, 541.0, 539.0, 542.0, 543.0, 540.0, 540.0, 539.0, 538.0, 541.0, 539.0, 535.0, 539.0, 539.0, 540.0, 537.0, 541.0, 539.0, 541.0, 540.0, 539.0, 540.0, 539.0, 541.0, 540.0, 541.0, 542.0, 541.0, 540.0, 541.0, 539.0, 543.0, 542.0, 541.0, 540.0, 542.0, 541.0, 541.0, 541.0, 542.0, 541.0, 542.0, 543.0, 539.0, 536.0, 539.0, 543.0, 541.0, 539.0, 543.0, 543.0, 542.0, 542.0, 542.0, 540.0, 540.0, 539.0, 538.0, 541.0, 541.0, 536.0, 539.0, 541.0, 539.0, 538.0, 538.0, 539.0, 537.0, 539.0, 536.0, 537.0, 539.0, 539.0, 538.0, 538.0, 542.0, 538.0, 540.0, 537.0, 536.0, 540.0, 540.0, 538.0, 538.0, 542.0, 540.0, 540.0, 538.0, 538.0, 539.0, 541.0, 540.0, 542.0, 538.0, 539.0, 543.0, 543.0, 544.0, 542.0, 542.0, 540.0, 539.0, 539.0, 540.0, 537.0, 542.0, 537.0, 541.0, 539.0, 537.0, 540.0, 543.0, 542.0, 539.0, 541.0, 538.0, 541.0, 541.0, 538.0, 535.0, 540.0, 539.0, 538.0, 533.0, 532.0, 535.0, 537.0, 537.0, 538.0, 536.0, 537.0, 540.0, 541.0, 536.0, 541.0, 539.0, 537.0, 534.0, 539.0, 537.0, 542.0, 540.0, 542.0, 543.0, 544.0, 538.0, 543.0, 537.0, 541.0, 539.0, 536.0, 535.0, 536.0, 536.0, 542.0, 539.0, 540.0, 539.0, 542.0, 543.0, 542.0, 539.0, 540.0, 541.0, 537.0, 541.0, 541.0, 543.0, 537.0, 537.0, 540.0, 543.0, 540.0, 541.0, 538.0, 542.0, 539.0, 534.0, 539.0, 540.0, 538.0, 539.0, 540.0, 539.0, 535.0, 530.0, 530.0],
      "WindowWidth": [1147.0, 1145.0, 1143.0, 1141.0, 1142.0, 1143.0, 1142.0, 1138.0, 1138.0, 1140.0, 1137.0, 1142.0, 1144.0, 1138.0, 1138.0, 1136.0, 1135.0, 1139.0, 1136.0, 1131.0, 1136.0, 1136.0, 1138.0, 1134.0, 1141.0, 1137.0, 1140.0, 1138.0, 1138.0, 1139.0, 1138.0, 1140.0, 1139.0, 1140.0, 1142.0, 1140.0, 1139.0, 1140.0, 1138.0, 1143.0, 1141.0, 1140.0, 1138.0, 1143.0, 1140.0, 1139.0, 1141.0, 1141.0, 1141.0, 1142.0, 1144.0, 1138.0, 1133.0, 1137.0, 1144.0, 1142.0, 1139.0, 1144.0, 1144.0, 1142.0, 1143.0, 1142.0, 1139.0, 1139.0, 1136.0, 1136.0, 1140.0, 1140.0, 1133.0, 1137.0, 1140.0, 1137.0, 1136.0, 1135.0, 1137.0, 1133.0, 1136.0, 1131.0, 1134.0, 1136.0, 1136.0, 1135.0, 1136.0, 1141.0, 1135.0, 1138.0, 1133.0, 1133.0, 1138.0, 1139.0, 1136.0, 1135.0, 1142.0, 1139.0, 1139.0, 1136.0, 1136.0, 1138.0, 1140.0, 1139.0, 1142.0, 1137.0, 1138.0, 1144.0, 1144.0, 1146.0, 1141.0, 1141.0, 1139.0, 1136.0, 1136.0, 1139.0, 1134.0, 1142.0, 1135.0, 1140.0, 1137.0, 1134.0, 1139.0, 1144.0, 1143.0, 1137.0, 1141.0, 1136.0, 1141.0, 1139.0, 1136.0, 1130.0, 1138.0, 1135.0, 1133.0, 1126.0, 1124.0, 1130.0, 1132.0, 1133.0, 1135.0, 1131.0, 1134.0, 1137.0, 1139.0, 1131.0, 1139.0, 1136.0, 1133.0, 1129.0, 1137.0, 1134.0, 1142.0, 1139.0, 1143.0, 1144.0, 1145.0, 1136.0, 1144.0, 1133.0, 1139.0, 1137.0, 1132.0, 1130.0, 1132.0, 1132.0, 1141.0, 1137.0, 1139.0, 1138.0, 1141.0, 1143.0, 1142.0, 1137.0, 1139.0, 1141.0, 1135.0, 1140.0, 1140.0, 1143.0, 1135.0, 1135.0, 1139.0, 1144.0, 1139.0, 1139.0, 1135.0, 1141.0, 1137.0, 1128.0, 1137.0, 1138.0, 1135.0, 1137.0, 1137.0, 1135.0, 1129.0, 1120.0, 1119.0]
    },
    "slices": {}
  }
}