{
  "AcquisitionMatrixPE": 88,
  "AcquisitionNumber": 1,
  "AcquisitionTime": "16:54:54.460000",
  "BandwidthPerPixelPhaseEncode": 19.592,
  "BaseResolution": 88,
  "BodyPartExamined": "BRAIN",
  "ConsistencyInfo": "N4_VE11C_LATEST_20160120",
  "ConversionSoftware": "dcm2niix",
  "ConversionSoftwareVersion": "v1.0.20190902",
  "DerivedVendorReportedEchoSpacing": 0.000580014,
  "DeviceSerialNumber": "67050",
  "DwellTime": 2.6e-06,
  "EchoTime": 0.033,
  "EchoTrainLength": 88,
  "EffectiveEchoSpacing": 0.000580014,
  "FlipAngle": 62,
  "ImageOrientationPatientDICOM": [0.999325, -0.0254469, 0.0265036, 0.0223288, 0.993464, 0.111941],
  "ImageType": [
    "ORIGINAL",
    "PRIMARY",
    "M",
    "ND",
    "MOSAIC"
],
  "ImagingFrequency": 123.251,
  "InPlanePhaseEncodingDirectionDICOM": "COL",
  "InstitutionAddress": "Olive_Street_60_Providence_RI_US_02912",
  "InstitutionName": "BROWN_UNIVERSITY_MRF",
  "InstitutionalDepartmentName": "Department",
  "MRAcquisitionType": "2D",
  "MagneticFieldStrength": 3,
  "Manufacturer": "Siemens",
  "ManufacturersModelName": "Prisma_fit",
  "Modality": "MR",
  "MultibandAccelerationFactor": 4,
  "PartialFourier": 1,
  "PatientPosition": "HFS",
  "PercentPhaseFOV": 100,
  "PhaseEncodingDirection": "j-",
  "PhaseEncodingSteps": 88,
  "PhaseResolution": 1,
  "PixelBandwidth": 2185,
  "ProcedureStepDescription": "ASHENHAV_1222",
  "ProtocolName": "func-bold_task-RDMmotion_run-02",
  "PulseSequenceDetails": "%SiemensSeq%_ep2d_bold",
  "ReceiveCoilActiveElements": "HC1-7;NC1",
  "ReceiveCoilName": "HeadNeck_64",
  "ReconMatrixPE": 88,
  "RefLinesPE": 8,
  "RepetitionTime": 1.2,
  "SAR": 0.0470063,
  "ScanOptions": "FS",
  "ScanningSequence": "EP",
  "SequenceName": "_epfid2d1_88",
  "SequenceVariant": "SK",
  "SeriesDescription": "func-bold_task-RDMmotion_run-02",
  "SeriesNumber": 9,
  "ShimSetting": [1761, -9114, 4397, 535, -68, -271, 87, 24],
  "SliceThickness": 2.4,
  "SliceTiming": [0.55, 0, 0.63, 0.0775, 0.7075, 0.1575, 0.7875, 0.235, 0.865, 0.315, 0.945, 0.3925, 1.0225, 0.4725, 1.1, 0.55, 0, 0.63, 0.0775, 0.7075, 0.1575, 0.7875, 0.235, 0.865, 0.315, 0.945, 0.3925, 1.0225, 0.4725, 1.1, 0.55, 0, 0.63, 0.0775, 0.7075, 0.1575, 0.7875, 0.235, 0.865, 0.315, 0.945, 0.3925, 1.0225, 0.4725, 1.1, 0.55, 0, 0.63, 0.0775, 0.7075, 0.1575, 0.7875, 0.235, 0.865, 0.315, 0.945, 0.3925, 1.0225, 0.4725, 1.1],
  "SoftwareVersions": "syngo_MR_E11",
  "SpacingBetweenSlices": 2.4,
  "StationName": "AWP67050",
  "TaskName": "RDMmotion",
  "TotalReadoutTime": 0.0504612,
  "TxRefAmp": 215.534,
  "dcmmeta_affine": [
    [-2.3961081504821777, 0.05353832617402077, 0.07002954185009003, 104.16842651367188],
    [0.06101468205451965, 2.3820555210113525, 0.26705774664878845, -105.55689239501953],
    [0.0635485127568245, -0.268405020236969, 2.3840672969818115, -57.11881637573242],
    [0.0, 0.0, 0.0, 1.0]
],
  "dcmmeta_reorient_transform": [
    [0.0, -1.0, 0.0, 87.0],
    [1.0, 0.0, 0.0, 0.0],
    [0.0, 0.0, 1.0, 0.0],
    [0.0, 0.0, 0.0, 1.0]
],
  "dcmmeta_shape": [88, 88, 60, 125],
  "dcmmeta_slice_dim": 2,
  "dcmmeta_version": 0.6,
  "global": {
    "const": {
      "AcquisitionMatrix": [88, 0, 0, 88],
      "AngioFlag": "N",
      "BitsAllocated": 16,
      "BitsStored": 12,
      "BodyPartExamined": "BRAIN",
      "Columns": 704,
      "DeidentificationMethodCodeSequence": [
        {
          "CodeMeaning": "XNAT DicomEdit 6 Script",
          "CodeValue": "3",
          "CodingSchemeDesignator": "XNAT",
          "CodingSchemeVersion": "1.0"}
],
      "EchoNumbers": 1,
      "EchoTime": 33.0,
      "EchoTrainLength": 88,
      "FlipAngle": 62.0,
      "HighBit": 11,
      "ImageOrientationPatient": [0.99932477850747, -0.0254468824589, 0.02650364567594, 0.0223287801405, 0.99346391031029, 0.11194143329632],
      "ImagePositionPatient": [-863.31740502474, -816.56250183203, -182.71174319155],
      "ImageType": [
        "ORIGINAL",
        "PRIMARY",
        "M",
        "ND",
        "MOSAIC"
],
      "ImagedNucleus": "1H",
      "ImagingFrequency": 123.250623,
      "InPlanePhaseEncodingDirection": "COL",
      "MRAcquisitionType": "2D",
      "MagneticFieldStrength": 3.0,
      "Manufacturer": "SIEMENS",
      "ManufacturerModelName": "Prisma_fit",
      "Modality": "MR",
      "NumberOfAverages": 1.0,
      "NumberOfPhaseEncodingSteps": 88,
      "PercentPhaseFieldOfView": 100.0,
      "PercentSampling": 100.0,
      "PerformedProcedureStepStartTime": "162751.543000",
      "PhotometricInterpretation": "MONOCHROME2",
      "PixelBandwidth": 2185.0,
      "PixelRepresentation": 0,
      "PixelSpacing": [2.3977272510529, 2.3977272510529],
      "ProtocolName": "func-bold_task-RDMmotion_run-02",
      "RepetitionTime": 1200.0,
      "Rows": 704,
      "SAR": 0.047006266275,
      "SamplesPerPixel": 1,
      "ScanOptions": "FS",
      "ScanningSequence": "EP",
      "SequenceName": "*epfid2d1_88",
      "SequenceVariant": "SK",
      "SeriesDescription": "func-bold_task-RDMmotion_run-02",
      "SeriesNumber": 9,
      "SeriesTime": "165522.886000",
      "SliceLocation": -65.445837035707,
      "SliceThickness": 2.4000000953674,
      "SmallestImagePixelValue": 0,
      "SoftwareVersions": "syngo MR E11",
      "SpacingBetweenSlices": 2.4000000919008,
      "SpecificCharacterSet": "ISO_IR 100",
      "StudyID": "1",
      "StudyTime": "162751.463000",
      "TransmitCoilName": "Body",
      "VariableFlipAngleFlag": "N",
      "WindowCenterWidthExplanation": "Algo1",
      "dBdt": 0.0},
    "slices": {}
  },
  "time": {
    "samples": {
      "AcquisitionNumber": [1, 2, 3, 4, 5, 6, 7, 8, 9, 10, 11, 12, 13, 14, 15, 16, 17, 18, 19, 20, 21, 22, 23, 24, 25, 26, 27, 28, 29, 30, 31, 32, 33, 34, 35, 36, 37, 38, 39, 40, 41, 42, 43, 44, 45, 46, 47, 48, 49, 50, 51, 52, 53, 54, 55, 56, 57, 58, 59, 60, 61, 62, 63, 64, 65, 66, 67, 68, 69, 70, 71, 72, 73, 74, 75, 76, 77, 78, 79, 80, 81, 82, 83, 84, 85, 86, 87, 88, 89, 90, 91, 92, 93, 94, 95, 96, 97, 98, 99, 100, 101, 102, 103, 104, 105, 106, 107, 108, 109, 110, 111, 112, 113, 114, 115, 116, 117, 118, 119, 120, 121, 122, 123, 124, 125],
      "AcquisitionTime": ["165454.460000", "165455.660000", "165456.860000", "165458.060000", "165459.260000", "165500.460000", "165501.660000", "165502.860000", "165504.060000", "165505.260000", "165506.460000", "165507.660000", "165508.860000", "165510.060000", "165511.260000", "165512.460000", "165513.660000", "165514.860000", "165516.060000", "165517.260000", "165518.460000", "165519.660000", "165520.860000", "165522.060000", "165523.260000", "165524.460000", "165525.660000", "165526.860000", "165528.060000", "165529.260000", "165530.460000", "165531.660000", "165532.860000", "165534.060000", "165535.260000", "165536.460000", "165537.660000", "165538.860000", "165540.060000", "165541.260000", "165542.460000", "165543.660000", "165544.860000", "165546.060000", "165547.260000", "165548.460000", "165549.660000", "165550.860000", "165552.060000", "165553.260000", "165554.460000", "165555.660000", "165556.860000", "165558.060000", "165559.260000", "165600.460000", "165601.660000", "165602.860000", "165604.060000", "165605.260000", "165606.460000", "165607.660000", "165608.860000", "165610.060000", "165611.260000", "165612.460000", "165613.660000", "165614.860000", "165616.060000", "165617.260000", "165618.460000", "165619.660000", "165620.860000", "165622.060000", "165623.260000", "165624.460000", "165625.660000", "165626.860000", "165628.060000", "165629.260000", "165630.460000", "165631.660000", "165632.860000", "165634.060000", "165635.260000", "165636.460000", "165637.660000", "165638.860000", "165640.060000", "165641.260000", "165642.460000", "165643.660000", "165644.860000", "165646.060000", "165647.260000", "165648.460000", "165649.660000", "165650.860000", "165652.060000", "165653.260000", "165654.460000", "165655.660000", "165656.860000", "165658.060000", "165659.260000", "165700.460000", "165701.660000", "165702.860000", "165704.060000", "165705.260000", "165706.460000", "165707.660000", "165708.860000", "165710.060000", "165711.260000", "165712.460000", "165713.660000", "165714.860000", "165716.060000", "165717.260000", "165718.460000", "165719.660000", "165720.860000", "165722.060000", "165723.260000"],
      "ContentTime": ["165522.890000", "165522.893000", "165522.899000", "165522.901000", "165522.904000", "165522.911000", "165522.913000", "165522.916000", "165522.918000", "165522.921000", "165522.928000", "165522.930000", "165522.933000", "165522.940000", "165522.942000", "165522.945000", "165522.947000", "165522.950000", "165522.952000", "165522.955000", "165522.957000", "165522.960000", "165522.963000", "165602.885000", "165602.888000", "165602.891000", "165602.893000", "165602.896000", "165602.899000", "165602.901000", "165602.904000", "165602.906000", "165602.909000", "165602.911000", "165602.914000", "165602.916000", "165602.919000", "165602.922000", "165602.924000", "165602.927000", "165602.929000", "165602.932000", "165602.935000", "165602.937000", "165602.940000", "165602.942000", "165602.945000", "165602.948000", "165602.959000", "165602.961000", "165602.964000", "165602.966000", "165602.985000", "165602.988000", "165602.990000", "165602.993000", "165642.885000", "165642.888000", "165642.891000", "165642.893000", "165642.896000", "165642.898000", "165642.901000", "165642.904000", "165642.906000", "165642.909000", "165642.911000", "165642.914000", "165642.916000", "165642.919000", "165642.922000", "165642.924000", "165642.927000", "165642.929000", "165642.932000", "165642.934000", "165642.937000", "165642.939000", "165642.942000", "165642.945000", "165642.947000", "165642.950000", "165642.952000", "165642.955000", "165642.957000", "165642.960000", "165642.962000", "165642.965000", "165642.967000", "165642.970000", "165722.886000", "165722.888000", "165722.891000", "165722.893000", "165722.896000", "165722.899000", "165722.901000", "165722.904000", "165722.906000", "165722.920000", "165722.922000", "165722.925000", "165722.928000", "165722.930000", "165722.933000", "165722.936000", "165722.938000", "165722.941000", "165722.943000", "165722.946000", "165722.949000", "165722.951000", "165722.954000", "165722.956000", "165722.959000", "165722.962000", "165722.964000", "165722.967000", "165722.970000", "165722.973000", "165722.975000", "165722.978000", "165722.980000", "165724.588000", "165724.591000"],
      "InstanceCreationTime": ["165522.890000", "165522.893000", "165522.899000", "165522.901000", "165522.904000", "165522.911000", "165522.913000", "165522.916000", "165522.918000", "165522.921000", "165522.928000", "165522.930000", "165522.933000", "165522.940000", "165522.942000", "165522.945000", "165522.947000", "165522.950000", "165522.952000", "165522.955000", "165522.957000", "165522.960000", "165522.963000", "165602.885000", "165602.888000", "165602.891000", "165602.893000", "165602.896000", "165602.899000", "165602.901000", "165602.904000", "165602.906000", "165602.909000", "165602.911000", "165602.914000", "165602.916000", "165602.919000", "165602.922000", "165602.924000", "165602.927000", "165602.929000", "165602.932000", "165602.935000", "165602.937000", "165602.940000", "165602.942000", "165602.945000", "165602.948000", "165602.959000", "165602.961000", "165602.964000", "165602.966000", "165602.985000", "165602.988000", "165602.990000", "165602.993000", "165642.885000", "165642.888000", "165642.891000", "165642.893000", "165642.896000", "165642.898000", "165642.901000", "165642.904000", "165642.906000", "165642.909000", "165642.911000", "165642.914000", "165642.916000", "165642.919000", "165642.922000", "165642.924000", "165642.927000", "165642.929000", "165642.932000", "165642.934000", "165642.937000", "165642.939000", "165642.942000", "165642.945000", "165642.947000", "165642.950000", "165642.952000", "165642.955000", "165642.957000", "165642.960000", "165642.962000", "165642.965000", "165642.967000", "165642.970000", "165722.886000", "165722.888000", "165722.891000", "165722.893000", "165722.896000", "165722.899000", "165722.901000", "165722.904000", "165722.906000", "165722.920000", "165722.922000", "165722.925000", "165722.928000", "165722.930000", "165722.933000", "165722.936000", "165722.938000", "165722.941000", "165722.943000", "165722.946000", "165722.949000", "165722.951000", "165722.954000", "165722.956000", "165722.959000", "165722.962000", "165722.964000", "165722.967000", "165722.970000", "165722.973000", "165722.975000", "165722.978000", "165722.980000", "165724.588000", "165724.591000"],
      "InstanceNumber": [1, 2, 3, 4, 5, 6, 7, 8, 9, 10, 11, 12, 13, 14, 15, 16, 17, 18, 19, 20, 21, 22, 23, 24, 25, 26, 27, 28, 29, 30, 31, 32, 33, 34, 35, 36, 37, 38, 39, 40, 41, 42, 43, 44, 45, 46, 47, 48, 49, 50, 51, 52, 53, 54, 55, 56, 57, 58, 59, 60, 61, 62, 63, 64, 65, 66, 67, 68, 69, 70, 71, 72, 73, 74, 75, 76, 77, 78, 79, 80, 81, 82, 83, 84, 85, 86, 87, 88, 89, 90, 91, 92, 93, 94, 95, 96, 97, 98, 99, 100, 101, 102, 103, 104, 105, 106, 107, 108, 109, 110, 111, 112, 113, 114, 115, 116, 117, 118, 119, 120, 121, 122, 123, 124, 125],
      "LargestImagePixelValue": [1693, 1798, 1657, 1819, 1572, 1798, 1931, 1553, 1789, 1555, 1893, 1549, 1796, 1821, 1780, 1593, 1820, 1867, 1829, 1939, 1535, 1837, 1554, 1642, 1769, 1828, 1553, 1818, 1644, 1561, 1733, 1541, 1688, 1809, 1616, 1778, 1555, 1720, 1550, 1672, 1743, 1556, 1684, 1543, 1691, 1706, 1722, 1629, 1566, 1707, 1607, 1788, 1819, 1763, 1670, 1561, 1747, 1562, 1754, 1580, 1689, 1654, 1551, 1771, 1542, 1662, 1625, 1661, 1807, 1636, 1630, 1571, 1714, 1541, 1721, 1581, 1669, 1766, 1755, 1651, 1701, 1609, 1578, 1712, 1619, 1784, 1710, 1867, 1732, 1832, 1673, 1573, 1715, 1580, 1692, 1730, 1825, 1546, 1660, 1598, 1697, 1674, 1588, 1735, 1567, 1798, 1557, 1820, 1885, 1693, 1839, 1550, 1767, 1553, 1687, 1728, 1773, 1541, 1577, 1585, 1570, 1566, 1577, 1558, 1567],
      "WindowCenter": [547.0, 546.0, 544.0, 546.0, 542.0, 545.0, 547.0, 541.0, 546.0, 542.0, 547.0, 542.0, 545.0, 545.0, 545.0, 542.0, 545.0, 545.0, 545.0, 547.0, 540.0, 545.0, 542.0, 543.0, 545.0, 544.0, 540.0, 544.0, 542.0, 540.0, 544.0, 541.0, 543.0, 544.0, 542.0, 544.0, 540.0, 542.0, 540.0, 542.0, 542.0, 540.0, 542.0, 539.0, 542.0, 542.0, 543.0, 542.0, 541.0, 543.0, 542.0, 544.0, 546.0, 544.0, 543.0, 541.0, 543.0, 540.0, 543.0, 541.0, 543.0, 542.0, 540.0, 543.0, 540.0, 542.0, 541.0, 542.0, 544.0, 541.0, 541.0, 541.0, 543.0, 540.0, 544.0, 541.0, 542.0, 544.0, 544.0, 542.0, 543.0, 542.0, 541.0, 543.0, 542.0, 545.0, 544.0, 546.0, 544.0, 545.0, 542.0, 541.0, 544.0, 542.0, 544.0, 545.0, 545.0, 541.0, 542.0, 540.0, 542.0, 542.0, 541.0, 544.0, 541.0, 544.0, 541.0, 545.0, 547.0, 543.0, 545.0, 541.0, 544.0, 541.0, 543.0, 545.0, 545.0, 539.0, 539.0, 539.0, 539.0, 537.0, 538.0, 537.0, 536.0],
      "WindowWidth": [1157.0, 1156.0, 1151.0, 1154.0, 1147.0, 1151.0, 1154.0, 1146.0, 1154.0, 1148.0, 1155.0, 1147.0, 1152.0, 1153.0, 1152.0, 1147.0, 1153.0, 1152.0, 1152.0, 1155.0, 1144.0, 1151.0, 1148.0, 1150.0, 1152.0, 1150.0, 1142.0, 1149.0, 1147.0, 1144.0, 1149.0, 1145.0, 1148.0, 1151.0, 1146.0, 1150.0, 1144.0, 1147.0, 1142.0, 1145.0, 1147.0, 1142.0, 1147.0, 1142.0, 1147.0, 1147.0, 1148.0, 1146.0, 1145.0, 1148.0, 1146.0, 1151.0, 1153.0, 1151.0, 1149.0, 1145.0, 1149.0, 1143.0, 1149.0, 1146.0, 1148.0, 1148.0, 1143.0, 1149.0, 1143.0, 1146.0, 1145.0, 1146.0, 1149.0, 1145.0, 1145.0, 1144.0, 1147.0, 1144.0, 1149.0, 1146.0, 1148.0, 1149.0, 1150.0, 1148.0, 1149.0, 1147.0, 1146.0, 1149.0, 1147.0, 1152.0, 1151.0, 1154.0, 1150.0, 1152.0, 1147.0, 1145.0, 1150.0, 1146.0, 1150.0, 1152.0, 1153.0, 1146.0, 1146.0, 1144.0, 1146.0, 1147.0, 1145.0, 1149.0, 1145.0, 1151.0, 1146.0, 1153.0, 1155.0, 1149.0, 1152.0, 1146.0, 1150.0, 1145.0, 1149.0, 1152.0, 1152.0, 1142.0, 1141.0, 1141.0, 1141.0, 1138.0, 1138.0, 1136.0, 1135.0]
    },
    "slices": {}
  }
}