{
  "AcquisitionMatrixPE": 88,
  "AcquisitionNumber": 1,
  "AcquisitionTime": "17:22:9.852500",
  "BandwidthPerPixelPhaseEncode": 19.592,
  "BaseResolution": 88,
  "BodyPartExamined": "BRAIN",
  "ConsistencyInfo": "N4_VE11C_LATEST_20160120",
  "ConversionSoftware": "dcm2niix",
  "ConversionSoftwareVersion": "v1.0.20190902",
  "DerivedVendorReportedEchoSpacing": 0.000580014,
  "DeviceSerialNumber": "67050",
  "DwellTime": 2.6e-06,
  "EchoTime": 0.033,
  "EchoTrainLength": 88,
  "EffectiveEchoSpacing": 0.000580014,
  "FlipAngle": 62,
  "ImageOrientationPatientDICOM": [0.999325, -0.0254469, 0.0265036, 0.0223288, 0.993464, 0.111941],
  "ImageType": [
    "ORIGINAL",
    "PRIMARY",
    "M",
    "ND",
    "MOSAIC"
],
  "ImagingFrequency": 123.251,
  "InPlanePhaseEncodingDirectionDICOM": "COL",
  "InstitutionAddress": "Olive_Street_60_Providence_RI_US_02912",
  "InstitutionName": "BROWN_UNIVERSITY_MRF",
  "InstitutionalDepartmentName": "Department",
  "MRAcquisitionType": "2D",
  "MagneticFieldStrength": 3,
  "Manufacturer": "Siemens",
  "ManufacturersModelName": "Prisma_fit",
  "Modality": "MR",
  "MultibandAccelerationFactor": 4,
  "PartialFourier": 1,
  "PatientPosition": "HFS",
  "PercentPhaseFOV": 100,
  "PhaseEncodingDirection": "j-",
  "PhaseEncodingSteps": 88,
  "PhaseResolution": 1,
  "PixelBandwidth": 2185,
  "ProcedureStepDescription": "ASHENHAV_1222",
  "ProtocolName": "func-bold_task-RDMcolor_run-04",
  "PulseSequenceDetails": "%SiemensSeq%_ep2d_bold",
  "ReceiveCoilActiveElements": "HC1-7;NC1",
  "ReceiveCoilName": "HeadNeck_64",
  "ReconMatrixPE": 88,
  "RefLinesPE": 8,
  "RepetitionTime": 1.2,
  "SAR": 0.0474883,
  "ScanOptions": "FS",
  "ScanningSequence": "EP",
  "SequenceName": "_epfid2d1_88",
  "SequenceVariant": "SK",
  "SeriesDescription": "func-bold_task-RDMcolor_run-04",
  "SeriesNumber": 14,
  "ShimSetting": [1761, -9114, 4397, 535, -68, -271, 87, 24],
  "SliceThickness": 2.4,
  "SliceTiming": [0.55, 0, 0.6275, 0.0775, 0.7075, 0.155, 0.785, 0.235, 0.865, 0.3125, 0.9425, 0.3925, 1.0225, 0.47, 1.1, 0.55, 0, 0.6275, 0.0775, 0.7075, 0.155, 0.785, 0.235, 0.865, 0.3125, 0.9425, 0.3925, 1.0225, 0.47, 1.1, 0.55, 0, 0.6275, 0.0775, 0.7075, 0.155, 0.785, 0.235, 0.865, 0.3125, 0.9425, 0.3925, 1.0225, 0.47, 1.1, 0.55, 0, 0.6275, 0.0775, 0.7075, 0.155, 0.785, 0.235, 0.865, 0.3125, 0.9425, 0.3925, 1.0225, 0.47, 1.1],
  "SoftwareVersions": "syngo_MR_E11",
  "SpacingBetweenSlices": 2.4,
  "StationName": "AWP67050",
  "TaskName": "RDMcolor",
  "TotalReadoutTime": 0.0504612,
  "TxRefAmp": 215.534,
  "dcmmeta_affine": [
    [-2.3961081504821777, 0.05353832617402077, 0.07002954185009003, 104.16842651367188],
    [0.06101468205451965, 2.3820555210113525, 0.26705774664878845, -105.55689239501953],
    [0.0635485127568245, -0.268405020236969, 2.3840672969818115, -57.11881637573242],
    [0.0, 0.0, 0.0, 1.0]
],
  "dcmmeta_reorient_transform": [
    [0.0, -1.0, 0.0, 87.0],
    [1.0, 0.0, 0.0, 0.0],
    [0.0, 0.0, 1.0, 0.0],
    [0.0, 0.0, 0.0, 1.0]
],
  "dcmmeta_shape": [88, 88, 60, 392],
  "dcmmeta_slice_dim": 2,
  "dcmmeta_version": 0.6,
  "global": {
    "const": {
      "AcquisitionMatrix": [88, 0, 0, 88],
      "AngioFlag": "N",
      "BitsAllocated": 16,
      "BitsStored": 12,
      "BodyPartExamined": "BRAIN",
      "Columns": 704,
      "DeidentificationMethodCodeSequence": [
        {
          "CodeMeaning": "XNAT DicomEdit 6 Script",
          "CodeValue": "3",
          "CodingSchemeDesignator": "XNAT",
          "CodingSchemeVersion": "1.0"}
],
      "EchoNumbers": 1,
      "EchoTime": 33.0,
      "EchoTrainLength": 88,
      "FlipAngle": 62.0,
      "HighBit": 11,
      "ImageOrientationPatient": [0.99932477850747, -0.0254468824589, 0.02650364567594, 0.0223287801405, 0.99346391031029, 0.11194143329632],
      "ImagePositionPatient": [-863.31740502474, -816.56250183203, -182.71174319155],
      "ImageType": [
        "ORIGINAL",
        "PRIMARY",
        "M",
        "ND",
        "MOSAIC"
],
      "ImagedNucleus": "1H",
      "ImagingFrequency": 123.250629,
      "InPlanePhaseEncodingDirection": "COL",
      "MRAcquisitionType": "2D",
      "MagneticFieldStrength": 3.0,
      "Manufacturer": "SIEMENS",
      "ManufacturerModelName": "Prisma_fit",
      "Modality": "MR",
      "NumberOfAverages": 1.0,
      "NumberOfPhaseEncodingSteps": 88,
      "PercentPhaseFieldOfView": 100.0,
      "PercentSampling": 100.0,
      "PerformedProcedureStepStartTime": "162751.543000",
      "PhotometricInterpretation": "MONOCHROME2",
      "PixelBandwidth": 2185.0,
      "PixelRepresentation": 0,
      "PixelSpacing": [2.3977272510529, 2.3977272510529],
      "ProtocolName": "func-bold_task-RDMcolor_run-04",
      "RepetitionTime": 1200.0,
      "Rows": 704,
      "SAR": 0.0474882890813,
      "SamplesPerPixel": 1,
      "ScanOptions": "FS",
      "ScanningSequence": "EP",
      "SequenceName": "*epfid2d1_88",
      "SequenceVariant": "SK",
      "SeriesDescription": "func-bold_task-RDMcolor_run-04",
      "SeriesNumber": 14,
      "SeriesTime": "172243.876000",
      "SliceLocation": -65.445837035707,
      "SliceThickness": 2.4000000953674,
      "SmallestImagePixelValue": 0,
      "SoftwareVersions": "syngo MR E11",
      "SpacingBetweenSlices": 2.4000000919008,
      "SpecificCharacterSet": "ISO_IR 100",
      "StudyID": "1",
      "StudyTime": "162751.463000",
      "TransmitCoilName": "Body",
      "VariableFlipAngleFlag": "N",
      "WindowCenterWidthExplanation": "Algo1",
      "dBdt": 0.0},
    "slices": {}
  },
  "time": {
    "samples": {
      "AcquisitionNumber": [1, 2, 3, 4, 5, 6, 7, 8, 9, 10, 11, 12, 13, 14, 15, 16, 17, 18, 19, 20, 21, 22, 23, 24, 25, 26, 27, 28, 29, 30, 31, 32, 33, 34, 35, 36, 37, 38, 39, 40, 41, 42, 43, 44, 45, 46, 47, 48, 49, 50, 51, 52, 53, 54, 55, 56, 57, 58, 59, 60, 61, 62, 63, 64, 65, 66, 67, 68, 69, 70, 71, 72, 73, 74, 75, 76, 77, 78, 79, 80, 81, 82, 83, 84, 85, 86, 87, 88, 89, 90, 91, 92, 93, 94, 95, 96, 97, 98, 99, 100, 101, 102, 103, 104, 105, 106, 107, 108, 109, 110, 111, 112, 113, 114, 115, 116, 117, 118, 119, 120, 121, 122, 123, 124, 125, 126, 127, 128, 129, 130, 131, 132, 133, 134, 135, 136, 137, 138, 139, 140, 141, 142, 143, 144, 145, 146, 147, 148, 149, 150, 151, 152, 153, 154, 155, 156, 157, 158, 159, 160, 161, 162, 163, 164, 165, 166, 167, 168, 169, 170, 171, 172, 173, 174, 175, 176, 177, 178, 179, 180, 181, 182, 183, 184, 185, 186, 187, 188, 189, 190, 191, 192, 193, 194, 195, 196, 197, 198, 199, 200, 201, 202, 203, 204, 205, 206, 207, 208, 209, 210, 211, 212, 213, 214, 215, 216, 217, 218, 219, 220, 221, 222, 223, 224, 225, 226, 227, 228, 229, 230, 231, 232, 233, 234, 235, 236, 237, 238, 239, 240, 241, 242, 243, 244, 245, 246, 247, 248, 249, 250, 251, 252, 253, 254, 255, 256, 257, 258, 259, 260, 261, 262, 263, 264, 265, 266, 267, 268, 269, 270, 271, 272, 273, 274, 275, 276, 277, 278, 279, 280, 281, 282, 283, 284, 285, 286, 287, 288, 289, 290, 291, 292, 293, 294, 295, 296, 297, 298, 299, 300, 301, 302, 303, 304, 305, 306, 307, 308, 309, 310, 311, 312, 313, 314, 315, 316, 317, 318, 319, 320, 321, 322, 323, 324, 325, 326, 327, 328, 329, 330, 331, 332, 333, 334, 335, 336, 337, 338, 339, 340, 341, 342, 343, 344, 345, 346, 347, 348, 349, 350, 351, 352, 353, 354, 355, 356, 357, 358, 359, 360, 361, 362, 363, 364, 365, 366, 367, 368, 369, 370, 371, 372, 373, 374, 375, 376, 377, 378, 379, 380, 381, 382, 383, 384, 385, 386, 387, 388, 389, 390, 391, 392],
      "AcquisitionTime": ["172209.852500", "172211.052500", "172212.252500", "172213.452500", "172214.652500", "172215.852500", "172217.052500", "172218.252500", "172219.452500", "172220.652500", "172221.852500", "172223.052500", "172224.252500", "172225.452500", "172226.652500", "172227.852500", "172229.052500", "172230.252500", "172231.452500", "172232.652500", "172233.852500", "172235.052500", "172236.252500", "172237.452500", "172238.652500", "172239.852500", "172241.052500", "172242.252500", "172243.452500", "172244.652500", "172245.852500", "172247.052500", "172248.252500", "172249.452500", "172250.652500", "172251.852500", "172253.052500", "172254.252500", "172255.452500", "172256.652500", "172257.852500", "172259.052500", "172300.252500", "172301.452500", "172302.652500", "172303.852500", "172305.052500", "172306.252500", "172307.452500", "172308.652500", "172309.852500", "172311.052500", "172312.252500", "172313.452500", "172314.652500", "172315.852500", "172317.052500", "172318.252500", "172319.452500", "172320.652500", "172321.852500", "172323.052500", "172324.252500", "172325.452500", "172326.652500", "172327.852500", "172329.052500", "172330.252500", "172331.452500", "172332.652500", "172333.852500", "172335.052500", "172336.252500", "172337.452500", "172338.652500", "172339.852500", "172341.052500", "172342.252500", "172343.452500", "172344.652500", "172345.852500", "172347.052500", "172348.252500", "172349.452500", "172350.652500", "172351.852500", "172353.052500", "172354.252500", "172355.452500", "172356.652500", "172357.852500", "172359.052500", "172400.252500", "172401.452500", "172402.652500", "172403.852500", "172405.052500", "172406.252500", "172407.452500", "172408.652500", "172409.852500", "172411.052500", "172412.252500", "172413.452500", "172414.652500", "172415.852500", "172417.052500", "172418.252500", "172419.452500", "172420.652500", "172421.852500", "172423.052500", "172424.252500", "172425.452500", "172426.652500", "172427.852500", "172429.052500", "172430.252500", "172431.452500", "172432.652500", "172433.852500", "172435.052500", "172436.252500", "172437.452500", "172438.652500", "172439.852500", "172441.052500", "172442.252500", "172443.452500", "172444.652500", "172445.852500", "172447.052500", "172448.252500", "172449.452500", "172450.652500", "172451.852500", "172453.052500", "172454.252500", "172455.452500", "172456.652500", "172457.852500", "172459.052500", "172500.252500", "172501.452500", "172502.652500", "172503.852500", "172505.052500", "172506.252500", "172507.452500", "172508.652500", "172509.852500", "172511.052500", "172512.252500", "172513.452500", "172514.652500", "172515.852500", "172517.052500", "172518.252500", "172519.452500", "172520.652500", "172521.852500", "172523.052500", "172524.252500", "172525.452500", "172526.652500", "172527.852500", "172529.052500", "172530.252500", "172531.452500", "172532.652500", "172533.852500", "172535.052500", "172536.252500", "172537.452500", "172538.652500", "172539.852500", "172541.052500", "172542.252500", "172543.452500", "172544.652500", "172545.852500", "172547.052500", "172548.252500", "172549.452500", "172550.652500", "172551.852500", "172553.052500", "172554.252500", "172555.452500", "172556.652500", "172557.852500", "172559.052500", "172600.252500", "172601.452500", "172602.652500", "172603.852500", "172605.052500", "172606.252500", "172607.452500", "172608.652500", "172609.852500", "172611.052500", "172612.252500", "172613.452500", "172614.652500", "172615.852500", "172617.052500", "172618.252500", "172619.452500", "172620.652500", "172621.852500", "172623.052500", "172624.252500", "172625.452500", "172626.652500", "172627.852500", "172629.052500", "172630.252500", "172631.452500", "172632.652500", "172633.852500", "172635.052500", "172636.252500", "172637.452500", "172638.652500", "172639.852500", "172641.052500", "172642.252500", "172643.452500", "172644.652500", "172645.852500", "172647.052500", "172648.252500", "172649.452500", "172650.652500", "172651.852500", "172653.052500", "172654.252500", "172655.452500", "172656.652500", "172657.852500", "172659.052500", "172700.252500", "172701.452500", "172702.652500", "172703.852500", "172705.052500", "172706.252500", "172707.452500", "172708.652500", "172709.852500", "172711.052500", "172712.252500", "172713.452500", "172714.652500", "172715.852500", "172717.052500", "172718.252500", "172719.452500", "172720.652500", "172721.852500", "172723.052500", "172724.252500", "172725.452500", "172726.652500", "172727.852500", "172729.052500", "172730.252500", "172731.452500", "172732.652500", "172733.852500", "172735.052500", "172736.252500", "172737.452500", "172738.652500", "172739.852500", "172741.052500", "172742.252500", "172743.452500", "172744.652500", "172745.852500", "172747.052500", "172748.252500", "172749.452500", "172750.652500", "172751.852500", "172753.052500", "172754.252500", "172755.452500", "172756.652500", "172757.852500", "172759.052500", "172800.252500", "172801.452500", "172802.652500", "172803.852500", "172805.052500", "172806.252500", "172807.452500", "172808.652500", "172809.852500", "172811.052500", "172812.252500", "172813.452500", "172814.652500", "172815.852500", "172817.052500", "172818.252500", "172819.452500", "172820.652500", "172821.852500", "172823.052500", "172824.252500", "172825.452500", "172826.652500", "172827.852500", "172829.052500", "172830.252500", "172831.452500", "172832.652500", "172833.852500", "172835.052500", "172836.252500", "172837.452500", "172838.652500", "172839.852500", "172841.052500", "172842.252500", "172843.452500", "172844.652500", "172845.852500", "172847.052500", "172848.252500", "172849.452500", "172850.652500", "172851.852500", "172853.052500", "172854.252500", "172855.452500", "172856.652500", "172857.852500", "172859.052500", "172900.252500", "172901.452500", "172902.652500", "172903.852500", "172905.052500", "172906.252500", "172907.452500", "172908.652500", "172909.852500", "172911.052500", "172912.252500", "172913.452500", "172914.652500", "172915.852500", "172917.052500", "172918.252500", "172919.452500", "172920.652500", "172921.852500", "172923.052500", "172924.252500", "172925.452500", "172926.652500", "172927.852500", "172929.052500", "172930.252500", "172931.452500", "172932.652500", "172933.852500", "172935.052500", "172936.252500", "172937.452500", "172938.652500", "172939.852500", "172941.052500", "172942.252500", "172943.452500", "172944.652500", "172945.852500", "172947.052500", "172948.252500", "172949.452500", "172950.652500", "172951.852500", "172953.052500", "172954.252500", "172955.452500", "172956.652500", "172957.852500", "172959.052500"],
      "ContentTime": ["172243.879000", "172243.882000", "172243.885000", "172243.887000", "172243.890000", "172243.893000", "172243.895000", "172243.898000", "172243.900000", "172243.903000", "172243.905000", "172243.908000", "172243.910000", "172243.913000", "172243.915000", "172243.918000", "172243.920000", "172243.923000", "172243.932000", "172243.935000", "172243.937000", "172243.940000", "172243.942000", "172243.945000", "172243.947000", "172243.950000", "172243.952000", "172243.955000", "172323.873000", "172323.876000", "172323.879000", "172323.881000", "172323.884000", "172323.886000", "172323.889000", "172323.891000", "172323.894000", "172323.897000", "172323.899000", "172323.917000", "172323.919000", "172323.922000", "172323.924000", "172323.936000", "172323.939000", "172323.942000", "172323.944000", "172323.947000", "172323.949000", "172323.952000", "172323.954000", "172323.957000", "172323.960000", "172323.962000", "172323.965000", "172323.967000", "172323.970000", "172323.972000", "172323.975000", "172323.977000", "172323.980000", "172403.874000", "172403.876000", "172403.879000", "172403.881000", "172403.884000", "172403.887000", "172403.889000", "172403.892000", "172403.894000", "172403.897000", "172403.900000", "172403.902000", "172403.905000", "172403.907000", "172403.910000", "172403.912000", "172403.915000", "172403.918000", "172403.920000", "172403.923000", "172403.925000", "172403.928000", "172403.930000", "172403.933000", "172403.936000", "172403.938000", "172403.941000", "172403.943000", "172403.946000", "172403.948000", "172403.951000", "172403.953000", "172403.956000", "172443.874000", "172443.877000", "172443.880000", "172443.882000", "172443.885000", "172443.887000", "172443.890000", "172443.893000", "172443.895000", "172443.898000", "172443.900000", "172443.903000", "172443.905000", "172443.908000", "172443.911000", "172443.913000", "172443.916000", "172443.918000", "172443.921000", "172443.923000", "172443.926000", "172443.928000", "172443.931000", "172443.934000", "172443.936000", "172443.939000", "172443.941000", "172443.944000", "172443.946000", "172443.949000", "172443.951000", "172443.954000", "172443.956000", "172443.959000", "172523.874000", "172523.876000", "172523.879000", "172523.881000", "172523.884000", "172523.887000", "172523.889000", "172523.892000", "172523.894000", "172523.897000", "172523.899000", "172523.902000", "172523.904000", "172523.907000", "172523.909000", "172523.912000", "172523.914000", "172523.917000", "172523.919000", "172523.922000", "172523.925000", "172523.927000", "172523.930000", "172523.932000", "172523.935000", "172523.937000", "172523.940000", "172523.943000", "172523.945000", "172523.948000", "172523.950000", "172523.953000", "172523.955000", "172603.873000", "172603.876000", "172603.879000", "172603.881000", "172603.884000", "172603.887000", "172603.889000", "172603.892000", "172603.894000", "172603.897000", "172603.900000", "172603.903000", "172603.905000", "172603.908000", "172603.910000", "172603.913000", "172603.916000", "172603.918000", "172603.921000", "172603.923000", "172603.926000", "172603.929000", "172603.931000", "172603.934000", "172603.936000", "172603.939000", "172603.942000", "172603.944000", "172603.947000", "172603.949000", "172603.952000", "172603.955000", "172603.957000", "172643.874000", "172643.877000", "172643.880000", "172643.882000", "172643.885000", "172643.887000", "172643.890000", "172643.892000", "172643.900000", "172643.902000", "172643.905000", "172643.907000", "172643.910000", "172643.913000", "172643.915000", "172643.918000", "172643.920000", "172643.923000", "172643.925000", "172643.928000", "172643.931000", "172643.933000", "172643.936000", "172643.938000", "172643.941000", "172643.943000", "172643.946000", "172643.948000", "172643.951000", "172643.954000", "172643.956000", "172643.959000", "172643.961000", "172643.964000", "172723.875000", "172723.878000", "172723.880000", "172723.883000", "172723.885000", "172723.888000", "172723.891000", "172723.893000", "172723.896000", "172723.902000", "172723.905000", "172723.907000", "172723.910000", "172723.912000", "172723.915000", "172723.918000", "172723.920000", "172723.923000", "172723.925000", "172723.928000", "172723.930000", "172723.948000", "172723.950000", "172723.953000", "172723.955000", "172723.958000", "172723.960000", "172723.963000", "172723.965000", "172723.968000", "172723.970000", "172723.973000", "172723.975000", "172803.874000", "172803.877000", "172803.879000", "172803.882000", "172803.884000", "172803.887000", "172803.890000", "172803.892000", "172803.895000", "172803.898000", "172803.900000", "172803.903000", "172803.906000", "172803.908000", "172803.911000", "172803.913000", "172803.916000", "172803.919000", "172803.921000", "172803.924000", "172803.926000", "172803.929000", "172803.931000", "172803.934000", "172803.937000", "172803.939000", "172803.942000", "172803.944000", "172803.947000", "172803.950000", "172803.952000", "172803.955000", "172803.957000", "172843.873000", "172843.876000", "172843.879000", "172843.882000", "172843.884000", "172843.887000", "172843.889000", "172843.892000", "172843.895000", "172843.897000", "172843.900000", "172843.902000", "172843.905000", "172843.908000", "172843.910000", "172843.913000", "172843.915000", "172843.918000", "172843.921000", "172843.923000", "172843.926000", "172843.929000", "172843.931000", "172843.934000", "172843.936000", "172843.939000", "172843.947000", "172843.949000", "172843.952000", "172843.955000", "172843.957000", "172843.960000", "172843.962000", "172843.965000", "172923.875000", "172923.877000", "172923.880000", "172923.882000", "172923.885000", "172923.888000", "172923.890000", "172923.893000", "172923.895000", "172923.898000", "172923.901000", "172923.903000", "172923.906000", "172923.908000", "172923.911000", "172923.913000", "172923.916000", "172923.919000", "172923.922000", "172923.924000", "172923.927000", "172923.929000", "172923.932000", "172923.934000", "172923.937000", "172923.940000", "172923.943000", "172923.945000", "172923.948000", "172923.950000", "172923.953000", "172923.955000", "172923.958000", "173000.690000", "173000.693000", "173000.695000", "173000.698000", "173000.701000", "173000.703000", "173000.706000", "173000.709000", "173000.711000", "173000.714000", "173000.717000", "173000.719000", "173000.722000", "173000.724000", "173000.727000", "173000.730000", "173000.732000", "173000.735000", "173000.737000", "173000.740000", "173000.743000", "173000.745000", "173000.748000", "173000.751000", "173000.753000", "173000.756000", "173000.758000", "173000.761000", "173000.764000", "173000.766000", "173000.769000"],
      "InstanceCreationTime": ["172243.879000", "172243.882000", "172243.885000", "172243.887000", "172243.890000", "172243.893000", "172243.895000", "172243.898000", "172243.900000", "172243.903000", "172243.905000", "172243.908000", "172243.910000", "172243.913000", "172243.915000", "172243.918000", "172243.920000", "172243.923000", "172243.932000", "172243.935000", "172243.937000", "172243.940000", "172243.942000", "172243.945000", "172243.947000", "172243.950000", "172243.952000", "172243.955000", "172323.873000", "172323.876000", "172323.879000", "172323.881000", "172323.884000", "172323.886000", "172323.889000", "172323.891000", "172323.894000", "172323.897000", "172323.899000", "172323.917000", "172323.919000", "172323.922000", "172323.924000", "172323.936000", "172323.939000", "172323.942000", "172323.944000", "172323.947000", "172323.949000", "172323.952000", "172323.954000", "172323.957000", "172323.960000", "172323.962000", "172323.965000", "172323.967000", "172323.970000", "172323.972000", "172323.975000", "172323.977000", "172323.980000", "172403.874000", "172403.876000", "172403.879000", "172403.881000", "172403.884000", "172403.887000", "172403.889000", "172403.892000", "172403.894000", "172403.897000", "172403.900000", "172403.902000", "172403.905000", "172403.907000", "172403.910000", "172403.912000", "172403.915000", "172403.918000", "172403.920000", "172403.923000", "172403.925000", "172403.928000", "172403.930000", "172403.933000", "172403.936000", "172403.938000", "172403.941000", "172403.943000", "172403.946000", "172403.948000", "172403.951000", "172403.953000", "172403.956000", "172443.874000", "172443.877000", "172443.880000", "172443.882000", "172443.885000", "172443.887000", "172443.890000", "172443.893000", "172443.895000", "172443.898000", "172443.900000", "172443.903000", "172443.905000", "172443.908000", "172443.911000", "172443.913000", "172443.916000", "172443.918000", "172443.921000", "172443.923000", "172443.926000", "172443.928000", "172443.931000", "172443.934000", "172443.936000", "172443.939000", "172443.941000", "172443.944000", "172443.946000", "172443.949000", "172443.951000", "172443.954000", "172443.956000", "172443.959000", "172523.874000", "172523.876000", "172523.879000", "172523.881000", "172523.884000", "172523.887000", "172523.889000", "172523.892000", "172523.894000", "172523.897000", "172523.899000", "172523.902000", "172523.904000", "172523.907000", "172523.909000", "172523.912000", "172523.914000", "172523.917000", "172523.919000", "172523.922000", "172523.925000", "172523.927000", "172523.930000", "172523.932000", "172523.935000", "172523.937000", "172523.940000", "172523.943000", "172523.945000", "172523.948000", "172523.950000", "172523.953000", "172523.955000", "172603.873000", "172603.876000", "172603.879000", "172603.881000", "172603.884000", "172603.887000", "172603.889000", "172603.892000", "172603.894000", "172603.897000", "172603.900000", "172603.903000", "172603.905000", "172603.908000", "172603.910000", "172603.913000", "172603.916000", "172603.918000", "172603.921000", "172603.923000", "172603.926000", "172603.929000", "172603.931000", "172603.934000", "172603.936000", "172603.939000", "172603.942000", "172603.944000", "172603.947000", "172603.949000", "172603.952000", "172603.955000", "172603.957000", "172643.874000", "172643.877000", "172643.880000", "172643.882000", "172643.885000", "172643.887000", "172643.890000", "172643.892000", "172643.900000", "172643.902000", "172643.905000", "172643.907000", "172643.910000", "172643.913000", "172643.915000", "172643.918000", "172643.920000", "172643.923000", "172643.925000", "172643.928000", "172643.931000", "172643.933000", "172643.936000", "172643.938000", "172643.941000", "172643.943000", "172643.946000", "172643.948000", "172643.951000", "172643.954000", "172643.956000", "172643.959000", "172643.961000", "172643.964000", "172723.875000", "172723.878000", "172723.880000", "172723.883000", "172723.885000", "172723.888000", "172723.891000", "172723.893000", "172723.896000", "172723.902000", "172723.905000", "172723.907000", "172723.910000", "172723.912000", "172723.915000", "172723.918000", "172723.920000", "172723.923000", "172723.925000", "172723.928000", "172723.930000", "172723.948000", "172723.950000", "172723.953000", "172723.955000", "172723.958000", "172723.960000", "172723.963000", "172723.965000", "172723.968000", "172723.970000", "172723.973000", "172723.975000", "172803.874000", "172803.877000", "172803.879000", "172803.882000", "172803.884000", "172803.887000", "172803.890000", "172803.892000", "172803.895000", "172803.898000", "172803.900000", "172803.903000", "172803.906000", "172803.908000", "172803.911000", "172803.913000", "172803.916000", "172803.919000", "172803.921000", "172803.924000", "172803.926000", "172803.929000", "172803.931000", "172803.934000", "172803.937000", "172803.939000", "172803.942000", "172803.944000", "172803.947000", "172803.950000", "172803.952000", "172803.955000", "172803.957000", "172843.873000", "172843.876000", "172843.879000", "172843.882000", "172843.884000", "172843.887000", "172843.889000", "172843.892000", "172843.895000", "172843.897000", "172843.900000", "172843.902000", "172843.905000", "172843.908000", "172843.910000", "172843.913000", "172843.915000", "172843.918000", "172843.921000", "172843.923000", "172843.926000", "172843.929000", "172843.931000", "172843.934000", "172843.936000", "172843.939000", "172843.947000", "172843.949000", "172843.952000", "172843.955000", "172843.957000", "172843.960000", "172843.962000", "172843.965000", "172923.875000", "172923.877000", "172923.880000", "172923.882000", "172923.885000", "172923.888000", "172923.890000", "172923.893000", "172923.895000", "172923.898000", "172923.901000", "172923.903000", "172923.906000", "172923.908000", "172923.911000", "172923.913000", "172923.916000", "172923.919000", "172923.922000", "172923.924000", "172923.927000", "172923.929000", "172923.932000", "172923.934000", "172923.937000", "172923.940000", "172923.943000", "172923.945000", "172923.948000", "172923.950000", "172923.953000", "172923.955000", "172923.958000", "173000.690000", "173000.693000", "173000.695000", "173000.698000", "173000.701000", "173000.703000", "173000.706000", "173000.709000", "173000.711000", "173000.714000", "173000.717000", "173000.719000", "173000.722000", "173000.724000", "173000.727000", "173000.730000", "173000.732000", "173000.735000", "173000.737000", "173000.740000", "173000.743000", "173000.745000", "173000.748000", "173000.751000", "173000.753000", "173000.756000", "173000.758000", "173000.761000", "173000.764000", "173000.766000", "173000.769000"],
      "InstanceNumber": [1, 2, 3, 4, 5, 6, 7, 8, 9, 10, 11, 12, 13, 14, 15, 16, 17, 18, 19, 20, 21, 22, 23, 24, 25, 26, 27, 28, 29, 30, 31, 32, 33, 34, 35, 36, 37, 38, 39, 40, 41, 42, 43, 44, 45, 46, 47, 48, 49, 50, 51, 52, 53, 54, 55, 56, 57, 58, 59, 60, 61, 62, 63, 64, 65, 66, 67, 68, 69, 70, 71, 72, 73, 74, 75, 76, 77, 78, 79, 80, 81, 82, 83, 84, 85, 86, 87, 88, 89, 90, 91, 92, 93, 94, 95, 96, 97, 98, 99, 100, 101, 102, 103, 104, 105, 106, 107, 108, 109, 110, 111, 112, 113, 114, 115, 116, 117, 118, 119, 120, 121, 122, 123, 124, 125, 126, 127, 128, 129, 130, 131, 132, 133, 134, 135, 136, 137, 138, 139, 140, 141, 142, 143, 144, 145, 146, 147, 148, 149, 150, 151, 152, 153, 154, 155, 156, 157, 158, 159, 160, 161, 162, 163, 164, 165, 166, 167, 168, 169, 170, 171, 172, 173, 174, 175, 176, 177, 178, 179, 180, 181, 182, 183, 184, 185, 186, 187, 188, 189, 190, 191, 192, 193, 194, 195, 196, 197, 198, 199, 200, 201, 202, 203, 204, 205, 206, 207, 208, 209, 210, 211, 212, 213, 214, 215, 216, 217, 218, 219, 220, 221, 222, 223, 224, 225, 226, 227, 228, 229, 230, 231, 232, 233, 234, 235, 236, 237, 238, 239, 240, 241, 242, 243, 244, 245, 246, 247, 248, 249, 250, 251, 252, 253, 254, 255, 256, 257, 258, 259, 260, 261, 262, 263, 264, 265, 266, 267, 268, 269, 270, 271, 272, 273, 274, 275, 276, 277, 278, 279, 280, 281, 282, 283, 284, 285, 286, 287, 288, 289, 290, 291, 292, 293, 294, 295, 296, 297, 298, 299, 300, 301, 302, 303, 304, 305, 306, 307, 308, 309, 310, 311, 312, 313, 314, 315, 316, 317, 318, 319, 320, 321, 322, 323, 324, 325, 326, 327, 328, 329, 330, 331, 332, 333, 334, 335, 336, 337, 338, 339, 340, 341, 342, 343, 344, 345, 346, 347, 348, 349, 350, 351, 352, 353, 354, 355, 356, 357, 358, 359, 360, 361, 362, 363, 364, 365, 366, 367, 368, 369, 370, 371, 372, 373, 374, 375, 376, 377, 378, 379, 380, 381, 382, 383, 384, 385, 386, 387, 388, 389, 390, 391, 392],
