{
  "AcquisitionMatrixPE": 88,
  "AcquisitionNumber": 1,
  "AcquisitionTime": "17:54:53.317500",
  "BandwidthPerPixelPhaseEncode": 19.592,
  "BaseResolution": 88,
  "BodyPartExamined": "BRAIN",
  "ConsistencyInfo": "N4_VE11C_LATEST_20160120",
  "ConversionSoftware": "dcm2niix",
  "ConversionSoftwareVersion": "v1.0.20190902",
  "DerivedVendorReportedEchoSpacing": 0.000580014,
  "DeviceSerialNumber": "67050",
  "DwellTime": 2.6e-06,
  "EchoTime": 0.033,
  "EchoTrainLength": 88,
  "EffectiveEchoSpacing": 0.000580014,
  "FlipAngle": 62,
  "ImageOrientationPatientDICOM": [0.999325, -0.0254469, 0.0265036, 0.0223288, 0.993464, 0.111941],
  "ImageType": [
    "ORIGINAL",
    "PRIMARY",
    "M",
    "ND",
    "MOSAIC"
],
  "ImagingFrequency": 123.251,
  "InPlanePhaseEncodingDirectionDICOM": "COL",
  "InstitutionAddress": "Olive_Street_60_Providence_RI_US_02912",
  "InstitutionName": "BROWN_UNIVERSITY_MRF",
  "InstitutionalDepartmentName": "Department",
  "MRAcquisitionType": "2D",
  "MagneticFieldStrength": 3,
  "Manufacturer": "Siemens",
  "ManufacturersModelName": "Prisma_fit",
  "Modality": "MR",
  "MultibandAccelerationFactor": 4,
  "PartialFourier": 1,
  "PatientPosition": "HFS",
  "PercentPhaseFOV": 100,
  "PhaseEncodingDirection": "j-",
  "PhaseEncodingSteps": 88,
  "PhaseResolution": 1,
  "PixelBandwidth": 2185,
  "ProcedureStepDescription": "ASHENHAV_1222",
  "ProtocolName": "func-bold_task-RDMlocalizer_run-01",
  "PulseSequenceDetails": "%SiemensSeq%_ep2d_bold",
  "ReceiveCoilActiveElements": "HC1-7;NC1",
  "ReceiveCoilName": "HeadNeck_64",
  "ReconMatrixPE": 88,
  "RefLinesPE": 8,
  "RepetitionTime": 1.2,
  "SAR": 0.047256,
  "ScanOptions": "FS",
  "ScanningSequence": "EP",
  "SequenceName": "_epfid2d1_88",
  "SequenceVariant": "SK",
  "SeriesDescription": "func-bold_task-RDMlocalizer_run-01",
  "SeriesNumber": 19,
  "ShimSetting": [1761, -9114, 4397, 535, -68, -271, 87, 24],
  "SliceThickness": 2.4,
  "SliceTiming": [0.55, 0, 0.6275, 0.0775, 0.7075, 0.1575, 0.785, 0.235, 0.865, 0.3125, 0.9425, 0.3925, 1.0225, 0.47, 1.1, 0.55, 0, 0.6275, 0.0775, 0.7075, 0.1575, 0.785, 0.235, 0.865, 0.3125, 0.9425, 0.3925, 1.0225, 0.47, 1.1, 0.55, 0, 0.6275, 0.0775, 0.7075, 0.1575, 0.785, 0.235, 0.865, 0.3125, 0.9425, 0.3925, 1.0225, 0.47, 1.1, 0.55, 0, 0.6275, 0.0775, 0.7075, 0.1575, 0.785, 0.235, 0.865, 0.3125, 0.9425, 0.3925, 1.0225, 0.47, 1.1],
  "SoftwareVersions": "syngo_MR_E11",
  "SpacingBetweenSlices": 2.4,
  "StationName": "AWP67050",
  "TaskName": "RDMlocalizer",
  "TotalReadoutTime": 0.0504612,
  "TxRefAmp": 215.534,
  "dcmmeta_affine": [
    [-2.3961081504821777, 0.05353832617402077, 0.07002954185009003, 104.16842651367188],
    [0.06101468205451965, 2.3820555210113525, 0.26705774664878845, -105.55689239501953],
    [0.0635485127568245, -0.268405020236969, 2.3840672969818115, -57.11881637573242],
    [0.0, 0.0, 0.0, 1.0]
],
  "dcmmeta_reorient_transform": [
    [0.0, -1.0, 0.0, 87.0],
    [1.0, 0.0, 0.0, 0.0],
    [0.0, 0.0, 1.0, 0.0],
    [0.0, 0.0, 0.0, 1.0]
],
  "dcmmeta_shape": [88, 88, 60, 195],
  "dcmmeta_slice_dim": 2,
  "dcmmeta_version": 0.6,
  "global": {
    "const": {
      "AcquisitionMatrix": [88, 0, 0, 88],
      "AngioFlag": "N",
      "BitsAllocated": 16,
      "BitsStored": 12,
      "BodyPartExamined": "BRAIN",
      "Columns": 704,
      "DeidentificationMethodCodeSequence": [
        {
          "CodeMeaning": "XNAT DicomEdit 6 Script",
          "CodeValue": "3",
          "CodingSchemeDesignator": "XNAT",
          "CodingSchemeVersion": "1.0"}
],
      "EchoNumbers": 1,
      "EchoTime": 33.0,
      "EchoTrainLength": 88,
      "FlipAngle": 62.0,
      "HighBit": 11,
      "ImageOrientationPatient": [0.99932477850747, -0.0254468824589, 0.02650364567594, 0.0223287801405, 0.99346391031029, 0.11194143329632],
      "ImagePositionPatient": [-863.31740502474, -816.56250183203, -182.71174319155],
      "ImageType": [
        "ORIGINAL",
        "PRIMARY",
        "M",
        "ND",
        "MOSAIC"
],
      "ImagedNucleus": "1H",
      "ImagingFrequency": 123.250636,
      "InPlanePhaseEncodingDirection": "COL",
      "MRAcquisitionType": "2D",
      "MagneticFieldStrength": 3.0,
      "Manufacturer": "SIEMENS",
      "ManufacturerModelName": "Prisma_fit",
      "Modality": "MR",
      "NumberOfAverages": 1.0,
      "NumberOfPhaseEncodingSteps": 88,
      "PercentPhaseFieldOfView": 100.0,
      "PercentSampling": 100.0,
      "PerformedProcedureStepStartTime": "162751.543000",
      "PhotometricInterpretation": "MONOCHROME2",
      "PixelBandwidth": 2185.0,
      "PixelRepresentation": 0,
      "PixelSpacing": [2.3977272510529, 2.3977272510529],
      "ProtocolName": "func-bold_task-RDMlocalizer_run-01",
      "RepetitionTime": 1200.0,
      "Rows": 704,
      "SAR": 0.04725602280193,
      "SamplesPerPixel": 1,
      "ScanOptions": "FS",
      "ScanningSequence": "EP",
      "SequenceName": "*epfid2d1_88",
      "SequenceVariant": "SK",
      "SeriesDescription": "func-bold_task-RDMlocalizer_run-01",
      "SeriesNumber": 19,
      "SeriesTime": "175533.533000",
      "SliceLocation": -65.445837035707,
      "SliceThickness": 2.4000000953674,
      "SmallestImagePixelValue": 0,
      "SoftwareVersions": "syngo MR E11",
      "SpacingBetweenSlices": 2.4000000919008,
      "SpecificCharacterSet": "ISO_IR 100",
      "StudyID": "1",
      "StudyTime": "162751.463000",
      "TransmitCoilName": "Body",
      "VariableFlipAngleFlag": "N",
      "WindowCenterWidthExplanation": "Algo1",
      "dBdt": 0.0},
    "slices": {}
  },
  "time": {
    "samples": {
      "AcquisitionNumber": [1, 2, 3, 4, 5, 6, 7, 8, 9, 10, 11, 12, 13, 14, 15, 16, 17, 18, 19, 20, 21, 22, 23, 24, 25, 26, 27, 28, 29, 30, 31, 32, 33, 34, 35, 36, 37, 38, 39, 40, 41, 42, 43, 44, 45, 46, 47, 48, 49, 50, 51, 52, 53, 54, 55, 56, 57, 58, 59, 60, 61, 62, 63, 64, 65, 66, 67, 68, 69, 70, 71, 72, 73, 74, 75, 76, 77, 78, 79, 80, 81, 82, 83, 84, 85, 86, 87, 88, 89, 90, 91, 92, 93, 94, 95, 96, 97, 98, 99, 100, 101, 102, 103, 104, 105, 106, 107, 108, 109, 110, 111, 112, 113, 114, 115, 116, 117, 118, 119, 120, 121, 122, 123, 124, 125, 126, 127, 128, 129, 130, 131, 132, 133, 134, 135, 136, 137, 138, 139, 140, 141, 142, 143, 144, 145, 146, 147, 148, 149, 150, 151, 152, 153, 154, 155, 156, 157, 158, 159, 160, 161, 162, 163, 164, 165, 166, 167, 168, 169, 170, 171, 172, 173, 174, 175, 176, 177, 178, 179, 180, 181, 182, 183, 184, 185, 186, 187, 188, 189, 190, 191, 192, 193, 194, 195],
      "AcquisitionTime": ["175453.317500", "175454.517500", "175455.717500", "175456.917500", "175458.117500", "175459.317500", "175500.517500", "175501.717500", "175502.917500", "175504.117500", "175505.317500", "175506.517500", "175507.717500", "175508.917500", "175510.117500", "175511.317500", "175512.517500", "175513.717500", "175514.917500", "175516.117500", "175517.317500", "175518.517500", "175519.717500", "175520.917500", "175522.117500", "175523.317500", "175524.517500", "175525.717500", "175526.917500", "175528.117500", "175529.317500", "175530.517500", "175531.717500", "175532.917500", "175534.117500", "175535.317500", "175536.517500", "175537.717500", "175538.917500", "175540.117500", "175541.317500", "175542.517500", "175543.717500", "175544.917500", "175546.117500", "175547.317500", "175548.517500", "175549.717500", "175550.917500", "175552.117500", "175553.317500", "175554.517500", "175555.717500", "175556.917500", "175558.117500", "175559.317500", "175600.517500", "175601.717500", "175602.917500", "175604.117500", "175605.317500", "175606.517500", "175607.717500", "175608.917500", "175610.117500", "175611.317500", "175612.517500", "175613.717500", "175614.917500", "175616.117500", "175617.317500", "175618.517500", "175619.717500", "175620.917500", "175622.117500", "175623.317500", "175624.517500", "175625.717500", "175626.917500", "175628.117500", "175629.317500", "175630.517500", "175631.717500", "175632.917500", "175634.117500", "175635.317500", "175636.517500", "175637.717500", "175638.917500", "175640.117500", "175641.317500", "175642.517500", "175643.717500", "175644.917500", "175646.117500", "175647.317500", "175648.517500", "175649.717500", "175650.917500", "175652.117500", "175653.317500", "175654.517500", "175655.717500", "175656.917500", "175658.117500", "175659.317500", "175700.517500", "175701.717500", "175702.917500", "175704.117500", "175705.317500", "175706.517500", "175707.717500", "175708.917500", "175710.117500", "175711.317500", "175712.517500", "175713.717500", "175714.917500", "175716.117500", "175717.317500", "175718.517500", "175719.717500", "175720.917500", "175722.117500", "175723.317500", "175724.517500", "175725.717500", "175726.917500", "175728.117500", "175729.317500", "175730.517500", "175731.717500", "175732.917500", "175734.117500", "175735.317500", "175736.517500", "175737.717500", "175738.917500", "175740.117500", "175741.317500", "175742.517500", "175743.717500", "175744.917500", "175746.117500", "175747.317500", "175748.517500", "175749.717500", "175750.917500", "175752.117500", "175753.317500", "175754.517500", "175755.717500", "175756.917500", "175758.117500", "175759.317500", "175800.517500", "175801.717500", "175802.917500", "175804.117500", "175805.317500", "175806.517500", "175807.717500", "175808.917500", "175810.117500", "175811.317500", "175812.517500", "175813.717500", "175814.917500", "175816.117500", "175817.317500", "175818.517500", "175819.717500", "175820.917500", "175822.117500", "175823.317500", "175824.517500", "175825.717500", "175826.917500", "175828.117500", "175829.317500", "175830.517500", "175831.717500", "175832.917500", "175834.117500", "175835.317500", "175836.517500", "175837.717500", "175838.917500", "175840.117500", "175841.317500", "175842.517500", "175843.717500", "175844.917500", "175846.117500"],
      "ContentTime": ["175533.536000", "175533.547000", "175533.549000", "175533.552000", "175533.554000", "175533.557000", "175533.559000", "175533.562000", "175533.565000", "175533.567000", "175533.570000", "175533.572000", "175533.575000", "175533.577000", "175533.580000", "175533.583000", "175533.585000", "175533.588000", "175533.592000", "175533.595000", "175533.597000", "175533.600000", "175533.602000", "175533.605000", "175533.607000", "175533.610000", "175533.612000", "175533.615000", "175533.618000", "175533.620000", "175533.623000", "175533.625000", "175533.628000", "175613.531000", "175613.534000", "175613.544000", "175613.547000", "175613.549000", "175613.552000", "175613.554000", "175613.557000", "175613.559000", "175613.562000", "175613.564000", "175613.567000", "175613.570000", "175613.572000", "175613.575000", "175613.577000", "175613.580000", "175613.582000", "175613.585000", "175613.588000", "175613.590000", "175613.593000", "175613.595000", "175613.598000", "175613.600000", "175613.603000", "175613.609000", "175613.611000", "175613.614000", "175613.617000", "175613.619000", "175613.622000", "175613.624000", "175653.532000", "175653.534000", "175653.537000", "175653.539000", "175653.542000", "175653.544000", "175653.547000", "175653.549000", "175653.552000", "175653.554000", "175653.557000", "175653.559000", "175653.562000", "175653.565000", "175653.567000", "175653.570000", "175653.572000", "175653.575000", "175653.577000", "175653.580000", "175653.582000", "175653.585000", "175653.587000", "175653.590000", "175653.592000", "175653.606000", "175653.612000", "175653.614000", "175653.617000", "175653.620000", "175653.622000", "175653.625000", "175653.627000", "175653.630000", "175733.532000", "175733.534000", "175733.537000", "175733.539000", "175733.542000", "175733.544000", "175733.547000", "175733.550000", "175733.552000", "175733.555000", "175733.557000", "175733.560000", "175733.562000", "175733.565000", "175733.567000", "175733.570000", "175733.572000", "175733.575000", "175733.577000", "175733.580000", "175733.583000", "175733.585000", "175733.588000", "175733.590000", "175733.593000", "175733.595000", "175733.598000", "175733.600000", "175733.603000", "175733.605000", "175733.608000", "175733.611000", "175733.613000", "175813.532000", "175813.534000", "175813.537000", "175813.539000", "175813.542000", "175813.545000", "175813.547000", "175813.550000", "175813.552000", "175813.555000", "175813.557000", "175813.560000", "175813.562000", "175813.565000", "175813.568000", "175813.570000", "175813.573000", "175813.575000", "175813.578000", "175813.580000", "175813.583000", "175813.585000", "175813.588000", "175813.590000", "175813.593000", "175813.596000", "175813.598000", "175813.601000", "175813.603000", "175813.606000", "175813.608000", "175813.611000", "175813.613000", "175847.533000", "175847.535000", "175847.538000", "175847.541000", "175847.543000", "175847.546000", "175847.549000", "175847.551000", "175847.554000", "175847.556000", "175847.559000", "175847.561000", "175847.564000", "175847.566000", "175847.569000", "175847.571000", "175847.574000", "175847.577000", "175847.579000", "175847.584000", "175847.587000", "175847.589000", "175847.592000", "175847.594000", "175847.597000", "175847.600000", "175847.602000", "175847.605000", "175847.607000"],
      "InstanceCreationTime": ["175533.536000", "175533.547000", "175533.549000", "175533.552000", "175533.554000", "175533.557000", "175533.559000", "175533.562000", "175533.565000", "175533.567000", "175533.570000", "175533.572000", "175533.575000", "175533.577000", "175533.580000", "175533.583000", "175533.585000", "175533.588000", "175533.592000", "175533.595000", "175533.597000", "175533.600000", "175533.602000", "175533.605000", "175533.607000", "175533.610000", "175533.612000", "175533.615000", "175533.618000", "175533.620000", "175533.623000", "175533.625000", "175533.628000", "175613.531000", "175613.534000", "175613.544000", "175613.547000", "175613.549000", "175613.552000", "175613.554000", "175613.557000", "175613.559000", "175613.562000", "175613.564000", "175613.567000", "175613.570000", "175613.572000", "175613.575000", "175613.577000", "175613.580000", "175613.582000", "175613.585000", "175613.588000", "175613.590000", "175613.593000", "175613.595000", "175613.598000", "175613.600000", "175613.603000", "175613.609000", "175613.611000", "175613.614000", "175613.617000", "175613.619000", "175613.622000", "175613.624000", "175653.532000", "175653.534000", "175653.537000", "175653.539000", "175653.542000", "175653.544000", "175653.547000", "175653.549000", "175653.552000", "175653.554000", "175653.557000", "175653.559000", "175653.562000", "175653.565000", "175653.567000", "175653.570000", "175653.572000", "175653.575000", "175653.577000", "175653.580000", "175653.582000", "175653.585000", "175653.587000", "175653.590000", "175653.592000", "175653.606000", "175653.612000", "175653.614000", "175653.617000", "175653.620000", "175653.622000", "175653.625000", "175653.627000", "175653.630000", "175733.532000", "175733.534000", "175733.537000", "175733.539000", "175733.542000", "175733.544000", "175733.547000", "175733.550000", "175733.552000", "175733.555000", "175733.557000", "175733.560000", "175733.562000", "175733.565000", "175733.567000", "175733.570000", "175733.572000", "175733.575000", "175733.577000", "175733.580000", "175733.583000", "175733.585000", "175733.588000", "175733.590000", "175733.593000", "175733.595000", "175733.598000", "175733.600000", "175733.603000", "175733.605000", "175733.608000", "175733.611000", "175733.613000", "175813.532000", "175813.534000", "175813.537000", "175813.539000", "175813.542000", "175813.545000", "175813.547000", "175813.550000", "175813.552000", "175813.555000", "175813.557000", "175813.560000", "175813.562000", "175813.565000", "175813.568000", "175813.570000", "175813.573000", "175813.575000", "175813.578000", "175813.580000", "175813.583000", "175813.585000", "175813.588000", "175813.590000", "175813.593000", "175813.596000", "175813.598000", "175813.601000", "175813.603000", "175813.606000", "175813.608000", "175813.611000", "175813.613000", "175847.533000", "175847.535000", "175847.538000", "175847.541000", "175847.543000", "175847.546000", "175847.549000", "175847.551000", "175847.554000", "175847.556000", "175847.559000", "175847.561000", "175847.564000", "175847.566000", "175847.569000", "175847.571000", "175847.574000", "175847.577000", "175847.579000", "175847.584000", "175847.587000", "175847.589000", "175847.592000", "175847.594000", "175847.597000", "175847.600000", "175847.602000", "175847.605000", "175847.607000"],
      "InstanceNumber": [1, 2, 3, 4, 5, 6, 7, 8, 9, 10, 11, 12, 13, 14, 15, 16, 17, 18, 19, 20, 21, 22, 23, 24, 25, 26, 27, 28, 29, 30, 31, 32, 33, 34, 35, 36, 37, 38, 39, 40, 41, 42, 43, 44, 45, 46, 47, 48, 49, 50, 51, 52, 53, 54, 55, 56, 57, 58, 59, 60, 61, 62, 63, 64, 65, 66, 67, 68, 69, 70, 71, 72, 73, 74, 75, 76, 77, 78, 79, 80, 81, 82, 83, 84, 85, 86, 87, 88, 89, 90, 91, 92, 93, 94, 95, 96, 97, 98, 99, 100, 101, 102, 103, 104, 105, 106, 107, 108, 109, 110, 111, 112, 113, 114, 115, 116, 117, 118, 119, 120, 121, 122, 123, 124, 125, 126, 127, 128, 129, 130, 131, 132, 133, 134, 135, 136, 137, 138, 139, 140, 141, 142, 143, 144, 145, 146, 147, 148, 149, 150, 151, 152, 153, 154, 155, 156, 157, 158, 159, 160, 161, 162, 163, 164, 165, 166, 167, 168, 169, 170, 171, 172, 173, 174, 175, 176, 177, 178, 179, 180, 181, 182, 183, 184, 185, 186, 187, 188, 189, 190, 191, 192, 193, 194, 195],
      "LargestImagePixelValue": [1585, 1579, 1754, 1724, 1524, 1528, 1646, 1558, 1565, 1699, 1832, 1606, 1688, 1681, 1590, 1567, 1648, 1756, 1709, 1568, 1621, 1782, 1545, 1582, 1742, 1807, 1504, 1549, 1603, 1509, 1590, 1646, 1558, 1521, 1624, 1669, 1524, 1562, 1678, 1566, 1599, 1528, 1548, 1531, 1665, 1565, 1668, 1776, 1578, 1837, 1531, 1576, 1849, 1583, 1728, 1630, 1512, 1612, 1525, 1563, 1646, 1557, 1563, 1710, 1554, 1630, 1544, 1533, 1728, 1531, 1539, 1749, 1504, 1558, 1767, 1519, 1638, 1763, 1513, 1758, 1519, 1560, 1857, 1518, 1639, 1555, 1527, 1798, 1526, 1576, 1558, 1548, 1754, 1600, 1799, 1550, 1603, 1566, 1540, 1746, 1569, 1696, 1534, 1650, 1513, 1592, 1845, 1541, 1752, 1524, 1737, 1544, 1574, 1665, 1536, 1522, 1536, 1536, 1505, 1529, 1528, 1568, 1634, 1587, 1548, 1720, 1515, 1638, 1556, 1510, 1718, 1518, 1719, 1540, 1721, 1635, 1740, 1557, 1547, 1710, 1526, 1589, 1537, 1545, 1555, 1542, 1713, 1575, 1682, 1755, 1538, 1811, 1548, 1643, 1830, 1561, 1659, 1799, 1514, 1688, 1519, 1502, 1772, 1510, 1623, 1718, 1514, 1552, 1524, 1533, 1717, 1528, 1587, 1515, 1529, 1749, 1523, 1649, 1625, 1606, 1657, 1517, 1536, 1644, 1704, 1575, 1589, 1516, 1491, 1489, 1644, 1471, 1523, 1594, 1463],
      "WindowCenter": [538.0, 536.0, 537.0, 536.0, 533.0, 534.0, 536.0, 536.0, 537.0, 538.0, 541.0, 537.0, 537.0, 538.0, 537.0, 536.0, 537.0, 538.0, 537.0, 534.0, 536.0, 539.0, 535.0, 535.0, 538.0, 538.0, 533.0, 534.0, 535.0, 533.0, 536.0, 536.0, 534.0, 533.0, 534.0, 534.0, 533.0, 533.0, 535.0, 534.0, 534.0, 532.0, 533.0, 533.0, 536.0, 534.0, 536.0, 538.0, 535.0, 538.0, 535.0, 535.0, 538.0, 535.0, 536.0, 534.0, 533.0, 534.0, 533.0, 534.0, 535.0, 534.0, 534.0, 537.0, 534.0, 536.0, 534.0, 534.0, 537.0, 534.0, 534.0, 537.0, 533.0, 534.0, 536.0, 534.0, 536.0, 537.0, 534.0, 538.0, 534.0, 535.0, 539.0, 533.0, 535.0, 533.0, 533.0, 537.0, 532.0, 534.0, 534.0, 534.0, 537.0, 535.0, 537.0, 534.0, 535.0, 534.0, 534.0, 537.0, 535.0, 537.0, 535.0, 537.0, 534.0, 536.0, 539.0, 534.0, 538.0, 534.0, 538.0, 533.0, 534.0, 535.0, 533.0, 532.0, 533.0, 533.0, 532.0, 533.0, 533.0, 534.0, 535.0, 534.0, 534.0, 537.0, 533.0, 535.0, 534.0, 533.0, 537.0, 533.0, 537.0, 535.0, 537.0, 535.0, 537.0, 534.0, 534.0, 536.0, 532.0, 534.0, 532.0, 534.0, 534.0, 534.0, 537.0, 534.0, 536.0, 538.0, 534.0, 539.0, 535.0, 536.0, 539.0, 534.0, 536.0, 538.0, 533.0, 535.0, 533.0, 533.0, 537.0, 533.0, 535.0, 536.0, 532.0, 533.0, 532.0, 534.0, 536.0, 533.0, 534.0, 533.0, 533.0, 536.0, 533.0, 536.0, 535.0, 535.0, 536.0, 534.0, 535.0, 536.0, 536.0, 535.0, 534.0, 532.0, 532.0, 532.0, 535.0, 532.0, 533.0, 534.0, 531.0],
      "WindowWidth": [1139.0, 1134.0, 1136.0, 1134.0, 1129.0, 1131.0, 1135.0, 1136.0, 1138.0, 1140.0, 1144.0, 1137.0, 1138.0, 1140.0, 1137.0, 1136.0, 1137.0, 1138.0, 1137.0, 1132.0, 1135.0, 1139.0, 1133.0, 1134.0, 1138.0, 1137.0, 1130.0, 1131.0, 1132.0, 1129.0, 1134.0, 1134.0, 1131.0, 1131.0, 1132.0, 1131.0, 1129.0, 1130.0, 1133.0, 1132.0, 1132.0, 1128.0, 1130.0, 1130.0, 1135.0, 1132.0, 1135.0, 1138.0, 1133.0, 1138.0, 1133.0, 1133.0, 1137.0, 1132.0, 1134.0, 1131.0, 1128.0, 1131.0, 1130.0, 1131.0, 1133.0, 1132.0, 1132.0, 1137.0, 1132.0, 1134.0, 1133.0, 1132.0, 1135.0, 1132.0, 1132.0, 1136.0, 1131.0, 1131.0, 1135.0, 1131.0, 1135.0, 1137.0, 1131.0, 1138.0, 1132.0, 1133.0, 1139.0, 1130.0, 1133.0, 1130.0, 1129.0, 1135.0, 1128.0, 1132.0, 1131.0, 1131.0, 1136.0, 1132.0, 1137.0, 1131.0, 1133.0, 1132.0, 1133.0, 1137.0, 1133.0, 1136.0, 1133.0, 1136.0, 1132.0, 1136.0, 1139.0, 1133.0, 1138.0, 1132.0, 1137.0, 1131.0, 1131.0, 1132.0, 1129.0, 1128.0, 1129.0, 1129.0, 1129.0, 1129.0, 1129.0, 1131.0, 1133.0, 1131.0, 1132.0, 1136.0, 1130.0, 1133.0, 1130.0, 1130.0, 1135.0, 1130.0, 1136.0, 1133.0, 1136.0, 1133.0, 1136.0, 1131.0, 1131.0, 1134.0, 1128.0, 1130.0, 1128.0, 1131.0, 1131.0, 1132.0, 1137.0, 1132.0, 1135.0, 1138.0, 1132.0, 1140.0, 1133.0, 1136.0, 1139.0, 1131.0, 1135.0, 1138.0, 1130.0, 1133.0, 1128.0, 1129.0, 1136.0, 1130.0, 1133.0, 1134.0, 1128.0, 1129.0, 1128.0, 1131.0, 1135.0, 1129.0, 1132.0, 1129.0, 1130.0, 1134.0, 1130.0, 1134.0, 1133.0, 1134.0, 1134.0, 1131.0, 1133.0, 1135.0, 1134.0, 1132.0, 1130.0, 1127.0, 1128.0, 1127.0, 1131.0, 1128.0, 1129.0, 1131.0, 1126.0]
    },
    "slices": {}
  }
}