{
  "AcquisitionMatrixPE": 88,
  "AcquisitionNumber": 1,
  "AcquisitionTime": "16:08:29.325000",
  "BandwidthPerPixelPhaseEncode": 19.592,
  "BaseResolution": 88,
  "BodyPartExamined": "BRAIN",
  "ConsistencyInfo": "N4_VE11C_LATEST_20160120",
  "ConversionSoftware": "dcm2niix",
  "ConversionSoftwareVersion": "v1.0.20190902",
  "DerivedVendorReportedEchoSpacing": 0.000580014,
  "DeviceSerialNumber": "67050",
  "DwellTime": 2.6e-06,
  "EchoTime": 0.033,
  "EchoTrainLength": 88,
  "EffectiveEchoSpacing": 0.000580014,
  "FlipAngle": 62,
  "ImageOrientationPatientDICOM": [0.998846, 0.0440895, -0.0190532, -0.0465803, 0.985949, -0.16042],
  "ImageType": [
    "ORIGINAL",
    "PRIMARY",
    "M",
    "ND",
    "MOSAIC"
],
  "ImagingFrequency": 123.25,
  "InPlanePhaseEncodingDirectionDICOM": "COL",
  "InstitutionAddress": "Olive_Street_60_Providence_RI_US_02912",
  "InstitutionName": "BROWN_UNIVERSITY_MRF",
  "InstitutionalDepartmentName": "Department",
  "MRAcquisitionType": "2D",
  "MagneticFieldStrength": 3,
  "Manufacturer": "Siemens",
  "ManufacturersModelName": "Prisma_fit",
  "Modality": "MR",
  "MultibandAccelerationFactor": 4,
  "PartialFourier": 1,
  "PatientPosition": "HFS",
  "PercentPhaseFOV": 100,
  "PhaseEncodingDirection": "j-",
  "PhaseEncodingSteps": 88,
  "PhaseResolution": 1,
  "PixelBandwidth": 2185,
  "ProcedureStepDescription": "ASHENHAV_1222",
  "ProtocolName": "func-bold_task-RDMmotion_run-05",
  "PulseSequenceDetails": "%SiemensSeq%_ep2d_bold",
  "ReceiveCoilActiveElements": "HC1-7;NC1",
  "ReceiveCoilName": "HeadNeck_64",
  "ReconMatrixPE": 88,
  "RefLinesPE": 8,
  "RepetitionTime": 1.2,
  "SAR": 0.0442336,
  "ScanOptions": "FS",
  "ScanningSequence": "EP",
  "SequenceName": "_epfid2d1_88",
  "SequenceVariant": "SK",
  "SeriesDescription": "func-bold_task-RDMmotion_run-05",
  "SeriesNumber": 15,
  "ShimSetting": [1747, -9098, 4389, 591, -72, -377, -51, -2],
  "SliceThickness": 2.4,
  "SliceTiming": [0.55, 0, 0.63, 0.0775, 0.7075, 0.1575, 0.7875, 0.235, 0.865, 0.315, 0.945, 0.3925, 1.0225, 0.4725, 1.1, 0.55, 0, 0.63, 0.0775, 0.7075, 0.1575, 0.7875, 0.235, 0.865, 0.315, 0.945, 0.3925, 1.0225, 0.4725, 1.1, 0.55, 0, 0.63, 0.0775, 0.7075, 0.1575, 0.7875, 0.235, 0.865, 0.315, 0.945, 0.3925, 1.0225, 0.4725, 1.1, 0.55, 0, 0.63, 0.0775, 0.7075, 0.1575, 0.7875, 0.235, 0.865, 0.315, 0.945, 0.3925, 1.0225, 0.4725, 1.1],
  "SoftwareVersions": "syngo_MR_E11",
  "SpacingBetweenSlices": 2.4,
  "StationName": "AWP67050",
  "TaskName": "RDMmotion",
  "TotalReadoutTime": 0.0504612,
  "TxRefAmp": 219.976,
  "dcmmeta_affine": [
    [-2.3949599266052246, -0.11168679594993591, -0.028110405430197716, 111.6758041381836],
    [-0.1057145819067955, 2.364037275314331, -0.3866933584213257, -82.14633178710938],
    [-0.04568440839648247, 0.3846430778503418, 2.368475914001465, -82.95899200439453],
    [0.0, 0.0, 0.0, 1.0]
],
  "dcmmeta_reorient_transform": [
    [0.0, -1.0, 0.0, 87.0],
    [1.0, 0.0, 0.0, 0.0],
    [0.0, 0.0, 1.0, 0.0],
    [0.0, 0.0, 0.0, 1.0]
],
  "dcmmeta_shape": [88, 88, 60, 125],
  "dcmmeta_slice_dim": 2,
  "dcmmeta_version": 0.6,
  "global": {
    "const": {
      "AcquisitionMatrix": [88, 0, 0, 88],
      "AngioFlag": "N",
      "BitsAllocated": 16,
      "BitsStored": 12,
      "BodyPartExamined": "BRAIN",
      "Columns": 704,
      "DeidentificationMethodCodeSequence": [
        {
          "CodeMeaning": "XNAT DicomEdit 6 Script",
          "CodeValue": "3",
          "CodingSchemeDesignator": "XNAT",
          "CodingSchemeVersion": "1.0"}
],
      "EchoNumbers": 1,
      "EchoTime": 33.0,
      "EchoTrainLength": 88,
      "FlipAngle": 62.0,
      "HighBit": 11,
      "ImageOrientationPatient": [0.99884587972585, 0.04408949545136, -0.0190532135228, -0.0465802741863, 0.98594915906, -0.160419867241],
      "ImagePositionPatient": [-805.20719874325, -884.20844388056, 83.045827806594],
      "ImageType": [
        "ORIGINAL",
        "PRIMARY",
        "M",
        "ND",
        "MOSAIC"
],
      "ImagedNucleus": "1H",
      "ImagingFrequency": 123.250007,
      "InPlanePhaseEncodingDirection": "COL",
      "MRAcquisitionType": "2D",
      "MagneticFieldStrength": 3.0,
      "Manufacturer": "SIEMENS",
      "ManufacturerModelName": "Prisma_fit",
      "Modality": "MR",
      "NumberOfAverages": 1.0,
      "NumberOfPhaseEncodingSteps": 88,
      "PercentPhaseFieldOfView": 100.0,
      "PercentSampling": 100.0,
      "PerformedProcedureStepStartTime": "150517.931000",
      "PhotometricInterpretation": "MONOCHROME2",
      "PixelBandwidth": 2185.0,
      "PixelRepresentation": 0,
      "PixelSpacing": [2.3977272510529, 2.3977272510529],
      "ProtocolName": "func-bold_task-RDMmotion_run-05",
      "RepetitionTime": 1200.0,
      "Rows": 704,
      "SAR": 0.04423360548933,
      "SamplesPerPixel": 1,
      "ScanOptions": "FS",
      "ScanningSequence": "EP",
      "SequenceName": "*epfid2d1_88",
      "SequenceVariant": "SK",
      "SeriesDescription": "func-bold_task-RDMmotion_run-05",
      "SeriesNumber": 15,
      "SeriesTime": "160903.226000",
      "SliceLocation": -69.941741972124,
      "SliceThickness": 2.4000000953674,
      "SmallestImagePixelValue": 0,
      "SoftwareVersions": "syngo MR E11",
      "SpacingBetweenSlices": 2.4000000679793,
      "SpecificCharacterSet": "ISO_IR 100",
      "StudyID": "1",
      "StudyTime": "150517.870000",
      "TransmitCoilName": "Body",
      "VariableFlipAngleFlag": "N",
      "WindowCenterWidthExplanation": "Algo1",
      "dBdt": 0.0},
    "slices": {}
  },
  "time": {
    "samples": {
      "AcquisitionNumber": [1, 2, 3, 4, 5, 6, 7, 8, 9, 10, 11, 12, 13, 14, 15, 16, 17, 18, 19, 20, 21, 22, 23, 24, 25, 26, 27, 28, 29, 30, 31, 32, 33, 34, 35, 36, 37, 38, 39, 40, 41, 42, 43, 44, 45, 46, 47, 48, 49, 50, 51, 52, 53, 54, 55, 56, 57, 58, 59, 60, 61, 62, 63, 64, 65, 66, 67, 68, 69, 70, 71, 72, 73, 74, 75, 76, 77, 78, 79, 80, 81, 82, 83, 84, 85, 86, 87, 88, 89, 90, 91, 92, 93, 94, 95, 96, 97, 98, 99, 100, 101, 102, 103, 104, 105, 106, 107, 108, 109, 110, 111, 112, 113, 114, 115, 116, 117, 118, 119, 120, 121, 122, 123, 124, 125],
      "AcquisitionTime": ["160829.325000", "160830.525000", "160831.725000", "160832.925000", "160834.125000", "160835.325000", "160836.525000", "160837.725000", "160838.925000", "160840.125000", "160841.325000", "160842.525000", "160843.725000", "160844.925000", "160846.125000", "160847.325000", "160848.525000", "160849.725000", "160850.925000", "160852.125000", "160853.325000", "160854.525000", "160855.725000", "160856.925000", "160858.125000", "160859.325000", "160900.525000", "160901.725000", "160902.925000", "160904.125000", "160905.325000", "160906.525000", "160907.725000", "160908.925000", "160910.125000", "160911.325000", "160912.525000", "160913.725000", "160914.925000", "160916.125000", "160917.325000", "160918.525000", "160919.725000", "160920.925000", "160922.125000", "160923.325000", "160924.525000", "160925.725000", "160926.925000", "160928.125000", "160929.325000", "160930.525000", "160931.725000", "160932.925000", "160934.125000", "160935.325000", "160936.525000", "160937.725000", "160938.925000", "160940.125000", "160941.325000", "160942.525000", "160943.725000", "160944.925000", "160946.125000", "160947.325000", "160948.525000", "160949.725000", "160950.925000", "160952.125000", "160953.325000", "160954.525000", "160955.725000", "160956.925000", "160958.125000", "160959.325000", "161000.525000", "161001.725000", "161002.925000", "161004.125000", "161005.325000", "161006.525000", "161007.725000", "161008.925000", "161010.125000", "161011.325000", "161012.525000", "161013.725000", "161014.925000", "161016.125000", "161017.325000", "161018.525000", "161019.725000", "161020.925000", "161022.125000", "161023.325000", "161024.525000", "161025.725000", "161026.925000", "161028.125000", "161029.325000", "161030.525000", "161031.725000", "161032.925000", "161034.125000", "161035.325000", "161036.525000", "161037.725000", "161038.925000", "161040.125000", "161041.325000", "161042.525000", "161043.725000", "161044.925000", "161046.125000", "161047.325000", "161048.525000", "161049.725000", "161050.925000", "161052.125000", "161053.325000", "161054.525000", "161055.725000", "161056.925000", "161058.125000"],
      "ContentTime": ["160903.230000", "160903.278000", "160903.288000", "160903.305000", "160903.318000", "160903.321000", "160903.323000", "160903.326000", "160903.328000", "160903.339000", "160903.341000", "160903.344000", "160903.346000", "160903.349000", "160903.351000", "160903.354000", "160903.357000", "160903.360000", "160903.363000", "160903.365000", "160903.368000", "160903.370000", "160903.373000", "160903.376000", "160903.378000", "160903.381000", "160903.383000", "160943.224000", "160943.227000", "160943.230000", "160943.232000", "160943.235000", "160943.237000", "160943.240000", "160943.242000", "160943.245000", "160943.248000", "160943.250000", "160943.253000", "160943.255000", "160943.258000", "160943.260000", "160943.263000", "160943.266000", "160943.268000", "160943.271000", "160943.273000", "160943.276000", "160943.279000", "160943.285000", "160943.288000", "160943.290000", "160943.293000", "160943.295000", "160943.298000", "160943.300000", "160943.303000", "160943.305000", "160943.308000", "160943.311000", "161023.225000", "161023.227000", "161023.230000", "161023.232000", "161023.235000", "161023.238000", "161023.240000", "161023.243000", "161023.245000", "161023.248000", "161023.250000", "161023.253000", "161023.255000", "161023.258000", "161023.260000", "161023.263000", "161023.266000", "161023.268000", "161023.271000", "161023.273000", "161023.276000", "161023.279000", "161023.281000", "161023.284000", "161023.286000", "161023.289000", "161023.291000", "161023.294000", "161023.297000", "161023.303000", "161023.306000", "161023.308000", "161023.311000", "161023.313000", "161100.195000", "161100.198000", "161100.201000", "161100.204000", "161100.206000", "161100.209000", "161100.211000", "161100.214000", "161100.217000", "161100.219000", "161100.222000", "161100.224000", "161100.227000", "161100.230000", "161100.232000", "161100.235000", "161100.237000", "161100.240000", "161100.242000", "161100.245000", "161100.248000", "161100.250000", "161100.253000", "161100.255000", "161100.258000", "161100.261000", "161100.263000", "161100.266000", "161100.268000", "161100.271000", "161100.274000"],
      "InstanceCreationTime": ["160903.230000", "160903.278000", "160903.288000", "160903.305000", "160903.318000", "160903.321000", "160903.323000", "160903.326000", "160903.328000", "160903.339000", "160903.341000", "160903.344000", "160903.346000", "160903.349000", "160903.351000", "160903.354000", "160903.357000", "160903.360000", "160903.363000", "160903.365000", "160903.368000", "160903.370000", "160903.373000", "160903.376000", "160903.378000", "160903.381000", "160903.383000", "160943.224000", "160943.227000", "160943.230000", "160943.232000", "160943.235000", "160943.237000", "160943.240000", "160943.242000", "160943.245000", "160943.248000", "160943.250000", "160943.253000", "160943.255000", "160943.258000", "160943.260000", "160943.263000", "160943.266000", "160943.268000", "160943.271000", "160943.273000", "160943.276000", "160943.279000", "160943.285000", "160943.288000", "160943.290000", "160943.293000", "160943.295000", "160943.298000", "160943.300000", "160943.303000", "160943.305000", "160943.308000", "160943.311000", "161023.225000", "161023.227000", "161023.230000", "161023.232000", "161023.235000", "161023.238000", "161023.240000", "161023.243000", "161023.245000", "161023.248000", "161023.250000", "161023.253000", "161023.255000", "161023.258000", "161023.260000", "161023.263000", "161023.266000", "161023.268000", "161023.271000", "161023.273000", "161023.276000", "161023.279000", "161023.281000", "161023.284000", "161023.286000", "161023.289000", "161023.291000", "161023.294000", "161023.297000", "161023.303000", "161023.306000", "161023.308000", "161023.311000", "161023.313000", "161100.195000", "161100.198000", "161100.201000", "161100.204000", "161100.206000", "161100.209000", "161100.211000", "161100.214000", "161100.217000", "161100.219000", "161100.222000", "161100.224000", "161100.227000", "161100.230000", "161100.232000", "161100.235000", "161100.237000", "161100.240000", "161100.242000", "161100.245000", "161100.248000", "161100.250000", "161100.253000", "161100.255000", "161100.258000", "161100.261000", "161100.263000", "161100.266000", "161100.268000", "161100.271000", "161100.274000"],
      "InstanceNumber": [1, 2, 3, 4, 5, 6, 7, 8, 9, 10, 11, 12, 13, 14, 15, 16, 17, 18, 19, 20, 21, 22, 23, 24, 25, 26, 27, 28, 29, 30, 31, 32, 33, 34, 35, 36, 37, 38, 39, 40, 41, 42, 43, 44, 45, 46, 47, 48, 49, 50, 51, 52, 53, 54, 55, 56, 57, 58, 59, 60, 61, 62, 63, 64, 65, 66, 67, 68, 69, 70, 71, 72, 73, 74, 75, 76, 77, 78, 79, 80, 81, 82, 83, 84, 85, 86, 87, 88, 89, 90, 91, 92, 93, 94, 95, 96, 97, 98, 99, 100, 101, 102, 103, 104, 105, 106, 107, 108, 109, 110, 111, 112, 113, 114, 115, 116, 117, 118, 119, 120, 121, 122, 123, 124, 125],
      "LargestImagePixelValue": [2022, 2011, 1918, 1917, 1926, 1895, 1922, 1945, 1927, 1922, 1977, 1948, 1946, 1969, 1937, 1968, 1980, 1930, 1962, 1954, 1960, 1982, 1936, 1964, 1948, 1925, 1984, 1950, 1952, 1981, 1944, 2005, 1967, 1978, 1983, 1944, 1970, 1966, 2006, 1940, 1981, 1934, 2002, 1990, 1965, 1981, 1943, 1981, 1946, 2000, 1968, 1975, 1987, 1955, 1995, 1951, 1981, 1952, 2000, 1962, 1957, 1975, 1957, 1987, 1939, 1967, 1942, 1974, 1946, 1995, 1997, 1970, 1983, 1954, 1987, 1927, 1960, 1960, 1983, 1972, 1943, 1993, 1945, 1977, 1957, 1978, 1973, 1988, 1991, 1945, 1978, 1993, 1955, 1994, 1948, 1996, 1950, 1986, 2002, 1958, 1998, 1932, 1963, 1948, 1972, 2000, 1955, 1994, 1936, 1979, 1992, 1964, 1988, 1947, 1941, 1981, 1961, 1971, 1969, 1936, 1976, 1985, 1934, 1956, 1903],
      "WindowCenter": [594.0, 592.0, 589.0, 589.0, 589.0, 589.0, 590.0, 592.0, 592.0, 593.0, 594.0, 593.0, 593.0, 593.0, 592.0, 593.0, 594.0, 593.0, 594.0, 593.0, 594.0, 594.0, 593.0, 594.0, 593.0, 593.0, 595.0, 594.0, 595.0, 594.0, 594.0, 595.0, 594.0, 595.0, 594.0, 594.0, 594.0, 594.0, 595.0, 594.0, 595.0, 594.0, 595.0, 594.0, 594.0, 594.0, 594.0, 594.0, 593.0, 594.0, 594.0, 594.0, 595.0, 595.0, 595.0, 594.0, 594.0, 594.0, 595.0, 594.0, 594.0, 595.0, 595.0, 596.0, 595.0, 595.0, 594.0, 595.0, 594.0, 595.0, 595.0, 595.0, 595.0, 595.0, 595.0, 594.0, 595.0, 594.0, 595.0, 595.0, 595.0, 595.0, 594.0, 595.0, 595.0, 595.0, 594.0, 595.0, 595.0, 594.0, 595.0, 595.0, 595.0, 595.0, 594.0, 595.0, 594.0, 594.0, 594.0, 593.0, 594.0, 594.0, 595.0, 595.0, 595.0, 595.0, 594.0, 595.0, 594.0, 594.0, 594.0, 594.0, 594.0, 593.0, 593.0, 594.0, 594.0, 594.0, 593.0, 593.0, 594.0, 593.0, 593.0, 593.0, 592.0],
      "WindowWidth": [1266.0, 1261.0, 1257.0, 1257.0, 1257.0, 1257.0, 1259.0, 1262.0, 1263.0, 1264.0, 1266.0, 1264.0, 1264.0, 1266.0, 1264.0, 1266.0, 1267.0, 1265.0, 1267.0, 1266.0, 1266.0, 1266.0, 1266.0, 1267.0, 1266.0, 1266.0, 1268.0, 1268.0, 1269.0, 1268.0, 1268.0, 1269.0, 1268.0, 1269.0, 1268.0, 1268.0, 1268.0, 1268.0, 1270.0, 1267.0, 1269.0, 1267.0, 1269.0, 1267.0, 1268.0, 1267.0, 1267.0, 1267.0, 1266.0, 1268.0, 1267.0, 1268.0, 1268.0, 1269.0, 1270.0, 1268.0, 1268.0, 1266.0, 1268.0, 1266.0, 1268.0, 1269.0, 1270.0, 1271.0, 1269.0, 1269.0, 1268.0, 1269.0, 1268.0, 1270.0, 1269.0, 1269.0, 1268.0, 1269.0, 1269.0, 1268.0, 1269.0, 1269.0, 1270.0, 1270.0, 1269.0, 1269.0, 1268.0, 1269.0, 1269.0, 1269.0, 1268.0, 1269.0, 1269.0, 1267.0, 1269.0, 1269.0, 1269.0, 1270.0, 1268.0, 1270.0, 1267.0, 1267.0, 1266.0, 1265.0, 1267.0, 1267.0, 1269.0, 1269.0, 1270.0, 1269.0, 1268.0, 1269.0, 1268.0, 1268.0, 1268.0, 1267.0, 1267.0, 1264.0, 1266.0, 1267.0, 1267.0, 1267.0, 1265.0, 1264.0, 1266.0, 1265.0, 1265.0, 1266.0, 1263.0]
    },
    "slices": {}
  }
}