{
  "AcquisitionMatrixPE": 88,
  "AcquisitionNumber": 1,
  "AcquisitionTime": "16:20:31.067500",
  "BandwidthPerPixelPhaseEncode": 19.592,
  "BaseResolution": 88,
  "BodyPartExamined": "BRAIN",
  "ConsistencyInfo": "N4_VE11C_LATEST_20160120",
  "ConversionSoftware": "dcm2niix",
  "ConversionSoftwareVersion": "v1.0.20190902",
  "DerivedVendorReportedEchoSpacing": 0.000580014,
  "DeviceSerialNumber": "67050",
  "DwellTime": 2.6e-06,
  "EchoTime": 0.033,
  "EchoTrainLength": 88,
  "EffectiveEchoSpacing": 0.000580014,
  "FlipAngle": 62,
  "ImageOrientationPatientDICOM": [0.998846, 0.0440895, -0.0190532, -0.0465803, 0.985949, -0.16042],
  "ImageType": [
    "ORIGINAL",
    "PRIMARY",
    "M",
    "ND",
    "MOSAIC"
],
  "ImagingFrequency": 123.25,
  "InPlanePhaseEncodingDirectionDICOM": "COL",
  "InstitutionAddress": "Olive_Street_60_Providence_RI_US_02912",
  "InstitutionName": "BROWN_UNIVERSITY_MRF",
  "InstitutionalDepartmentName": "Department",
  "MRAcquisitionType": "2D",
  "MagneticFieldStrength": 3,
  "Manufacturer": "Siemens",
  "ManufacturersModelName": "Prisma_fit",
  "Modality": "MR",
  "MultibandAccelerationFactor": 4,
  "PartialFourier": 1,
  "PatientPosition": "HFS",
  "PercentPhaseFOV": 100,
  "PhaseEncodingDirection": "j-",
  "PhaseEncodingSteps": 88,
  "PhaseResolution": 1,
  "PixelBandwidth": 2185,
  "ProcedureStepDescription": "ASHENHAV_1222",
  "ProtocolName": "func-bold_task-RDMmotion_run-06",
  "PulseSequenceDetails": "%SiemensSeq%_ep2d_bold",
  "ReceiveCoilActiveElements": "HC1-7;NC1",
  "ReceiveCoilName": "HeadNeck_64",
  "ReconMatrixPE": 88,
  "RefLinesPE": 8,
  "RepetitionTime": 1.2,
  "SAR": 0.0442336,
  "ScanOptions": "FS",
  "ScanningSequence": "EP",
  "SequenceName": "_epfid2d1_88",
  "SequenceVariant": "SK",
  "SeriesDescription": "func-bold_task-RDMmotion_run-06",
  "SeriesNumber": 17,
  "ShimSetting": [1747, -9098, 4389, 591, -72, -377, -51, -2],
  "SliceThickness": 2.4,
  "SliceTiming": [0.55, 0, 0.63, 0.08, 0.7075, 0.1575, 0.7875, 0.2375, 0.865, 0.315, 0.945, 0.3925, 1.0225, 0.4725, 1.1025, 0.55, 0, 0.63, 0.08, 0.7075, 0.1575, 0.7875, 0.2375, 0.865, 0.315, 0.945, 0.3925, 1.0225, 0.4725, 1.1025, 0.55, 0, 0.63, 0.08, 0.7075, 0.1575, 0.7875, 0.2375, 0.865, 0.315, 0.945, 0.3925, 1.0225, 0.4725, 1.1025, 0.55, 0, 0.63, 0.08, 0.7075, 0.1575, 0.7875, 0.2375, 0.865, 0.315, 0.945, 0.3925, 1.0225, 0.4725, 1.1025],
  "SoftwareVersions": "syngo_MR_E11",
  "SpacingBetweenSlices": 2.4,
  "StationName": "AWP67050",
  "TaskName": "RDMmotion",
  "TotalReadoutTime": 0.0504612,
  "TxRefAmp": 219.976,
  "dcmmeta_affine": [
    [-2.3949599266052246, -0.11168679594993591, -0.028110405430197716, 111.6758041381836],
    [-0.1057145819067955, 2.364037275314331, -0.3866933584213257, -82.14633178710938],
    [-0.04568440839648247, 0.3846430778503418, 2.368475914001465, -82.95899200439453],
    [0.0, 0.0, 0.0, 1.0]
],
  "dcmmeta_reorient_transform": [
    [0.0, -1.0, 0.0, 87.0],
    [1.0, 0.0, 0.0, 0.0],
    [0.0, 0.0, 1.0, 0.0],
    [0.0, 0.0, 0.0, 1.0]
],
  "dcmmeta_shape": [88, 88, 60, 125],
  "dcmmeta_slice_dim": 2,
  "dcmmeta_version": 0.6,
  "global": {
    "const": {
      "AcquisitionMatrix": [88, 0, 0, 88],
      "AngioFlag": "N",
      "BitsAllocated": 16,
      "BitsStored": 12,
      "BodyPartExamined": "BRAIN",
      "Columns": 704,
      "DeidentificationMethodCodeSequence": [
        {
          "CodeMeaning": "XNAT DicomEdit 6 Script",
          "CodeValue": "3",
          "CodingSchemeDesignator": "XNAT",
          "CodingSchemeVersion": "1.0"}
],
      "EchoNumbers": 1,
      "EchoTime": 33.0,
      "EchoTrainLength": 88,
      "FlipAngle": 62.0,
      "HighBit": 11,
      "ImageOrientationPatient": [0.99884587972585, 0.04408949545136, -0.0190532135228, -0.0465802741863, 0.98594915906, -0.160419867241],
      "ImagePositionPatient": [-805.20719874325, -884.20844388056, 83.045827806594],
      "ImageType": [
        "ORIGINAL",
        "PRIMARY",
        "M",
        "ND",
        "MOSAIC"
],
      "ImagedNucleus": "1H",
      "ImagingFrequency": 123.25001,
      "InPlanePhaseEncodingDirection": "COL",
      "MRAcquisitionType": "2D",
      "MagneticFieldStrength": 3.0,
      "Manufacturer": "SIEMENS",
      "ManufacturerModelName": "Prisma_fit",
      "Modality": "MR",
      "NumberOfAverages": 1.0,
      "NumberOfPhaseEncodingSteps": 88,
      "PercentPhaseFieldOfView": 100.0,
      "PercentSampling": 100.0,
      "PerformedProcedureStepStartTime": "150517.931000",
      "PhotometricInterpretation": "MONOCHROME2",
      "PixelBandwidth": 2185.0,
      "PixelRepresentation": 0,
      "PixelSpacing": [2.3977272510529, 2.3977272510529],
      "ProtocolName": "func-bold_task-RDMmotion_run-06",
      "RepetitionTime": 1200.0,
      "Rows": 704,
      "SAR": 0.04423360548933,
      "SamplesPerPixel": 1,
      "ScanOptions": "FS",
      "ScanningSequence": "EP",
      "SequenceName": "*epfid2d1_88",
      "SequenceVariant": "SK",
      "SeriesDescription": "func-bold_task-RDMmotion_run-06",
      "SeriesNumber": 17,
      "SeriesTime": "162113.345000",
      "SliceLocation": -69.941741972124,
      "SliceThickness": 2.4000000953674,
      "SmallestImagePixelValue": 0,
      "SoftwareVersions": "syngo MR E11",
      "SpacingBetweenSlices": 2.4000000679793,
      "SpecificCharacterSet": "ISO_IR 100",
      "StudyID": "1",
      "StudyTime": "150517.870000",
      "TransmitCoilName": "Body",
      "VariableFlipAngleFlag": "N",
      "WindowCenterWidthExplanation": "Algo1",
      "dBdt": 0.0},
    "slices": {}
  },
  "time": {
    "samples": {
      "AcquisitionNumber": [1, 2, 3, 4, 5, 6, 7, 8, 9, 10, 11, 12, 13, 14, 15, 16, 17, 18, 19, 20, 21, 22, 23, 24, 25, 26, 27, 28, 29, 30, 31, 32, 33, 34, 35, 36, 37, 38, 39, 40, 41, 42, 43, 44, 45, 46, 47, 48, 49, 50, 51, 52, 53, 54, 55, 56, 57, 58, 59, 60, 61, 62, 63, 64, 65, 66, 67, 68, 69, 70, 71, 72, 73, 74, 75, 76, 77, 78, 79, 80, 81, 82, 83, 84, 85, 86, 87, 88, 89, 90, 91, 92, 93, 94, 95, 96, 97, 98, 99, 100, 101, 102, 103, 104, 105, 106, 107, 108, 109, 110, 111, 112, 113, 114, 115, 116, 117, 118, 119, 120, 121, 122, 123, 124, 125],
      "AcquisitionTime": ["162031.067500", "162032.267500", "162033.467500", "162034.667500", "162035.867500", "162037.067500", "162038.267500", "162039.467500", "162040.667500", "162041.867500", "162043.067500", "162044.267500", "162045.467500", "162046.667500", "162047.867500", "162049.067500", "162050.267500", "162051.467500", "162052.667500", "162053.867500", "162055.067500", "162056.267500", "162057.467500", "162058.667500", "162059.867500", "162101.067500", "162102.267500", "162103.467500", "162104.667500", "162105.867500", "162107.067500", "162108.267500", "162109.467500", "162110.667500", "162111.867500", "162113.067500", "162114.267500", "162115.467500", "162116.667500", "162117.867500", "162119.067500", "162120.267500", "162121.467500", "162122.667500", "162123.867500", "162125.067500", "162126.267500", "162127.467500", "162128.667500", "162129.867500", "162131.067500", "162132.267500", "162133.467500", "162134.667500", "162135.867500", "162137.067500", "162138.267500", "162139.467500", "162140.667500", "162141.867500", "162143.067500", "162144.267500", "162145.467500", "162146.667500", "162147.867500", "162149.067500", "162150.267500", "162151.467500", "162152.667500", "162153.867500", "162155.067500", "162156.267500", "162157.467500", "162158.667500", "162159.867500", "162201.067500", "162202.267500", "162203.467500", "162204.667500", "162205.867500", "162207.067500", "162208.267500", "162209.467500", "162210.667500", "162211.867500", "162213.067500", "162214.267500", "162215.467500", "162216.667500", "162217.867500", "162219.067500", "162220.267500", "162221.467500", "162222.667500", "162223.867500", "162225.067500", "162226.267500", "162227.467500", "162228.667500", "162229.867500", "162231.067500", "162232.267500", "162233.467500", "162234.667500", "162235.867500", "162237.067500", "162238.267500", "162239.467500", "162240.667500", "162241.867500", "162243.067500", "162244.267500", "162245.467500", "162246.667500", "162247.867500", "162249.067500", "162250.267500", "162251.467500", "162252.667500", "162253.867500", "162255.067500", "162256.267500", "162257.467500", "162258.667500", "162259.867500"],
      "ContentTime": ["162113.348000", "162113.351000", "162113.354000", "162113.357000", "162113.359000", "162113.362000", "162113.364000", "162113.367000", "162113.370000", "162113.372000", "162113.375000", "162113.378000", "162113.385000", "162113.388000", "162113.390000", "162113.393000", "162113.396000", "162113.398000", "162113.401000", "162113.404000", "162113.406000", "162113.409000", "162113.411000", "162113.414000", "162113.417000", "162113.419000", "162113.441000", "162113.443000", "162113.446000", "162113.448000", "162113.451000", "162113.454000", "162113.456000", "162113.459000", "162153.344000", "162153.347000", "162153.350000", "162153.352000", "162153.355000", "162153.358000", "162153.360000", "162153.363000", "162153.366000", "162153.369000", "162153.371000", "162153.374000", "162153.376000", "162153.379000", "162153.388000", "162153.390000", "162153.393000", "162153.396000", "162153.398000", "162153.401000", "162153.403000", "162153.406000", "162153.408000", "162153.411000", "162153.414000", "162153.416000", "162153.419000", "162153.422000", "162153.424000", "162153.427000", "162153.429000", "162153.432000", "162153.435000", "162153.437000", "162233.345000", "162233.347000", "162233.350000", "162233.353000", "162233.355000", "162233.358000", "162233.360000", "162233.363000", "162233.366000", "162233.368000", "162233.371000", "162233.374000", "162233.376000", "162233.379000", "162233.381000", "162233.384000", "162233.386000", "162233.389000", "162233.391000", "162233.394000", "162233.396000", "162233.399000", "162233.402000", "162233.404000", "162233.407000", "162233.409000", "162233.412000", "162233.414000", "162233.417000", "162233.420000", "162233.422000", "162233.425000", "162233.427000", "162301.703000", "162301.706000", "162301.716000", "162301.719000", "162301.722000", "162301.724000", "162301.727000", "162301.730000", "162301.732000", "162301.735000", "162301.738000", "162301.740000", "162301.743000", "162301.745000", "162301.748000", "162301.751000", "162301.754000", "162301.756000", "162301.759000", "162301.762000", "162301.764000", "162301.767000", "162301.769000", "162301.772000"],
      "InstanceCreationTime": ["162113.348000", "162113.351000", "162113.354000", "162113.357000", "162113.359000", "162113.362000", "162113.364000", "162113.367000", "162113.370000", "162113.372000", "162113.375000", "162113.378000", "162113.385000", "162113.388000", "162113.390000", "162113.393000", "162113.396000", "162113.398000", "162113.401000", "162113.404000", "162113.406000", "162113.409000", "162113.411000", "162113.414000", "162113.417000", "162113.419000", "162113.441000", "162113.443000", "162113.446000", "162113.448000", "162113.451000", "162113.454000", "162113.456000", "162113.459000", "162153.344000", "162153.347000", "162153.350000", "162153.352000", "162153.355000", "162153.358000", "162153.360000", "162153.363000", "162153.366000", "162153.369000", "162153.371000", "162153.374000", "162153.376000", "162153.379000", "162153.388000", "162153.390000", "162153.393000", "162153.396000", "162153.398000", "162153.401000", "162153.403000", "162153.406000", "162153.408000", "162153.411000", "162153.414000", "162153.416000", "162153.419000", "162153.422000", "162153.424000", "162153.427000", "162153.429000", "162153.432000", "162153.435000", "162153.437000", "162233.345000", "162233.347000", "162233.350000", "162233.353000", "162233.355000", "162233.358000", "162233.360000", "162233.363000", "162233.366000", "162233.368000", "162233.371000", "162233.374000", "162233.376000", "162233.379000", "162233.381000", "162233.384000", "162233.386000", "162233.389000", "162233.391000", "162233.394000", "162233.396000", "162233.399000", "162233.402000", "162233.404000", "162233.407000", "162233.409000", "162233.412000", "162233.414000", "162233.417000", "162233.420000", "162233.422000", "162233.425000", "162233.427000", "162301.703000", "162301.706000", "162301.716000", "162301.719000", "162301.722000", "162301.724000", "162301.727000", "162301.730000", "162301.732000", "162301.735000", "162301.738000", "162301.740000", "162301.743000", "162301.745000", "162301.748000", "162301.751000", "162301.754000", "162301.756000", "162301.759000", "162301.762000", "162301.764000", "162301.767000", "162301.769000", "162301.772000"],
      "InstanceNumber": [1, 2, 3, 4, 5, 6, 7, 8, 9, 10, 11, 12, 13, 14, 15, 16, 17, 18, 19, 20, 21, 22, 23, 24, 25, 26, 27, 28, 29, 30, 31, 32, 33, 34, 35, 36, 37, 38, 39, 40, 41, 42, 43, 44, 45, 46, 47, 48, 49, 50, 51, 52, 53, 54, 55, 56, 57, 58, 59, 60, 61, 62, 63, 64, 65, 66, 67, 68, 69, 70, 71, 72, 73, 74, 75, 76, 77, 78, 79, 80, 81, 82, 83, 84, 85, 86, 87, 88, 89, 90, 91, 92, 93, 94, 95, 96, 97, 98, 99, 100, 101, 102, 103, 104, 105, 106, 107, 108, 109, 110, 111, 112, 113, 114, 115, 116, 117, 118, 119, 120, 121, 122, 123, 124, 125],
      "LargestImagePixelValue": [2035, 1970, 1996, 1931, 1974, 1934, 1930, 1957, 1908, 1969, 1947, 1988, 1952, 1925, 1970, 1914, 1940, 1915, 1953, 1976, 1921, 1962, 1916, 1946, 1916, 1949, 1928, 1937, 1959, 1911, 1968, 1902, 1964, 1923, 1972, 1946, 1953, 1946, 1937, 1972, 1927, 1970, 1917, 1952, 1913, 1924, 1929, 1917, 1966, 1912, 1942, 1960, 1955, 1972, 1927, 1974, 1908, 1938, 1932, 1912, 1939, 1937, 1958, 1941, 1948, 1969, 1943, 1979, 1930, 2003, 1938, 1962, 1931, 1905, 1964, 1911, 1960, 1943, 1946, 1943, 1904, 1997, 1929, 1957, 1930, 1927, 1958, 1906, 1944, 1909, 1965, 1956, 1930, 1961, 1932, 1957, 1897, 1933, 1949, 1941, 1963, 1912, 1937, 1881, 1908, 1954, 1949, 1959, 1939, 1969, 1922, 1968, 1928, 1933, 1936, 1917, 1998, 1938, 1947, 1977, 1993, 1947, 1925, 1920, 1907],
      "WindowCenter": [598.0, 595.0, 595.0, 593.0, 594.0, 593.0, 593.0, 593.0, 592.0, 594.0, 594.0, 595.0, 594.0, 593.0, 593.0, 592.0, 593.0, 592.0, 593.0, 593.0, 592.0, 593.0, 592.0, 593.0, 592.0, 593.0, 592.0, 593.0, 593.0, 593.0, 593.0, 592.0, 593.0, 593.0, 594.0, 593.0, 594.0, 593.0, 594.0, 594.0, 593.0, 593.0, 592.0, 593.0, 593.0, 593.0, 593.0, 594.0, 594.0, 593.0, 593.0, 593.0, 593.0, 593.0, 592.0, 593.0, 592.0, 593.0, 593.0, 593.0, 593.0, 593.0, 593.0, 593.0, 593.0, 593.0, 593.0, 594.0, 593.0, 593.0, 592.0, 592.0, 591.0, 591.0, 592.0, 592.0, 593.0, 593.0, 593.0, 592.0, 592.0, 594.0, 593.0, 593.0, 593.0, 593.0, 593.0, 592.0, 593.0, 592.0, 594.0, 594.0, 594.0, 594.0, 593.0, 593.0, 592.0, 593.0, 593.0, 593.0, 593.0, 592.0, 593.0, 592.0, 593.0, 594.0, 594.0, 594.0, 594.0, 594.0, 593.0, 594.0, 593.0, 594.0, 594.0, 594.0, 595.0, 593.0, 594.0, 594.0, 595.0, 592.0, 590.0, 589.0, 589.0],
      "WindowWidth": [1275.0, 1270.0, 1268.0, 1266.0, 1267.0, 1265.0, 1266.0, 1266.0, 1264.0, 1267.0, 1267.0, 1268.0, 1267.0, 1264.0, 1265.0, 1264.0, 1265.0, 1264.0, 1265.0, 1265.0, 1263.0, 1264.0, 1264.0, 1265.0, 1264.0, 1265.0, 1264.0, 1265.0, 1265.0, 1265.0, 1265.0, 1264.0, 1266.0, 1265.0, 1267.0, 1265.0, 1267.0, 1266.0, 1266.0, 1267.0, 1265.0, 1266.0, 1264.0, 1265.0, 1265.0, 1266.0, 1266.0, 1267.0, 1268.0, 1266.0, 1265.0, 1264.0, 1265.0, 1264.0, 1263.0, 1264.0, 1263.0, 1265.0, 1265.0, 1266.0, 1266.0, 1266.0, 1266.0, 1265.0, 1265.0, 1265.0, 1266.0, 1267.0, 1265.0, 1265.0, 1263.0, 1262.0, 1261.0, 1261.0, 1262.0, 1262.0, 1264.0, 1264.0, 1264.0, 1264.0, 1263.0, 1266.0, 1264.0, 1266.0, 1264.0, 1264.0, 1265.0, 1264.0, 1265.0, 1264.0, 1267.0, 1268.0, 1268.0, 1266.0, 1266.0, 1266.0, 1264.0, 1266.0, 1266.0, 1266.0, 1265.0, 1264.0, 1264.0, 1263.0, 1265.0, 1267.0, 1268.0, 1268.0, 1268.0, 1267.0, 1266.0, 1267.0, 1265.0, 1267.0, 1267.0, 1267.0, 1268.0, 1265.0, 1266.0, 1267.0, 1269.0, 1263.0, 1258.0, 1256.0, 1256.0]
    },
    "slices": {}
  }
}