{
  "AcquisitionMatrixPE": 88,
  "AcquisitionNumber": 1,
  "AcquisitionTime": "16:32:46.242500",
  "BandwidthPerPixelPhaseEncode": 19.592,
  "BaseResolution": 88,
  "BodyPartExamined": "BRAIN",
  "ConsistencyInfo": "N4_VE11C_LATEST_20160120",
  "ConversionSoftware": "dcm2niix",
  "ConversionSoftwareVersion": "v1.0.20190902",
  "DerivedVendorReportedEchoSpacing": 0.000580014,
  "DeviceSerialNumber": "67050",
  "DwellTime": 2.6e-06,
  "EchoTime": 0.033,
  "EchoTrainLength": 88,
  "EffectiveEchoSpacing": 0.000580014,
  "FlipAngle": 62,
  "ImageOrientationPatientDICOM": [0.998846, 0.0440895, -0.0190532, -0.0465803, 0.985949, -0.16042],
  "ImageType": [
    "ORIGINAL",
    "PRIMARY",
    "M",
    "ND",
    "MOSAIC"
],
  "ImagingFrequency": 123.25,
  "InPlanePhaseEncodingDirectionDICOM": "COL",
  "InstitutionAddress": "Olive_Street_60_Providence_RI_US_02912",
  "InstitutionName": "BROWN_UNIVERSITY_MRF",
  "InstitutionalDepartmentName": "Department",
  "MRAcquisitionType": "2D",
  "MagneticFieldStrength": 3,
  "Manufacturer": "Siemens",
  "ManufacturersModelName": "Prisma_fit",
  "Modality": "MR",
  "MultibandAccelerationFactor": 4,
  "PartialFourier": 1,
  "PatientPosition": "HFS",
  "PercentPhaseFOV": 100,
  "PhaseEncodingDirection": "j-",
  "PhaseEncodingSteps": 88,
  "PhaseResolution": 1,
  "PixelBandwidth": 2185,
  "ProcedureStepDescription": "ASHENHAV_1222",
  "ProtocolName": "func-bold_task-RDMlocalizer_run-01",
  "PulseSequenceDetails": "%SiemensSeq%_ep2d_bold",
  "ReceiveCoilActiveElements": "HC1-7;NC1",
  "ReceiveCoilName": "HeadNeck_64",
  "ReconMatrixPE": 88,
  "RefLinesPE": 8,
  "RepetitionTime": 1.2,
  "SAR": 0.0444686,
  "ScanOptions": "FS",
  "ScanningSequence": "EP",
  "SequenceName": "_epfid2d1_88",
  "SequenceVariant": "SK",
  "SeriesDescription": "func-bold_task-RDMlocalizer_run-01",
  "SeriesNumber": 19,
  "ShimSetting": [1747, -9098, 4389, 591, -72, -377, -51, -2],
  "SliceThickness": 2.4,
  "SliceTiming": [0.55, 0, 0.6275, 0.0775, 0.7075, 0.1575, 0.785, 0.235, 0.865, 0.3125, 0.9425, 0.3925, 1.0225, 0.47, 1.1, 0.55, 0, 0.6275, 0.0775, 0.7075, 0.1575, 0.785, 0.235, 0.865, 0.3125, 0.9425, 0.3925, 1.0225, 0.47, 1.1, 0.55, 0, 0.6275, 0.0775, 0.7075, 0.1575, 0.785, 0.235, 0.865, 0.3125, 0.9425, 0.3925, 1.0225, 0.47, 1.1, 0.55, 0, 0.6275, 0.0775, 0.7075, 0.1575, 0.785, 0.235, 0.865, 0.3125, 0.9425, 0.3925, 1.0225, 0.47, 1.1],
  "SoftwareVersions": "syngo_MR_E11",
  "SpacingBetweenSlices": 2.4,
  "StationName": "AWP67050",
  "TaskName": "RDMlocalizer",
  "TotalReadoutTime": 0.0504612,
  "TxRefAmp": 219.976,
  "dcmmeta_affine": [
    [-2.3949599266052246, -0.11168679594993591, -0.028110405430197716, 111.6758041381836],
    [-0.1057145819067955, 2.364037275314331, -0.3866933584213257, -82.14633178710938],
    [-0.04568440839648247, 0.3846430778503418, 2.368475914001465, -82.95899200439453],
    [0.0, 0.0, 0.0, 1.0]
],
  "dcmmeta_reorient_transform": [
    [0.0, -1.0, 0.0, 87.0],
    [1.0, 0.0, 0.0, 0.0],
    [0.0, 0.0, 1.0, 0.0],
    [0.0, 0.0, 0.0, 1.0]
],
  "dcmmeta_shape": [88, 88, 60, 195],
  "dcmmeta_slice_dim": 2,
  "dcmmeta_version": 0.6,
  "global": {
    "const": {
      "AcquisitionMatrix": [88, 0, 0, 88],
      "AngioFlag": "N",
      "BitsAllocated": 16,
      "BitsStored": 12,
      "BodyPartExamined": "BRAIN",
      "Columns": 704,
      "DeidentificationMethodCodeSequence": [
        {
          "CodeMeaning": "XNAT DicomEdit 6 Script",
          "CodeValue": "3",
          "CodingSchemeDesignator": "XNAT",
          "CodingSchemeVersion": "1.0"}
],
      "EchoNumbers": 1,
      "EchoTime": 33.0,
      "EchoTrainLength": 88,
      "FlipAngle": 62.0,
      "HighBit": 11,
      "ImageOrientationPatient": [0.99884587972585, 0.04408949545136, -0.0190532135228, -0.0465802741863, 0.98594915906, -0.160419867241],
      "ImagePositionPatient": [-805.20719874325, -884.20844388056, 83.045827806594],
      "ImageType": [
        "ORIGINAL",
        "PRIMARY",
        "M",
        "ND",
        "MOSAIC"
],
      "ImagedNucleus": "1H",
      "ImagingFrequency": 123.250011,
      "InPlanePhaseEncodingDirection": "COL",
      "MRAcquisitionType": "2D",
      "MagneticFieldStrength": 3.0,
      "Manufacturer": "SIEMENS",
      "ManufacturerModelName": "Prisma_fit",
      "Modality": "MR",
      "NumberOfAverages": 1.0,
      "NumberOfPhaseEncodingSteps": 88,
      "PercentPhaseFieldOfView": 100.0,
      "PercentSampling": 100.0,
      "PerformedProcedureStepStartTime": "150517.931000",
      "PhotometricInterpretation": "MONOCHROME2",
      "PixelBandwidth": 2185.0,
      "PixelRepresentation": 0,
      "PixelSpacing": [2.3977272510529, 2.3977272510529],
      "ProtocolName": "func-bold_task-RDMlocalizer_run-01",
      "RepetitionTime": 1200.0,
      "Rows": 704,
      "SAR": 0.04446862964592,
      "SamplesPerPixel": 1,
      "ScanOptions": "FS",
      "ScanningSequence": "EP",
      "SequenceName": "*epfid2d1_88",
      "SequenceVariant": "SK",
      "SeriesDescription": "func-bold_task-RDMlocalizer_run-01",
      "SeriesNumber": 19,
      "SeriesTime": "163320.128000",
      "SliceLocation": -69.941741972124,
      "SliceThickness": 2.4000000953674,
      "SmallestImagePixelValue": 0,
      "SoftwareVersions": "syngo MR E11",
      "SpacingBetweenSlices": 2.4000000679793,
      "SpecificCharacterSet": "ISO_IR 100",
      "StudyID": "1",
      "StudyTime": "150517.870000",
      "TransmitCoilName": "Body",
      "VariableFlipAngleFlag": "N",
      "WindowCenterWidthExplanation": "Algo1",
      "dBdt": 0.0},
    "slices": {}
  },
  "time": {
    "samples": {
      "AcquisitionNumber": [1, 2, 3, 4, 5, 6, 7, 8, 9, 10, 11, 12, 13, 14, 15, 16, 17, 18, 19, 20, 21, 22, 23, 24, 25, 26, 27, 28, 29, 30, 31, 32, 33, 34, 35, 36, 37, 38, 39, 40, 41, 42, 43, 44, 45, 46, 47, 48, 49, 50, 51, 52, 53, 54, 55, 56, 57, 58, 59, 60, 61, 62, 63, 64, 65, 66, 67, 68, 69, 70, 71, 72, 73, 74, 75, 76, 77, 78, 79, 80, 81, 82, 83, 84, 85, 86, 87, 88, 89, 90, 91, 92, 93, 94, 95, 96, 97, 98, 99, 100, 101, 102, 103, 104, 105, 106, 107, 108, 109, 110, 111, 112, 113, 114, 115, 116, 117, 118, 119, 120, 121, 122, 123, 124, 125, 126, 127, 128, 129, 130, 131, 132, 133, 134, 135, 136, 137, 138, 139, 140, 141, 142, 143, 144, 145, 146, 147, 148, 149, 150, 151, 152, 153, 154, 155, 156, 157, 158, 159, 160, 161, 162, 163, 164, 165, 166, 167, 168, 169, 170, 171, 172, 173, 174, 175, 176, 177, 178, 179, 180, 181, 182, 183, 184, 185, 186, 187, 188, 189, 190, 191, 192, 193, 194, 195],
      "AcquisitionTime": ["163246.242500", "163247.442500", "163248.642500", "163249.842500", "163251.042500", "163252.242500", "163253.442500", "163254.642500", "163255.842500", "163257.042500", "163258.242500", "163259.442500", "163300.642500", "163301.842500", "163303.042500", "163304.242500", "163305.442500", "163306.642500", "163307.842500", "163309.042500", "163310.242500", "163311.442500", "163312.642500", "163313.842500", "163315.042500", "163316.242500", "163317.442500", "163318.642500", "163319.842500", "163321.042500", "163322.242500", "163323.442500", "163324.642500", "163325.842500", "163327.042500", "163328.242500", "163329.442500", "163330.642500", "163331.842500", "163333.042500", "163334.242500", "163335.442500", "163336.642500", "163337.842500", "163339.042500", "163340.242500", "163341.442500", "163342.642500", "163343.842500", "163345.042500", "163346.242500", "163347.442500", "163348.642500", "163349.842500", "163351.042500", "163352.242500", "163353.442500", "163354.642500", "163355.842500", "163357.042500", "163358.242500", "163359.442500", "163400.642500", "163401.842500", "163403.042500", "163404.242500", "163405.442500", "163406.642500", "163407.842500", "163409.042500", "163410.242500", "163411.442500", "163412.642500", "163413.842500", "163415.042500", "163416.242500", "163417.442500", "163418.642500", "163419.842500", "163421.042500", "163422.242500", "163423.442500", "163424.642500", "163425.842500", "163427.042500", "163428.242500", "163429.442500", "163430.642500", "163431.842500", "163433.042500", "163434.242500", "163435.442500", "163436.642500", "163437.842500", "163439.042500", "163440.242500", "163441.442500", "163442.642500", "163443.842500", "163445.042500", "163446.242500", "163447.442500", "163448.642500", "163449.842500", "163451.042500", "163452.242500", "163453.442500", "163454.642500", "163455.842500", "163457.042500", "163458.242500", "163459.442500", "163500.642500", "163501.842500", "163503.042500", "163504.242500", "163505.442500", "163506.642500", "163507.842500", "163509.042500", "163510.242500", "163511.442500", "163512.642500", "163513.842500", "163515.042500", "163516.242500", "163517.442500", "163518.642500", "163519.842500", "163521.042500", "163522.242500", "163523.442500", "163524.642500", "163525.842500", "163527.042500", "163528.242500", "163529.442500", "163530.642500", "163531.842500", "163533.042500", "163534.242500", "163535.442500", "163536.642500", "163537.842500", "163539.042500", "163540.242500", "163541.442500", "163542.642500", "163543.842500", "163545.042500", "163546.242500", "163547.442500", "163548.642500", "163549.842500", "163551.042500", "163552.242500", "163553.442500", "163554.642500", "163555.842500", "163557.042500", "163558.242500", "163559.442500", "163600.642500", "163601.842500", "163603.042500", "163604.242500", "163605.442500", "163606.642500", "163607.842500", "163609.042500", "163610.242500", "163611.442500", "163612.642500", "163613.842500", "163615.042500", "163616.242500", "163617.442500", "163618.642500", "163619.842500", "163621.042500", "163622.242500", "163623.442500", "163624.642500", "163625.842500", "163627.042500", "163628.242500", "163629.442500", "163630.642500", "163631.842500", "163633.042500", "163634.242500", "163635.442500", "163636.642500", "163637.842500", "163639.042500"],
      "ContentTime": ["163320.131000", "163320.134000", "163320.137000", "163320.140000", "163320.143000", "163320.145000", "163320.148000", "163320.150000", "163320.153000", "163320.155000", "163320.158000", "163320.160000", "163320.163000", "163320.166000", "163320.168000", "163320.171000", "163320.174000", "163320.179000", "163320.181000", "163320.184000", "163320.186000", "163320.189000", "163320.191000", "163320.194000", "163320.197000", "163320.199000", "163320.202000", "163320.205000", "163400.126000", "163400.129000", "163400.132000", "163400.135000", "163400.137000", "163400.140000", "163400.142000", "163400.145000", "163400.147000", "163400.150000", "163400.152000", "163400.157000", "163400.159000", "163400.162000", "163400.165000", "163400.167000", "163400.170000", "163400.172000", "163400.175000", "163400.177000", "163400.180000", "163400.183000", "163400.185000", "163400.188000", "163400.199000", "163400.202000", "163400.205000", "163400.207000", "163400.210000", "163400.213000", "163400.215000", "163400.218000", "163400.220000", "163440.128000", "163440.130000", "163440.133000", "163440.136000", "163440.139000", "163440.141000", "163440.144000", "163440.147000", "163440.149000", "163440.152000", "163440.154000", "163440.157000", "163440.160000", "163440.162000", "163440.165000", "163440.167000", "163440.170000", "163440.172000", "163440.175000", "163440.178000", "163440.180000", "163440.183000", "163440.186000", "163440.188000", "163440.191000", "163440.193000", "163440.196000", "163440.199000", "163440.201000", "163440.204000", "163440.207000", "163440.209000", "163440.218000", "163520.127000", "163520.130000", "163520.133000", "163520.135000", "163520.138000", "163520.141000", "163520.143000", "163520.146000", "163520.148000", "163520.151000", "163520.154000", "163520.156000", "163520.159000", "163520.162000", "163520.164000", "163520.167000", "163520.169000", "163520.172000", "163520.174000", "163520.177000", "163520.179000", "163520.182000", "163520.184000", "163520.187000", "163520.190000", "163520.192000", "163520.195000", "163520.197000", "163520.200000", "163520.202000", "163520.205000", "163520.208000", "163520.210000", "163520.213000", "163600.126000", "163600.129000", "163600.132000", "163600.134000", "163600.137000", "163600.140000", "163600.142000", "163600.145000", "163600.148000", "163600.150000", "163600.153000", "163600.155000", "163600.158000", "163600.161000", "163600.163000", "163600.166000", "163600.169000", "163600.171000", "163600.174000", "163600.176000", "163600.179000", "163600.182000", "163600.184000", "163600.187000", "163600.189000", "163600.192000", "163600.195000", "163600.197000", "163600.200000", "163600.202000", "163600.205000", "163600.208000", "163600.210000", "163640.127000", "163640.129000", "163640.133000", "163640.136000", "163640.139000", "163640.142000", "163640.146000", "163640.148000", "163640.152000", "163640.155000", "163640.159000", "163640.162000", "163640.164000", "163640.167000", "163640.170000", "163640.173000", "163640.176000", "163640.179000", "163640.182000", "163640.185000", "163640.187000", "163640.190000", "163640.193000", "163640.196000", "163640.198000", "163640.201000", "163640.204000", "163640.207000", "163640.209000", "163640.212000", "163640.215000", "163640.217000", "163640.220000", "163640.502000"],
      "InstanceCreationTime": ["163320.131000", "163320.134000", "163320.137000", "163320.140000", "163320.143000", "163320.145000", "163320.148000", "163320.150000", "163320.153000", "163320.155000", "163320.158000", "163320.160000", "163320.163000", "163320.166000", "163320.168000", "163320.171000", "163320.174000", "163320.179000", "163320.181000", "163320.184000", "163320.186000", "163320.189000", "163320.191000", "163320.194000", "163320.197000", "163320.199000", "163320.202000", "163320.205000", "163400.126000", "163400.129000", "163400.132000", "163400.135000", "163400.137000", "163400.140000", "163400.142000", "163400.145000", "163400.147000", "163400.150000", "163400.152000", "163400.157000", "163400.159000", "163400.162000", "163400.165000", "163400.167000", "163400.170000", "163400.172000", "163400.175000", "163400.177000", "163400.180000", "163400.183000", "163400.185000", "163400.188000", "163400.199000", "163400.202000", "163400.205000", "163400.207000", "163400.210000", "163400.213000", "163400.215000", "163400.218000", "163400.220000", "163440.128000", "163440.130000", "163440.133000", "163440.136000", "163440.139000", "163440.141000", "163440.144000", "163440.147000", "163440.149000", "163440.152000", "163440.154000", "163440.157000", "163440.160000", "163440.162000", "163440.165000", "163440.167000", "163440.170000", "163440.172000", "163440.175000", "163440.178000", "163440.180000", "163440.183000", "163440.186000", "163440.188000", "163440.191000", "163440.193000", "163440.196000", "163440.199000", "163440.201000", "163440.204000", "163440.207000", "163440.209000", "163440.218000", "163520.127000", "163520.130000", "163520.133000", "163520.135000", "163520.138000", "163520.141000", "163520.143000", "163520.146000", "163520.148000", "163520.151000", "163520.154000", "163520.156000", "163520.159000", "163520.162000", "163520.164000", "163520.167000", "163520.169000", "163520.172000", "163520.174000", "163520.177000", "163520.179000", "163520.182000", "163520.184000", "163520.187000", "163520.190000", "163520.192000", "163520.195000", "163520.197000", "163520.200000", "163520.202000", "163520.205000", "163520.208000", "163520.210000", "163520.213000", "163600.126000", "163600.129000", "163600.132000", "163600.134000", "163600.137000", "163600.140000", "163600.142000", "163600.145000", "163600.148000", "163600.150000", "163600.153000", "163600.155000", "163600.158000", "163600.161000", "163600.163000", "163600.166000", "163600.169000", "163600.171000", "163600.174000", "163600.176000", "163600.179000", "163600.182000", "163600.184000", "163600.187000", "163600.189000", "163600.192000", "163600.195000", "163600.197000", "163600.200000", "163600.202000", "163600.205000", "163600.208000", "163600.210000", "163640.127000", "163640.129000", "163640.133000", "163640.136000", "163640.139000", "163640.142000", "163640.146000", "163640.148000", "163640.152000", "163640.155000", "163640.159000", "163640.162000", "163640.164000", "163640.167000", "163640.170000", "163640.173000", "163640.176000", "163640.179000", "163640.182000", "163640.185000", "163640.187000", "163640.190000", "163640.193000", "163640.196000", "163640.198000", "163640.201000", "163640.204000", "163640.207000", "163640.209000", "163640.212000", "163640.215000", "163640.217000", "163640.220000", "163640.502000"],
      "InstanceNumber": [1, 2, 3, 4, 5, 6, 7, 8, 9, 10, 11, 12, 13, 14, 15, 16, 17, 18, 19, 20, 21, 22, 23, 24, 25, 26, 27, 28, 29, 30, 31, 32, 33, 34, 35, 36, 37, 38, 39, 40, 41, 42, 43, 44, 45, 46, 47, 48, 49, 50, 51, 52, 53, 54, 55, 56, 57, 58, 59, 60, 61, 62, 63, 64, 65, 66, 67, 68, 69, 70, 71, 72, 73, 74, 75, 76, 77, 78, 79, 80, 81, 82, 83, 84, 85, 86, 87, 88, 89, 90, 91, 92, 93, 94, 95, 96, 97, 98, 99, 100, 101, 102, 103, 104, 105, 106, 107, 108, 109, 110, 111, 112, 113, 114, 115, 116, 117, 118, 119, 120, 121, 122, 123, 124, 125, 126, 127, 128, 129, 130, 131, 132, 133, 134, 135, 136, 137, 138, 139, 140, 141, 142, 143, 144, 145, 146, 147, 148, 149, 150, 151, 152, 153, 154, 155, 156, 157, 158, 159, 160, 161, 162, 163, 164, 165, 166, 167, 168, 169, 170, 171, 172, 173, 174, 175, 176, 177, 178, 179, 180, 181, 182, 183, 184, 185, 186, 187, 188, 189, 190, 191, 192, 193, 194, 195],
      "LargestImagePixelValue": [2055, 2001, 1964, 1958, 1963, 1950, 1940, 1954, 1974, 1978, 1977, 1981, 1972, 1949, 1968, 1971, 1960, 1963, 1969, 1986, 1959, 1972, 2001, 1969, 1965, 1996, 1974, 1987, 1999, 1949, 1985, 1971, 1952, 1979, 1936, 1951, 1997, 1953, 1972, 1939, 1953, 1956, 1927, 1958, 1976, 1947, 1957, 1933, 1979, 1982, 1981, 1991, 1981, 1993, 1991, 1980, 1991, 1965, 1993, 1957, 1957, 1940, 1976, 1990, 1948, 1991, 1943, 1958, 2003, 1963, 1997, 1974, 1955, 2020, 1970, 2003, 1968, 1948, 2007, 1968, 1994, 1974, 2002, 1957, 1974, 2008, 1959, 1976, 1954, 1952, 1952, 1940, 1984, 1936, 1963, 1954, 1946, 1964, 1949, 1947, 1960, 1945, 1964, 1950, 1973, 1966, 1968, 2011, 1970, 2004, 1965, 1949, 2002, 1973, 1983, 1979, 1936, 1963, 1958, 1936, 1948, 1927, 1967, 1964, 1942, 1984, 1945, 1944, 1967, 1945, 1973, 1939, 1947, 1943, 1946, 1983, 1947, 2003, 1954, 1987, 1953, 1961, 1971, 1938, 1970, 1912, 1970, 1956, 1966, 1984, 1941, 1980, 1947, 1970, 1950, 1957, 1948, 1962, 1975, 1974, 1962, 1991, 1951, 1983, 1954, 1969, 1992, 1966, 1994, 1937, 1982, 1943, 1947, 1991, 1963, 1994, 1956, 1957, 2001, 1992, 1994, 1992, 1948, 1983, 1978, 1980, 2002, 1971, 1998, 1984, 2005, 2026, 1975, 2008, 1991],
      "WindowCenter": [597.0, 594.0, 592.0, 592.0, 591.0, 592.0, 592.0, 592.0, 592.0, 592.0, 591.0, 591.0, 591.0, 592.0, 593.0, 593.0, 593.0, 593.0, 593.0, 593.0, 593.0, 593.0, 593.0, 593.0, 593.0, 594.0, 594.0, 594.0, 594.0, 593.0, 594.0, 593.0, 594.0, 594.0, 593.0, 594.0, 594.0, 594.0, 594.0, 593.0, 594.0, 594.0, 593.0, 594.0, 594.0, 594.0, 594.0, 595.0, 596.0, 595.0, 595.0, 594.0, 594.0, 594.0, 594.0, 594.0, 595.0, 594.0, 594.0, 593.0, 594.0, 593.0, 593.0, 594.0, 593.0, 594.0, 593.0, 594.0, 594.0, 594.0, 594.0, 593.0, 593.0, 595.0, 594.0, 594.0, 593.0, 593.0, 594.0, 594.0, 594.0, 594.0, 594.0, 593.0, 593.0, 594.0, 593.0, 594.0, 593.0, 594.0, 593.0, 593.0, 593.0, 593.0, 593.0, 593.0, 593.0, 593.0, 593.0, 593.0, 593.0, 593.0, 593.0, 593.0, 594.0, 593.0, 593.0, 594.0, 594.0, 595.0, 594.0, 593.0, 593.0, 593.0, 593.0, 593.0, 592.0, 593.0, 593.0, 592.0, 593.0, 592.0, 593.0, 593.0, 593.0, 593.0, 592.0, 592.0, 592.0, 593.0, 594.0, 594.0, 593.0, 593.0, 594.0, 594.0, 594.0, 595.0, 593.0, 594.0, 593.0, 593.0, 593.0, 593.0, 593.0, 592.0, 593.0, 593.0, 594.0, 594.0, 594.0, 594.0, 593.0, 594.0, 593.0, 593.0, 593.0, 593.0, 593.0, 593.0, 593.0, 594.0, 594.0, 594.0, 593.0, 593.0, 594.0, 593.0, 594.0, 593.0, 594.0, 593.0, 593.0, 594.0, 594.0, 595.0, 594.0, 594.0, 594.0, 594.0, 594.0, 594.0, 594.0, 595.0, 595.0, 594.0, 594.0, 593.0, 594.0, 593.0, 594.0, 593.0, 593.0, 593.0, 593.0],
      "WindowWidth": [1274.0, 1267.0, 1263.0, 1262.0, 1261.0, 1263.0, 1262.0, 1263.0, 1263.0, 1263.0, 1261.0, 1260.0, 1261.0, 1262.0, 1265.0, 1265.0, 1265.0, 1266.0, 1266.0, 1265.0, 1265.0, 1266.0, 1266.0, 1266.0, 1266.0, 1267.0, 1266.0, 1267.0, 1267.0, 1265.0, 1267.0, 1266.0, 1266.0, 1267.0, 1266.0, 1268.0, 1268.0, 1267.0, 1267.0, 1266.0, 1267.0, 1266.0, 1265.0, 1267.0, 1267.0, 1267.0, 1268.0, 1269.0, 1271.0, 1270.0, 1269.0, 1268.0, 1268.0, 1268.0, 1268.0, 1268.0, 1268.0, 1266.0, 1267.0, 1266.0, 1267.0, 1265.0, 1266.0, 1266.0, 1265.0, 1266.0, 1266.0, 1267.0, 1268.0, 1267.0, 1267.0, 1266.0, 1265.0, 1268.0, 1267.0, 1268.0, 1266.0, 1266.0, 1267.0, 1267.0, 1268.0, 1268.0, 1268.0, 1265.0, 1266.0, 1266.0, 1265.0, 1267.0, 1266.0, 1267.0, 1266.0, 1265.0, 1266.0, 1264.0, 1266.0, 1265.0, 1265.0, 1266.0, 1265.0, 1265.0, 1264.0, 1265.0, 1265.0, 1265.0, 1267.0, 1264.0, 1265.0, 1267.0, 1268.0, 1269.0, 1268.0, 1266.0, 1266.0, 1264.0, 1265.0, 1265.0, 1264.0, 1265.0, 1265.0, 1264.0, 1265.0, 1263.0, 1266.0, 1265.0, 1264.0, 1265.0, 1263.0, 1264.0, 1264.0, 1264.0, 1266.0, 1266.0, 1266.0, 1265.0, 1266.0, 1268.0, 1267.0, 1268.0, 1266.0, 1267.0, 1266.0, 1266.0, 1266.0, 1265.0, 1265.0, 1263.0, 1266.0, 1266.0, 1268.0, 1268.0, 1267.0, 1267.0, 1265.0, 1266.0, 1265.0, 1266.0, 1265.0, 1265.0, 1266.0, 1266.0, 1266.0, 1267.0, 1266.0, 1267.0, 1266.0, 1266.0, 1267.0, 1266.0, 1267.0, 1265.0, 1267.0, 1265.0, 1265.0, 1267.0, 1267.0, 1269.0, 1268.0, 1268.0, 1268.0, 1268.0, 1268.0, 1268.0, 1268.0, 1268.0, 1268.0, 1268.0, 1267.0, 1266.0, 1266.0, 1265.0, 1266.0, 1265.0, 1265.0, 1265.0, 1265.0]
    },
    "slices": {}
  }
}