{
  "AcquisitionMatrixPE": 88,
  "AcquisitionNumber": 1,
  "AcquisitionTime": "15:20:48.177500",
  "BandwidthPerPixelPhaseEncode": 19.592,
  "BaseResolution": 88,
  "BodyPartExamined": "BRAIN",
  "ConsistencyInfo": "N4_VE11C_LATEST_20160120",
  "ConversionSoftware": "dcm2niix",
  "ConversionSoftwareVersion": "v1.0.20190902",
  "DerivedVendorReportedEchoSpacing": 0.000580014,
  "DeviceSerialNumber": "67050",
  "DwellTime": 2.6e-06,
  "EchoTime": 0.033,
  "EchoTrainLength": 88,
  "EffectiveEchoSpacing": 0.000580014,
  "FlipAngle": 62,
  "ImageOrientationPatientDICOM": [0.998846, 0.0440895, -0.0190532, -0.0465803, 0.985949, -0.16042],
  "ImageType": [
    "ORIGINAL",
    "PRIMARY",
    "M",
    "ND",
    "MOSAIC"
],
  "ImagingFrequency": 123.25,
  "InPlanePhaseEncodingDirectionDICOM": "COL",
  "InstitutionAddress": "Olive_Street_60_Providence_RI_US_02912",
  "InstitutionName": "BROWN_UNIVERSITY_MRF",
  "InstitutionalDepartmentName": "Department",
  "MRAcquisitionType": "2D",
  "MagneticFieldStrength": 3,
  "Manufacturer": "Siemens",
  "ManufacturersModelName": "Prisma_fit",
  "Modality": "MR",
  "MultibandAccelerationFactor": 4,
  "PartialFourier": 1,
  "PatientPosition": "HFS",
  "PercentPhaseFOV": 100,
  "PhaseEncodingDirection": "j-",
  "PhaseEncodingSteps": 88,
  "PhaseResolution": 1,
  "PixelBandwidth": 2185,
  "ProcedureStepDescription": "ASHENHAV_1222",
  "ProtocolName": "func-bold_task-RDMmotion_run-01",
  "PulseSequenceDetails": "%SiemensSeq%_ep2d_bold",
  "ReceiveCoilActiveElements": "HC1-7;NC1",
  "ReceiveCoilName": "HeadNeck_64",
  "ReconMatrixPE": 88,
  "RefLinesPE": 8,
  "RepetitionTime": 1.2,
  "SAR": 0.0442336,
  "ScanOptions": "FS",
  "ScanningSequence": "EP",
  "SequenceName": "_epfid2d1_88",
  "SequenceVariant": "SK",
  "SeriesDescription": "func-bold_task-RDMmotion_run-01",
  "SeriesNumber": 7,
  "ShimSetting": [1747, -9098, 4389, 591, -72, -377, -51, -2],
  "SliceThickness": 2.4,
  "SliceTiming": [0.55, 0, 0.63, 0.0775, 0.7075, 0.1575, 0.7875, 0.235, 0.865, 0.315, 0.945, 0.3925, 1.0225, 0.4725, 1.1, 0.55, 0, 0.63, 0.0775, 0.7075, 0.1575, 0.7875, 0.235, 0.865, 0.315, 0.945, 0.3925, 1.0225, 0.4725, 1.1, 0.55, 0, 0.63, 0.0775, 0.7075, 0.1575, 0.7875, 0.235, 0.865, 0.315, 0.945, 0.3925, 1.0225, 0.4725, 1.1, 0.55, 0, 0.63, 0.0775, 0.7075, 0.1575, 0.7875, 0.235, 0.865, 0.315, 0.945, 0.3925, 1.0225, 0.4725, 1.1],
  "SoftwareVersions": "syngo_MR_E11",
  "SpacingBetweenSlices": 2.4,
  "StationName": "AWP67050",
  "TaskName": "RDMmotion",
  "TotalReadoutTime": 0.0504612,
  "TxRefAmp": 219.976,
  "dcmmeta_affine": [
    [-2.3949599266052246, -0.11168679594993591, -0.028110405430197716, 111.6758041381836],
    [-0.1057145819067955, 2.364037275314331, -0.3866933584213257, -82.14633178710938],
    [-0.04568440839648247, 0.3846430778503418, 2.368475914001465, -82.95899200439453],
    [0.0, 0.0, 0.0, 1.0]
],
  "dcmmeta_reorient_transform": [
    [0.0, -1.0, 0.0, 87.0],
    [1.0, 0.0, 0.0, 0.0],
    [0.0, 0.0, 1.0, 0.0],
    [0.0, 0.0, 0.0, 1.0]
],
  "dcmmeta_shape": [88, 88, 60, 125],
  "dcmmeta_slice_dim": 2,
  "dcmmeta_version": 0.6,
  "global": {
    "const": {
      "AcquisitionMatrix": [88, 0, 0, 88],
      "AngioFlag": "N",
      "BitsAllocated": 16,
      "BitsStored": 12,
      "BodyPartExamined": "BRAIN",
      "Columns": 704,
      "DeidentificationMethodCodeSequence": [
        {
          "CodeMeaning": "XNAT DicomEdit 6 Script",
          "CodeValue": "3",
          "CodingSchemeDesignator": "XNAT",
          "CodingSchemeVersion": "1.0"}
],
      "EchoNumbers": 1,
      "EchoTime": 33.0,
      "EchoTrainLength": 88,
      "FlipAngle": 62.0,
      "HighBit": 11,
      "ImageOrientationPatient": [0.99884587972585, 0.04408949545136, -0.0190532135228, -0.0465802741863, 0.98594915906, -0.160419867241],
      "ImagePositionPatient": [-805.20719874325, -884.20844388056, 83.045827806594],
      "ImageType": [
        "ORIGINAL",
        "PRIMARY",
        "M",
        "ND",
        "MOSAIC"
],
      "ImagedNucleus": "1H",
      "ImagingFrequency": 123.249992,
      "InPlanePhaseEncodingDirection": "COL",
      "MRAcquisitionType": "2D",
      "MagneticFieldStrength": 3.0,
      "Manufacturer": "SIEMENS",
      "ManufacturerModelName": "Prisma_fit",
      "Modality": "MR",
      "NumberOfAverages": 1.0,
      "NumberOfPhaseEncodingSteps": 88,
      "PercentPhaseFieldOfView": 100.0,
      "PercentSampling": 100.0,
      "PerformedProcedureStepStartTime": "150517.931000",
      "PhotometricInterpretation": "MONOCHROME2",
      "PixelBandwidth": 2185.0,
      "PixelRepresentation": 0,
      "PixelSpacing": [2.3977272510529, 2.3977272510529],
      "ProtocolName": "func-bold_task-RDMmotion_run-01",
      "RepetitionTime": 1200.0,
      "Rows": 704,
      "SAR": 0.04423360548933,
      "SamplesPerPixel": 1,
      "ScanOptions": "FS",
      "ScanningSequence": "EP",
      "SequenceName": "*epfid2d1_88",
      "SequenceVariant": "SK",
      "SeriesDescription": "func-bold_task-RDMmotion_run-01",
      "SeriesNumber": 7,
      "SeriesTime": "152120.128000",
      "SliceLocation": -69.941741972124,
      "SliceThickness": 2.4000000953674,
      "SmallestImagePixelValue": 0,
      "SoftwareVersions": "syngo MR E11",
      "SpacingBetweenSlices": 2.4000000679793,
      "SpecificCharacterSet": "ISO_IR 100",
      "StudyID": "1",
      "StudyTime": "150517.870000",
      "TransmitCoilName": "Body",
      "VariableFlipAngleFlag": "N",
      "WindowCenterWidthExplanation": "Algo1",
      "dBdt": 0.0},
    "slices": {}
  },
  "time": {
    "samples": {
      "AcquisitionNumber": [1, 2, 3, 4, 5, 6, 7, 8, 9, 10, 11, 12, 13, 14, 15, 16, 17, 18, 19, 20, 21, 22, 23, 24, 25, 26, 27, 28, 29, 30, 31, 32, 33, 34, 35, 36, 37, 38, 39, 40, 41, 42, 43, 44, 45, 46, 47, 48, 49, 50, 51, 52, 53, 54, 55, 56, 57, 58, 59, 60, 61, 62, 63, 64, 65, 66, 67, 68, 69, 70, 71, 72, 73, 74, 75, 76, 77, 78, 79, 80, 81, 82, 83, 84, 85, 86, 87, 88, 89, 90, 91, 92, 93, 94, 95, 96, 97, 98, 99, 100, 101, 102, 103, 104, 105, 106, 107, 108, 109, 110, 111, 112, 113, 114, 115, 116, 117, 118, 119, 120, 121, 122, 123, 124, 125],
      "AcquisitionTime": ["152048.177500", "152049.377500", "152050.577500", "152051.777500", "152052.977500", "152054.177500", "152055.377500", "152056.577500", "152057.777500", "152058.977500", "152100.177500", "152101.377500", "152102.577500", "152103.777500", "152104.977500", "152106.177500", "152107.377500", "152108.577500", "152109.777500", "152110.977500", "152112.177500", "152113.377500", "152114.577500", "152115.777500", "152116.977500", "152118.177500", "152119.377500", "152120.577500", "152121.777500", "152122.977500", "152124.177500", "152125.377500", "152126.577500", "152127.777500", "152128.977500", "152130.177500", "152131.377500", "152132.577500", "152133.777500", "152134.977500", "152136.177500", "152137.377500", "152138.577500", "152139.777500", "152140.977500", "152142.177500", "152143.377500", "152144.577500", "152145.777500", "152146.977500", "152148.177500", "152149.377500", "152150.577500", "152151.777500", "152152.977500", "152154.177500", "152155.377500", "152156.577500", "152157.777500", "152158.977500", "152200.177500", "152201.377500", "152202.577500", "152203.777500", "152204.977500", "152206.177500", "152207.377500", "152208.577500", "152209.777500", "152210.977500", "152212.177500", "152213.377500", "152214.577500", "152215.777500", "152216.977500", "152218.177500", "152219.377500", "152220.577500", "152221.777500", "152222.977500", "152224.177500", "152225.377500", "152226.577500", "152227.777500", "152228.977500", "152230.177500", "152231.377500", "152232.577500", "152233.777500", "152234.977500", "152236.177500", "152237.377500", "152238.577500", "152239.777500", "152240.977500", "152242.177500", "152243.377500", "152244.577500", "152245.777500", "152246.977500", "152248.177500", "152249.377500", "152250.577500", "152251.777500", "152252.977500", "152254.177500", "152255.377500", "152256.577500", "152257.777500", "152258.977500", "152300.177500", "152301.377500", "152302.577500", "152303.777500", "152304.977500", "152306.177500", "152307.377500", "152308.577500", "152309.777500", "152310.977500", "152312.177500", "152313.377500", "152314.577500", "152315.777500", "152316.977500"],
      "ContentTime": ["152120.131000", "152120.135000", "152120.142000", "152120.145000", "152120.148000", "152120.150000", "152120.153000", "152120.156000", "152120.158000", "152120.161000", "152120.164000", "152120.166000", "152120.169000", "152120.172000", "152120.174000", "152120.177000", "152120.187000", "152120.190000", "152120.197000", "152120.199000", "152120.202000", "152120.205000", "152120.207000", "152120.210000", "152120.213000", "152120.215000", "152200.126000", "152200.133000", "152200.136000", "152200.138000", "152200.141000", "152200.143000", "152200.146000", "152200.148000", "152200.151000", "152200.153000", "152200.156000", "152200.158000", "152200.161000", "152200.179000", "152200.182000", "152200.184000", "152200.187000", "152200.189000", "152200.192000", "152200.194000", "152200.197000", "152200.199000", "152200.202000", "152200.205000", "152200.207000", "152200.210000", "152200.213000", "152200.215000", "152200.218000", "152200.220000", "152200.223000", "152200.225000", "152200.228000", "152240.127000", "152240.129000", "152240.132000", "152240.135000", "152240.137000", "152240.140000", "152240.142000", "152240.145000", "152240.147000", "152240.150000", "152240.152000", "152240.155000", "152240.158000", "152240.160000", "152240.163000", "152240.166000", "152240.168000", "152240.171000", "152240.173000", "152240.176000", "152240.178000", "152240.181000", "152240.183000", "152240.186000", "152240.189000", "152240.191000", "152240.194000", "152240.196000", "152240.199000", "152240.201000", "152240.204000", "152240.206000", "152240.209000", "152318.953000", "152318.956000", "152318.959000", "152318.961000", "152318.964000", "152318.969000", "152318.971000", "152318.974000", "152318.977000", "152318.979000", "152318.982000", "152318.984000", "152318.987000", "152318.990000", "152318.992000", "152318.995000", "152318.998000", "152319.001000", "152319.006000", "152319.009000", "152319.012000", "152319.015000", "152319.019000", "152319.021000", "152319.024000", "152319.028000", "152319.032000", "152319.034000", "152319.038000", "152319.044000", "152319.047000", "152319.058000", "152319.064000"],
      "InstanceCreationTime": ["152120.131000", "152120.135000", "152120.142000", "152120.145000", "152120.148000", "152120.150000", "152120.153000", "152120.156000", "152120.158000", "152120.161000", "152120.164000", "152120.166000", "152120.169000", "152120.172000", "152120.174000", "152120.177000", "152120.187000", "152120.190000", "152120.197000", "152120.199000", "152120.202000", "152120.205000", "152120.207000", "152120.210000", "152120.213000", "152120.215000", "152200.126000", "152200.133000", "152200.136000", "152200.138000", "152200.141000", "152200.143000", "152200.146000", "152200.148000", "152200.151000", "152200.153000", "152200.156000", "152200.158000", "152200.161000", "152200.179000", "152200.182000", "152200.184000", "152200.187000", "152200.189000", "152200.192000", "152200.194000", "152200.197000", "152200.199000", "152200.202000", "152200.205000", "152200.207000", "152200.210000", "152200.213000", "152200.215000", "152200.218000", "152200.220000", "152200.223000", "152200.225000", "152200.228000", "152240.127000", "152240.129000", "152240.132000", "152240.135000", "152240.137000", "152240.140000", "152240.142000", "152240.145000", "152240.147000", "152240.150000", "152240.152000", "152240.155000", "152240.158000", "152240.160000", "152240.163000", "152240.166000", "152240.168000", "152240.171000", "152240.173000", "152240.176000", "152240.178000", "152240.181000", "152240.183000", "152240.186000", "152240.189000", "152240.191000", "152240.194000", "152240.196000", "152240.199000", "152240.201000", "152240.204000", "152240.206000", "152240.209000", "152318.953000", "152318.956000", "152318.959000", "152318.961000", "152318.964000", "152318.969000", "152318.971000", "152318.974000", "152318.977000", "152318.979000", "152318.982000", "152318.984000", "152318.987000", "152318.990000", "152318.992000", "152318.995000", "152318.998000", "152319.001000", "152319.006000", "152319.009000", "152319.012000", "152319.015000", "152319.019000", "152319.021000", "152319.024000", "152319.028000", "152319.032000", "152319.034000", "152319.038000", "152319.044000", "152319.047000", "152319.058000", "152319.064000"],
      "InstanceNumber": [1, 2, 3, 4, 5, 6, 7, 8, 9, 10, 11, 12, 13, 14, 15, 16, 17, 18, 19, 20, 21, 22, 23, 24, 25, 26, 27, 28, 29, 30, 31, 32, 33, 34, 35, 36, 37, 38, 39, 40, 41, 42, 43, 44, 45, 46, 47, 48, 49, 50, 51, 52, 53, 54, 55, 56, 57, 58, 59, 60, 61, 62, 63, 64, 65, 66, 67, 68, 69, 70, 71, 72, 73, 74, 75, 76, 77, 78, 79, 80, 81, 82, 83, 84, 85, 86, 87, 88, 89, 90, 91, 92, 93, 94, 95, 96, 97, 98, 99, 100, 101, 102, 103, 104, 105, 106, 107, 108, 109, 110, 111, 112, 113, 114, 115, 116, 117, 118, 119, 120, 121, 122, 123, 124, 125],
      "LargestImagePixelValue": [1852, 1855, 1880, 1861, 1874, 1841, 1823, 1877, 1869, 1886, 1866, 1884, 1858, 1860, 1850, 1870, 1851, 1850, 1847, 1865, 1856, 1861, 1851, 1859, 1854, 1870, 1871, 1861, 1872, 1871, 1842, 1841, 1856, 1855, 1877, 1890, 1887, 1891, 1875, 1896, 1871, 1870, 1852, 1865, 1844, 1838, 1839, 1840, 1847, 1839, 1850, 1884, 1875, 1897, 1863, 1874, 1864, 1874, 1899, 1884, 1899, 1871, 1871, 1875, 1856, 1880, 1837, 1834, 1847, 1843, 1840, 1899, 1867, 1879, 1871, 1873, 1906, 1887, 1888, 1878, 1899, 1889, 1885, 1891, 1871, 1892, 1875, 1895, 1867, 1860, 1874, 1863, 1876, 1851, 1871, 1858, 1899, 1865, 1895, 1859, 1872, 1868, 1873, 1879, 1895, 1906, 1881, 1870, 1826, 1873, 1886, 1887, 1940, 1920, 1919, 1876, 1869, 1880, 1859, 1857, 1837, 1851, 1859, 1868, 1876],
      "WindowCenter": [593.0, 591.0, 592.0, 591.0, 592.0, 591.0, 592.0, 593.0, 593.0, 594.0, 594.0, 594.0, 594.0, 594.0, 595.0, 595.0, 595.0, 595.0, 594.0, 595.0, 595.0, 595.0, 595.0, 595.0, 595.0, 595.0, 595.0, 595.0, 595.0, 595.0, 594.0, 595.0, 596.0, 597.0, 597.0, 597.0, 596.0, 596.0, 595.0, 595.0, 595.0, 595.0, 595.0, 596.0, 595.0, 595.0, 594.0, 595.0, 595.0, 595.0, 596.0, 596.0, 596.0, 596.0, 595.0, 596.0, 596.0, 596.0, 596.0, 595.0, 595.0, 595.0, 595.0, 595.0, 595.0, 595.0, 595.0, 594.0, 595.0, 595.0, 595.0, 596.0, 595.0, 595.0, 595.0, 595.0, 596.0, 596.0, 596.0, 596.0, 596.0, 596.0, 595.0, 595.0, 595.0, 595.0, 595.0, 595.0, 595.0, 595.0, 595.0, 595.0, 596.0, 596.0, 596.0, 596.0, 596.0, 595.0, 596.0, 595.0, 595.0, 596.0, 596.0, 597.0, 594.0, 592.0, 592.0, 593.0, 593.0, 595.0, 595.0, 594.0, 593.0, 591.0, 591.0, 590.0, 590.0, 592.0, 592.0, 593.0, 592.0, 592.0, 593.0, 592.0, 593.0],
      "WindowWidth": [1267.0, 1262.0, 1262.0, 1261.0, 1262.0, 1262.0, 1263.0, 1266.0, 1266.0, 1268.0, 1268.0, 1268.0, 1268.0, 1268.0, 1269.0, 1270.0, 1270.0, 1270.0, 1269.0, 1270.0, 1271.0, 1270.0, 1271.0, 1269.0, 1270.0, 1270.0, 1270.0, 1271.0, 1271.0, 1271.0, 1269.0, 1270.0, 1273.0, 1274.0, 1275.0, 1274.0, 1272.0, 1271.0, 1270.0, 1270.0, 1270.0, 1271.0, 1271.0, 1271.0, 1270.0, 1270.0, 1269.0, 1270.0, 1271.0, 1271.0, 1272.0, 1272.0, 1271.0, 1272.0, 1271.0, 1271.0, 1272.0, 1272.0, 1272.0, 1270.0, 1270.0, 1271.0, 1271.0, 1271.0, 1271.0, 1271.0, 1271.0, 1269.0, 1270.0, 1270.0, 1271.0, 1272.0, 1271.0, 1271.0, 1271.0, 1271.0, 1272.0, 1273.0, 1273.0, 1274.0, 1272.0, 1272.0, 1270.0, 1271.0, 1270.0, 1270.0, 1271.0, 1270.0, 1270.0, 1269.0, 1271.0, 1270.0, 1273.0, 1272.0, 1273.0, 1273.0, 1273.0, 1271.0, 1272.0, 1271.0, 1271.0, 1272.0, 1272.0, 1274.0, 1267.0, 1263.0, 1262.0, 1265.0, 1266.0, 1270.0, 1270.0, 1268.0, 1265.0, 1261.0, 1259.0, 1258.0, 1259.0, 1262.0, 1263.0, 1265.0, 1264.0, 1264.0, 1265.0, 1263.0, 1266.0]
    },
    "slices": {}
  }
}