{
  "AcquisitionMatrixPE": 88,
  "AcquisitionNumber": 1,
  "AcquisitionTime": "15:47:54.137500",
  "BandwidthPerPixelPhaseEncode": 19.592,
  "BaseResolution": 88,
  "BodyPartExamined": "BRAIN",
  "ConsistencyInfo": "N4_VE11C_LATEST_20160120",
  "ConversionSoftware": "dcm2niix",
  "ConversionSoftwareVersion": "v1.0.20190902",
  "DerivedVendorReportedEchoSpacing": 0.000580014,
  "DeviceSerialNumber": "67050",
  "DwellTime": 2.6e-06,
  "EchoTime": 0.033,
  "EchoTrainLength": 88,
  "EffectiveEchoSpacing": 0.000580014,
  "FlipAngle": 62,
  "ImageOrientationPatientDICOM": [0.998846, 0.0440895, -0.0190532, -0.0465803, 0.985949, -0.16042],
  "ImageType": [
    "ORIGINAL",
    "PRIMARY",
    "M",
    "ND",
    "MOSAIC"
],
  "ImagingFrequency": 123.25,
  "InPlanePhaseEncodingDirectionDICOM": "COL",
  "InstitutionAddress": "Olive_Street_60_Providence_RI_US_02912",
  "InstitutionName": "BROWN_UNIVERSITY_MRF",
  "InstitutionalDepartmentName": "Department",
  "MRAcquisitionType": "2D",
  "MagneticFieldStrength": 3,
  "Manufacturer": "Siemens",
  "ManufacturersModelName": "Prisma_fit",
  "Modality": "MR",
  "MultibandAccelerationFactor": 4,
  "PartialFourier": 1,
  "PatientPosition": "HFS",
  "PercentPhaseFOV": 100,
  "PhaseEncodingDirection": "j-",
  "PhaseEncodingSteps": 88,
  "PhaseResolution": 1,
  "PixelBandwidth": 2185,
  "ProcedureStepDescription": "ASHENHAV_1222",
  "ProtocolName": "func-bold_task-RDMcolor_run-03",
  "PulseSequenceDetails": "%SiemensSeq%_ep2d_bold",
  "ReceiveCoilActiveElements": "HC1-7;NC1",
  "ReceiveCoilName": "HeadNeck_64",
  "ReconMatrixPE": 88,
  "RefLinesPE": 8,
  "RepetitionTime": 1.2,
  "SAR": 0.0446872,
  "ScanOptions": "FS",
  "ScanningSequence": "EP",
  "SequenceName": "_epfid2d1_88",
  "SequenceVariant": "SK",
  "SeriesDescription": "func-bold_task-RDMcolor_run-03",
  "SeriesNumber": 12,
  "ShimSetting": [1747, -9098, 4389, 591, -72, -377, -51, -2],
  "SliceThickness": 2.4,
  "SliceTiming": [0.5525, 0, 0.63, 0.08, 0.7075, 0.1575, 0.7875, 0.2375, 0.865, 0.315, 0.945, 0.395, 1.0225, 0.4725, 1.1025, 0.5525, 0, 0.63, 0.08, 0.7075, 0.1575, 0.7875, 0.2375, 0.865, 0.315, 0.945, 0.395, 1.0225, 0.4725, 1.1025, 0.5525, 0, 0.63, 0.08, 0.7075, 0.1575, 0.7875, 0.2375, 0.865, 0.315, 0.945, 0.395, 1.0225, 0.4725, 1.1025, 0.5525, 0, 0.63, 0.08, 0.7075, 0.1575, 0.7875, 0.2375, 0.865, 0.315, 0.945, 0.395, 1.0225, 0.4725, 1.1025],
  "SoftwareVersions": "syngo_MR_E11",
  "SpacingBetweenSlices": 2.4,
  "StationName": "AWP67050",
  "TaskName": "RDMcolor",
  "TotalReadoutTime": 0.0504612,
  "TxRefAmp": 219.976,
  "dcmmeta_affine": [
    [-2.3949599266052246, -0.11168679594993591, -0.028110405430197716, 111.6758041381836],
    [-0.1057145819067955, 2.364037275314331, -0.3866933584213257, -82.14633178710938],
    [-0.04568440839648247, 0.3846430778503418, 2.368475914001465, -82.95899200439453],
    [0.0, 0.0, 0.0, 1.0]
],
  "dcmmeta_reorient_transform": [
    [0.0, -1.0, 0.0, 87.0],
    [1.0, 0.0, 0.0, 0.0],
    [0.0, 0.0, 1.0, 0.0],
    [0.0, 0.0, 0.0, 1.0]
],
  "dcmmeta_shape": [88, 88, 60, 392],
  "dcmmeta_slice_dim": 2,
  "dcmmeta_version": 0.6,
  "global": {
    "const": {
      "AcquisitionMatrix": [88, 0, 0, 88],
      "AngioFlag": "N",
      "BitsAllocated": 16,
      "BitsStored": 12,
      "BodyPartExamined": "BRAIN",
      "Columns": 704,
      "DeidentificationMethodCodeSequence": [
        {
          "CodeMeaning": "XNAT DicomEdit 6 Script",
          "CodeValue": "3",
          "CodingSchemeDesignator": "XNAT",
          "CodingSchemeVersion": "1.0"}
],
      "EchoNumbers": 1,
      "EchoTime": 33.0,
      "EchoTrainLength": 88,
      "FlipAngle": 62.0,
      "HighBit": 11,
      "ImageOrientationPatient": [0.99884587972585, 0.04408949545136, -0.0190532135228, -0.0465802741863, 0.98594915906, -0.160419867241],
      "ImagePositionPatient": [-805.20719874325, -884.20844388056, 83.045827806594],
      "ImageType": [
        "ORIGINAL",
        "PRIMARY",
        "M",
        "ND",
        "MOSAIC"
],
      "ImagedNucleus": "1H",
      "ImagingFrequency": 123.250002,
      "InPlanePhaseEncodingDirection": "COL",
      "MRAcquisitionType": "2D",
      "MagneticFieldStrength": 3.0,
      "Manufacturer": "SIEMENS",
      "ManufacturerModelName": "Prisma_fit",
      "Modality": "MR",
      "NumberOfAverages": 1.0,
      "NumberOfPhaseEncodingSteps": 88,
      "PercentPhaseFieldOfView": 100.0,
      "PercentSampling": 100.0,
      "PerformedProcedureStepStartTime": "150517.931000",
      "PhotometricInterpretation": "MONOCHROME2",
      "PixelBandwidth": 2185.0,
      "PixelRepresentation": 0,
      "PixelSpacing": [2.3977272510529, 2.3977272510529],
      "ProtocolName": "func-bold_task-RDMcolor_run-03",
      "RepetitionTime": 1200.0,
      "Rows": 704,
      "SAR": 0.04468719668377,
      "SamplesPerPixel": 1,
      "ScanOptions": "FS",
      "ScanningSequence": "EP",
      "SequenceName": "*epfid2d1_88",
      "SequenceVariant": "SK",
      "SeriesDescription": "func-bold_task-RDMcolor_run-03",
      "SeriesNumber": 12,
      "SeriesTime": "154803.227000",
      "SliceLocation": -69.941741972124,
      "SliceThickness": 2.4000000953674,
      "SmallestImagePixelValue": 0,
      "SoftwareVersions": "syngo MR E11",
      "SpacingBetweenSlices": 2.4000000679793,
      "SpecificCharacterSet": "ISO_IR 100",
      "StudyID": "1",
      "StudyTime": "150517.870000",
      "TransmitCoilName": "Body",
      "VariableFlipAngleFlag": "N",
      "WindowCenterWidthExplanation": "Algo1",
      "dBdt": 0.0},
    "slices": {}
  },
  "time": {
    "samples": {
      "AcquisitionNumber": [1, 2, 3, 4, 5, 6, 7, 8, 9, 10, 11, 12, 13, 14, 15, 16, 17, 18, 19, 20, 21, 22, 23, 24, 25, 26, 27, 28, 29, 30, 31, 32, 33, 34, 35, 36, 37, 38, 39, 40, 41, 42, 43, 44, 45, 46, 47, 48, 49, 50, 51, 52, 53, 54, 55, 56, 57, 58, 59, 60, 61, 62, 63, 64, 65, 66, 67, 68, 69, 70, 71, 72, 73, 74, 75, 76, 77, 78, 79, 80, 81, 82, 83, 84, 85, 86, 87, 88, 89, 90, 91, 92, 93, 94, 95, 96, 97, 98, 99, 100, 101, 102, 103, 104, 105, 106, 107, 108, 109, 110, 111, 112, 113, 114, 115, 116, 117, 118, 119, 120, 121, 122, 123, 124, 125, 126, 127, 128, 129, 130, 131, 132, 133, 134, 135, 136, 137, 138, 139, 140, 141, 142, 143, 144, 145, 146, 147, 148, 149, 150, 151, 152, 153, 154, 155, 156, 157, 158, 159, 160, 161, 162, 163, 164, 165, 166, 167, 168, 169, 170, 171, 172, 173, 174, 175, 176, 177, 178, 179, 180, 181, 182, 183, 184, 185, 186, 187, 188, 189, 190, 191, 192, 193, 194, 195, 196, 197, 198, 199, 200, 201, 202, 203, 204, 205, 206, 207, 208, 209, 210, 211, 212, 213, 214, 215, 216, 217, 218, 219, 220, 221, 222, 223, 224, 225, 226, 227, 228, 229, 230, 231, 232, 233, 234, 235, 236, 237, 238, 239, 240, 241, 242, 243, 244, 245, 246, 247, 248, 249, 250, 251, 252, 253, 254, 255, 256, 257, 258, 259, 260, 261, 262, 263, 264, 265, 266, 267, 268, 269, 270, 271, 272, 273, 274, 275, 276, 277, 278, 279, 280, 281, 282, 283, 284, 285, 286, 287, 288, 289, 290, 291, 292, 293, 294, 295, 296, 297, 298, 299, 300, 301, 302, 303, 304, 305, 306, 307, 308, 309, 310, 311, 312, 313, 314, 315, 316, 317, 318, 319, 320, 321, 322, 323, 324, 325, 326, 327, 328, 329, 330, 331, 332, 333, 334, 335, 336, 337, 338, 339, 340, 341, 342, 343, 344, 345, 346, 347, 348, 349, 350, 351, 352, 353, 354, 355, 356, 357, 358, 359, 360, 361, 362, 363, 364, 365, 366, 367, 368, 369, 370, 371, 372, 373, 374, 375, 376, 377, 378, 379, 380, 381, 382, 383, 384, 385, 386, 387, 388, 389, 390, 391, 392],
      "AcquisitionTime": ["154754.137500", "154755.337500", "154756.537500", "154757.737500", "154758.937500", "154800.137500", "154801.337500", "154802.537500", "154803.737500", "154804.937500", "154806.137500", "154807.337500", "154808.537500", "154809.737500", "154810.937500", "154812.137500", "154813.337500", "154814.537500", "154815.737500", "154816.937500", "154818.137500", "154819.337500", "154820.537500", "154821.737500", "154822.937500", "154824.137500", "154825.337500", "154826.537500", "154827.737500", "154828.937500", "154830.137500", "154831.337500", "154832.537500", "154833.737500", "154834.937500", "154836.137500", "154837.337500", "154838.537500", "154839.737500", "154840.937500", "154842.137500", "154843.337500", "154844.537500", "154845.737500", "154846.937500", "154848.137500", "154849.337500", "154850.537500", "154851.737500", "154852.937500", "154854.137500", "154855.337500", "154856.537500", "154857.737500", "154858.937500", "154900.137500", "154901.337500", "154902.537500", "154903.737500", "154904.937500", "154906.137500", "154907.337500", "154908.537500", "154909.737500", "154910.937500", "154912.137500", "154913.337500", "154914.537500", "154915.737500", "154916.937500", "154918.137500", "154919.337500", "154920.537500", "154921.737500", "154922.937500", "154924.137500", "154925.337500", "154926.537500", "154927.737500", "154928.937500", "154930.137500", "154931.337500", "154932.537500", "154933.737500", "154934.937500", "154936.137500", "154937.337500", "154938.537500", "154939.737500", "154940.937500", "154942.137500", "154943.337500", "154944.537500", "154945.737500", "154946.937500", "154948.137500", "154949.337500", "154950.537500", "154951.737500", "154952.937500", "154954.137500", "154955.337500", "154956.537500", "154957.737500", "154958.937500", "155000.137500", "155001.337500", "155002.537500", "155003.737500", "155004.937500", "155006.137500", "155007.337500", "155008.537500", "155009.737500", "155010.937500", "155012.137500", "155013.337500", "155014.537500", "155015.737500", "155016.937500", "155018.137500", "155019.337500", "155020.537500", "155021.737500", "155022.937500", "155024.137500", "155025.337500", "155026.537500", "155027.737500", "155028.937500", "155030.137500", "155031.337500", "155032.537500", "155033.737500", "155034.937500", "155036.137500", "155037.337500", "155038.537500", "155039.737500", "155040.937500", "155042.137500", "155043.337500", "155044.537500", "155045.737500", "155046.937500", "155048.137500", "155049.337500", "155050.537500", "155051.737500", "155052.937500", "155054.137500", "155055.337500", "155056.537500", "155057.737500", "155058.937500", "155100.137500", "155101.337500", "155102.537500", "155103.737500", "155104.937500", "155106.137500", "155107.337500", "155108.537500", "155109.737500", "155110.937500", "155112.137500", "155113.337500", "155114.537500", "155115.737500", "155116.937500", "155118.137500", "155119.337500", "155120.537500", "155121.737500", "155122.937500", "155124.137500", "155125.337500", "155126.537500", "155127.737500", "155128.937500", "155130.137500", "155131.337500", "155132.537500", "155133.737500", "155134.937500", "155136.137500", "155137.337500", "155138.537500", "155139.737500", "155140.937500", "155142.137500", "155143.337500", "155144.537500", "155145.737500", "155146.937500", "155148.137500", "155149.337500", "155150.537500", "155151.737500", "155152.937500", "155154.137500", "155155.337500", "155156.537500", "155157.737500", "155158.937500", "155200.137500", "155201.337500", "155202.537500", "155203.737500", "155204.937500", "155206.137500", "155207.337500", "155208.537500", "155209.737500", "155210.937500", "155212.137500", "155213.337500", "155214.537500", "155215.737500", "155216.937500", "155218.137500", "155219.337500", "155220.537500", "155221.737500", "155222.937500", "155224.137500", "155225.337500", "155226.537500", "155227.737500", "155228.937500", "155230.137500", "155231.337500", "155232.537500", "155233.737500", "155234.937500", "155236.137500", "155237.337500", "155238.537500", "155239.737500", "155240.937500", "155242.137500", "155243.337500", "155244.537500", "155245.737500", "155246.937500", "155248.137500", "155249.337500", "155250.537500", "155251.737500", "155252.937500", "155254.137500", "155255.337500", "155256.537500", "155257.737500", "155258.937500", "155300.137500", "155301.337500", "155302.537500", "155303.737500", "155304.937500", "155306.137500", "155307.337500", "155308.537500", "155309.737500", "155310.937500", "155312.137500", "155313.337500", "155314.537500", "155315.737500", "155316.937500", "155318.137500", "155319.337500", "155320.537500", "155321.737500", "155322.937500", "155324.137500", "155325.337500", "155326.537500", "155327.737500", "155328.937500", "155330.137500", "155331.337500", "155332.537500", "155333.737500", "155334.937500", "155336.137500", "155337.337500", "155338.537500", "155339.737500", "155340.937500", "155342.137500", "155343.337500", "155344.537500", "155345.737500", "155346.937500", "155348.137500", "155349.337500", "155350.537500", "155351.737500", "155352.937500", "155354.137500", "155355.337500", "155356.537500", "155357.737500", "155358.937500", "155400.137500", "155401.337500", "155402.537500", "155403.737500", "155404.937500", "155406.137500", "155407.337500", "155408.537500", "155409.737500", "155410.937500", "155412.137500", "155413.337500", "155414.537500", "155415.737500", "155416.937500", "155418.137500", "155419.337500", "155420.537500", "155421.737500", "155422.937500", "155424.137500", "155425.337500", "155426.537500", "155427.737500", "155428.937500", "155430.137500", "155431.337500", "155432.537500", "155433.737500", "155434.937500", "155436.137500", "155437.337500", "155438.537500", "155439.737500", "155440.937500", "155442.137500", "155443.337500", "155444.537500", "155445.737500", "155446.937500", "155448.137500", "155449.337500", "155450.537500", "155451.737500", "155452.937500", "155454.137500", "155455.337500", "155456.537500", "155457.737500", "155458.937500", "155500.137500", "155501.337500", "155502.537500", "155503.737500", "155504.937500", "155506.137500", "155507.337500", "155508.537500", "155509.737500", "155510.937500", "155512.137500", "155513.337500", "155514.537500", "155515.737500", "155516.937500", "155518.137500", "155519.337500", "155520.537500", "155521.737500", "155522.937500", "155524.137500", "155525.337500", "155526.537500", "155527.737500", "155528.937500", "155530.137500", "155531.337500", "155532.537500", "155533.737500", "155534.937500", "155536.137500", "155537.337500", "155538.537500", "155539.737500", "155540.937500", "155542.137500", "155543.337500"],
      "ContentTime": ["154803.230000", "154803.233000", "154803.236000", "154803.239000", "154803.241000", "154803.244000", "154803.246000", "154843.226000", "154843.228000", "154843.231000", "154843.234000", "154843.236000", "154843.239000", "154843.248000", "154843.250000", "154843.253000", "154843.255000", "154843.258000", "154843.261000", "154843.264000", "154843.266000", "154843.269000", "154843.271000", "154843.274000", "154843.277000", "154843.279000", "154843.282000", "154843.284000", "154843.287000", "154843.289000", "154843.292000", "154843.295000", "154843.297000", "154843.300000", "154843.302000", "154843.305000", "154843.307000", "154843.310000", "154843.313000", "154843.315000", "154923.225000", "154923.227000", "154923.230000", "154923.232000", "154923.235000", "154923.237000", "154923.240000", "154923.243000", "154923.245000", "154923.248000", "154923.251000", "154923.253000", "154923.256000", "154923.258000", "154923.261000", "154923.263000", "154923.266000", "154923.269000", "154923.271000", "154923.274000", "154923.276000", "154923.279000", "154923.281000", "154923.284000", "154923.287000", "154923.289000", "154923.292000", "154923.294000", "154923.297000", "154923.299000", "154923.302000", "154923.305000", "154923.307000", "155003.225000", "155003.227000", "155003.230000", "155003.233000", "155003.235000", "155003.238000", "155003.240000", "155003.243000", "155003.245000", "155003.248000", "155003.250000", "155003.253000", "155003.255000", "155003.258000", "155003.261000", "155003.263000", "155003.266000", "155003.268000", "155003.276000", "155003.279000", "155003.281000", "155003.284000", "155003.286000", "155003.289000", "155003.292000", "155003.294000", "155003.297000", "155003.299000", "155003.302000", "155003.304000", "155003.307000", "155003.309000", "155003.312000", "155003.315000", "155043.226000", "155043.228000", "155043.231000", "155043.233000", "155043.236000", "155043.239000", "155043.242000", "155043.244000", "155043.247000", "155043.249000", "155043.252000", "155043.255000", "155043.257000", "155043.260000", "155043.263000", "155043.265000", "155043.268000", "155043.271000", "155043.273000", "155043.276000", "155043.278000", "155043.290000", "155043.292000", "155043.295000", "155043.298000", "155043.300000", "155043.303000", "155043.305000", "155043.308000", "155043.311000", "155043.313000", "155043.316000", "155043.318000", "155123.225000", "155123.228000", "155123.230000", "155123.233000", "155123.235000", "155123.238000", "155123.241000", "155123.243000", "155123.246000", "155123.248000", "155123.251000", "155123.253000", "155123.256000", "155123.258000", "155123.261000", "155123.264000", "155123.266000", "155123.269000", "155123.271000", "155123.274000", "155123.277000", "155123.279000", "155123.282000", "155123.284000", "155123.287000", "155123.289000", "155123.292000", "155123.295000", "155123.297000", "155123.300000", "155123.302000", "155123.305000", "155123.308000", "155203.224000", "155203.227000", "155203.230000", "155203.232000", "155203.235000", "155203.237000", "155203.240000", "155203.243000", "155203.245000", "155203.248000", "155203.266000", "155203.269000", "155203.271000", "155203.274000", "155203.276000", "155203.279000", "155203.281000", "155203.284000", "155203.286000", "155203.289000", "155203.291000", "155203.294000", "155203.296000", "155203.299000", "155203.302000", "155203.304000", "155203.307000", "155203.309000", "155203.312000", "155203.315000", "155203.317000", "155203.320000", "155203.322000", "155203.325000", "155243.226000", "155243.228000", "155243.231000", "155243.234000", "155243.236000", "155243.239000", "155243.242000", "155243.244000", "155243.247000", "155243.249000", "155243.252000", "155243.254000", "155243.257000", "155243.260000", "155243.262000", "155243.265000", "155243.268000", "155243.270000", "155243.273000", "155243.275000", "155243.278000", "155243.281000", "155243.283000", "155243.286000", "155243.288000", "155243.291000", "155243.293000", "155243.296000", "155243.298000", "155243.301000", "155243.304000", "155243.306000", "155243.309000", "155323.226000", "155323.228000", "155323.231000", "155323.234000", "155323.236000", "155323.239000", "155323.241000", "155323.244000", "155323.246000", "155323.256000", "155323.259000", "155323.261000", "155323.264000", "155323.266000", "155323.269000", "155323.272000", "155323.274000", "155323.277000", "155323.279000", "155323.282000", "155323.284000", "155323.287000", "155323.290000", "155323.292000", "155323.295000", "155323.297000", "155323.300000", "155323.303000", "155323.305000", "155323.308000", "155323.310000", "155323.313000", "155323.315000", "155403.224000", "155403.227000", "155403.230000", "155403.232000", "155403.236000", "155403.238000", "155403.241000", "155403.243000", "155403.246000", "155403.249000", "155403.251000", "155403.254000", "155403.257000", "155403.259000", "155403.262000", "155403.264000", "155403.267000", "155403.270000", "155403.272000", "155403.275000", "155403.277000", "155403.280000", "155403.282000", "155403.285000", "155403.287000", "155403.290000", "155403.292000", "155403.295000", "155403.298000", "155403.300000", "155403.303000", "155403.305000", "155403.308000", "155403.310000", "155443.225000", "155443.227000", "155443.230000", "155443.233000", "155443.235000", "155443.238000", "155443.240000", "155443.243000", "155443.246000", "155443.248000", "155443.251000", "155443.253000", "155443.256000", "155443.260000", "155443.262000", "155443.265000", "155443.267000", "155443.270000", "155443.273000", "155443.275000", "155443.278000", "155443.280000", "155443.283000", "155443.286000", "155443.289000", "155443.291000", "155443.294000", "155443.296000", "155443.299000", "155443.301000", "155443.304000", "155443.307000", "155443.309000", "155523.225000", "155523.229000", "155523.231000", "155523.234000", "155523.237000", "155523.239000", "155523.242000", "155523.244000", "155523.247000", "155523.250000", "155523.252000", "155523.255000", "155523.257000", "155523.260000", "155523.263000", "155523.265000", "155523.268000", "155523.271000", "155523.273000", "155523.276000", "155523.278000", "155523.281000", "155523.284000", "155523.286000", "155523.289000", "155523.291000", "155523.294000", "155523.297000", "155523.299000", "155523.302000", "155523.305000", "155523.315000", "155523.317000", "155545.075000", "155545.078000", "155545.081000", "155545.083000", "155545.086000", "155545.089000", "155545.092000", "155545.094000", "155545.097000", "155545.104000", "155545.106000", "155545.109000", "155545.112000", "155545.115000", "155545.118000", "155545.121000", "155545.125000", "155545.129000", "155545.134000"],
      "InstanceCreationTime": ["154803.230000", "154803.233000", "154803.236000", "154803.239000", "154803.241000", "154803.244000", "154803.246000", "154843.226000", "154843.228000", "154843.231000", "154843.234000", "154843.236000", "154843.239000", "154843.248000", "154843.250000", "154843.253000", "154843.255000", "154843.258000", "154843.261000", "154843.264000", "154843.266000", "154843.269000", "154843.271000", "154843.274000", "154843.277000", "154843.279000", "154843.282000", "154843.284000", "154843.287000", "154843.289000", "154843.292000", "154843.295000", "154843.297000", "154843.300000", "154843.302000", "154843.305000", "154843.307000", "154843.310000", "154843.313000", "154843.315000", "154923.225000", "154923.227000", "154923.230000", "154923.232000", "154923.235000", "154923.237000", "154923.240000", "154923.243000", "154923.245000", "154923.248000", "154923.251000", "154923.253000", "154923.256000", "154923.258000", "154923.261000", "154923.263000", "154923.266000", "154923.269000", "154923.271000", "154923.274000", "154923.276000", "154923.279000", "154923.281000", "154923.284000", "154923.287000", "154923.289000", "154923.292000", "154923.294000", "154923.297000", "154923.299000", "154923.302000", "154923.305000", "154923.307000", "155003.225000", "155003.227000", "155003.230000", "155003.233000", "155003.235000", "155003.238000", "155003.240000", "155003.243000", "155003.245000", "155003.248000", "155003.250000", "155003.253000", "155003.255000", "155003.258000", "155003.261000", "155003.263000", "155003.266000", "155003.268000", "155003.276000", "155003.279000", "155003.281000", "155003.284000", "155003.286000", "155003.289000", "155003.292000", "155003.294000", "155003.297000", "155003.299000", "155003.302000", "155003.304000", "155003.307000", "155003.309000", "155003.312000", "155003.315000", "155043.226000", "155043.228000", "155043.231000", "155043.233000", "155043.236000", "155043.239000", "155043.242000", "155043.244000", "155043.247000", "155043.249000", "155043.252000", "155043.255000", "155043.257000", "155043.260000", "155043.263000", "155043.265000", "155043.268000", "155043.271000", "155043.273000", "155043.276000", "155043.278000", "155043.290000", "155043.292000", "155043.295000", "155043.298000", "155043.300000", "155043.303000", "155043.305000", "155043.308000", "155043.311000", "155043.313000", "155043.316000", "155043.318000", "155123.225000", "155123.228000", "155123.230000", "155123.233000", "155123.235000", "155123.238000", "155123.241000", "155123.243000", "155123.246000", "155123.248000", "155123.251000", "155123.253000", "155123.256000", "155123.258000", "155123.261000", "155123.264000", "155123.266000", "155123.269000", "155123.271000", "155123.274000", "155123.277000", "155123.279000", "155123.282000", "155123.284000", "155123.287000", "155123.289000", "155123.292000", "155123.295000", "155123.297000", "155123.300000", "155123.302000", "155123.305000", "155123.308000", "155203.224000", "155203.227000", "155203.230000", "155203.232000", "155203.235000", "155203.237000", "155203.240000", "155203.243000", "155203.245000", "155203.248000", "155203.266000", "155203.269000", "155203.271000", "155203.274000", "155203.276000", "155203.279000", "155203.281000", "155203.284000", "155203.286000", "155203.289000", "155203.291000", "155203.294000", "155203.296000", "155203.299000", "155203.302000", "155203.304000", "155203.307000", "155203.309000", "155203.312000", "155203.315000", "155203.317000", "155203.320000", "155203.322000", "155203.325000", "155243.226000", "155243.228000", "155243.231000", "155243.234000", "155243.236000", "155243.239000", "155243.242000", "155243.244000", "155243.247000", "155243.249000", "155243.252000", "155243.254000", "155243.257000", "155243.260000", "155243.262000", "155243.265000", "155243.268000", "155243.270000", "155243.273000", "155243.275000", "155243.278000", "155243.281000", "155243.283000", "155243.286000", "155243.288000", "155243.291000", "155243.293000", "155243.296000", "155243.298000", "155243.301000", "155243.304000", "155243.306000", "155243.309000", "155323.226000", "155323.228000", "155323.231000", "155323.234000", "155323.236000", "155323.239000", "155323.241000", "155323.244000", "155323.246000", "155323.256000", "155323.259000", "155323.261000", "155323.264000", "155323.266000", "155323.269000", "155323.272000", "155323.274000", "155323.277000", "155323.279000", "155323.282000", "155323.284000", "155323.287000", "155323.290000", "155323.292000", "155323.295000", "155323.297000", "155323.300000", "155323.303000", "155323.305000", "155323.308000", "155323.310000", "155323.313000", "155323.315000", "155403.224000", "155403.227000", "155403.230000", "155403.232000", "155403.236000", "155403.238000", "155403.241000", "155403.243000", "155403.246000", "155403.249000", "155403.251000", "155403.254000", "155403.257000", "155403.259000", "155403.262000", "155403.264000", "155403.267000", "155403.270000", "155403.272000", "155403.275000", "155403.277000", "155403.280000", "155403.282000", "155403.285000", "155403.287000", "155403.290000", "155403.292000", "155403.295000", "155403.298000", "155403.300000", "155403.303000", "155403.305000", "155403.308000", "155403.310000", "155443.225000", "155443.227000", "155443.230000", "155443.233000", "155443.235000", "155443.238000", "155443.240000", "155443.243000", "155443.246000", "155443.248000", "155443.251000", "155443.253000", "155443.256000", "155443.260000", "155443.262000", "155443.265000", "155443.267000", "155443.270000", "155443.273000", "155443.275000", "155443.278000", "155443.280000", "155443.283000", "155443.286000", "155443.289000", "155443.291000", "155443.294000", "155443.296000", "155443.299000", "155443.301000", "155443.304000", "155443.307000", "155443.309000", "155523.225000", "155523.229000", "155523.231000", "155523.234000", "155523.237000", "155523.239000", "155523.242000", "155523.244000", "155523.247000", "155523.250000", "155523.252000", "155523.255000", "155523.257000", "155523.260000", "155523.263000", "155523.265000", "155523.268000", "155523.271000", "155523.273000", "155523.276000", "155523.278000", "155523.281000", "155523.284000", "155523.286000", "155523.289000", "155523.291000", "155523.294000", "155523.297000", "155523.299000", "155523.302000", "155523.305000", "155523.315000", "155523.317000", "155545.075000", "155545.078000", "155545.081000", "155545.083000", "155545.086000", "155545.089000", "155545.092000", "155545.094000", "155545.097000", "155545.104000", "155545.106000", "155545.109000", "155545.112000", "155545.115000", "155545.118000", "155545.121000", "155545.125000", "155545.129000", "155545.134000"],
      "InstanceNumber": [1, 2, 3, 4, 5, 6, 7, 8, 9, 10, 11, 12, 13, 14, 15, 16, 17, 18, 19, 20, 21, 22, 23, 24, 25, 26, 27, 28, 29, 30, 31, 32, 33, 34, 35, 36, 37, 38, 39, 40, 41, 42, 43, 44, 45, 46, 47, 48, 49, 50, 51, 52, 53, 54, 55, 56, 57, 58, 59, 60, 61, 62, 63, 64, 65, 66, 67, 68, 69, 70, 71, 72, 73, 74, 75, 76, 77, 78, 79, 80, 81, 82, 83, 84, 85, 86, 87, 88, 89, 90, 91, 92, 93, 94, 95, 96, 97, 98, 99, 100, 101, 102, 103, 104, 105, 106, 107, 108, 109, 110, 111, 112, 113, 114, 115, 116, 117, 118, 119, 120, 121, 122, 123, 124, 125, 126, 127, 128, 129, 130, 131, 132, 133, 134, 135, 136, 137, 138, 139, 140, 141, 142, 143, 144, 145, 146, 147, 148, 149, 150, 151, 152, 153, 154, 155, 156, 157, 158, 159, 160, 161, 162, 163, 164, 165, 166, 167, 168, 169, 170, 171, 172, 173, 174, 175, 176, 177, 178, 179, 180, 181, 182, 183, 184, 185, 186, 187, 188, 189, 190, 191, 192, 193, 194, 195, 196, 197, 198, 199, 200, 201, 202, 203, 204, 205, 206, 207, 208, 209, 210, 211, 212, 213, 214, 215, 216, 217, 218, 219, 220, 221, 222, 223, 224, 225, 226, 227, 228, 229, 230, 231, 232, 233, 234, 235, 236, 237, 238, 239, 240, 241, 242, 243, 244, 245, 246, 247, 248, 249, 250, 251, 252, 253, 254, 255, 256, 257, 258, 259, 260, 261, 262, 263, 264, 265, 266, 267, 268, 269, 270, 271, 272, 273, 274, 275, 276, 277, 278, 279, 280, 281, 282, 283, 284, 285, 286, 287, 288, 289, 290, 291, 292, 293, 294, 295, 296, 297, 298, 299, 300, 301, 302, 303, 304, 305, 306, 307, 308, 309, 310, 311, 312, 313, 314, 315, 316, 317, 318, 319, 320, 321, 322, 323, 324, 325, 326, 327, 328, 329, 330, 331, 332, 333, 334, 335, 336, 337, 338, 339, 340, 341, 342, 343, 344, 345, 346, 347, 348, 349, 350, 351, 352, 353, 354, 355, 356, 357, 358, 359, 360, 361, 362, 363, 364, 365, 366, 367, 368, 369, 370, 371, 372, 373, 374, 375, 376, 377, 378, 379, 380, 381, 382, 383, 384, 385, 386, 387, 388, 389, 390, 391, 392],
