{
  "AcquisitionMatrixPE": 88,
  "AcquisitionNumber": 1,
  "AcquisitionTime": "16:23:47.520000",
  "BandwidthPerPixelPhaseEncode": 19.592,
  "BaseResolution": 88,
  "BodyPartExamined": "BRAIN",
  "ConsistencyInfo": "N4_VE11C_LATEST_20160120",
  "ConversionSoftware": "dcm2niix",
  "ConversionSoftwareVersion": "v1.0.20190902",
  "DerivedVendorReportedEchoSpacing": 0.000580014,
  "DeviceSerialNumber": "67050",
  "DwellTime": 2.6e-06,
  "EchoTime": 0.033,
  "EchoTrainLength": 88,
  "EffectiveEchoSpacing": 0.000580014,
  "FlipAngle": 62,
  "ImageOrientationPatientDICOM": [0.998846, 0.0440895, -0.0190532, -0.0465803, 0.985949, -0.16042],
  "ImageType": [
    "ORIGINAL",
    "PRIMARY",
    "M",
    "ND",
    "MOSAIC"
],
  "ImagingFrequency": 123.25,
  "InPlanePhaseEncodingDirectionDICOM": "COL",
  "InstitutionAddress": "Olive_Street_60_Providence_RI_US_02912",
  "InstitutionName": "BROWN_UNIVERSITY_MRF",
  "InstitutionalDepartmentName": "Department",
  "MRAcquisitionType": "2D",
  "MagneticFieldStrength": 3,
  "Manufacturer": "Siemens",
  "ManufacturersModelName": "Prisma_fit",
  "Modality": "MR",
  "MultibandAccelerationFactor": 4,
  "PartialFourier": 1,
  "PatientPosition": "HFS",
  "PercentPhaseFOV": 100,
  "PhaseEncodingDirection": "j-",
  "PhaseEncodingSteps": 88,
  "PhaseResolution": 1,
  "PixelBandwidth": 2185,
  "ProcedureStepDescription": "ASHENHAV_1222",
  "ProtocolName": "func-bold_task-RDMcolor_run-06",
  "PulseSequenceDetails": "%SiemensSeq%_ep2d_bold",
  "ReceiveCoilActiveElements": "HC1-7;NC1",
  "ReceiveCoilName": "HeadNeck_64",
  "ReconMatrixPE": 88,
  "RefLinesPE": 8,
  "RepetitionTime": 1.2,
  "SAR": 0.0446872,
  "ScanOptions": "FS",
  "ScanningSequence": "EP",
  "SequenceName": "_epfid2d1_88",
  "SequenceVariant": "SK",
  "SeriesDescription": "func-bold_task-RDMcolor_run-06",
  "SeriesNumber": 18,
  "ShimSetting": [1747, -9098, 4389, 591, -72, -377, -51, -2],
  "SliceThickness": 2.4,
  "SliceTiming": [0.55, 0, 0.6275, 0.0775, 0.7075, 0.1575, 0.785, 0.235, 0.865, 0.315, 0.9425, 0.3925, 1.0225, 0.4725, 1.1, 0.55, 0, 0.6275, 0.0775, 0.7075, 0.1575, 0.785, 0.235, 0.865, 0.315, 0.9425, 0.3925, 1.0225, 0.4725, 1.1, 0.55, 0, 0.6275, 0.0775, 0.7075, 0.1575, 0.785, 0.235, 0.865, 0.315, 0.9425, 0.3925, 1.0225, 0.4725, 1.1, 0.55, 0, 0.6275, 0.0775, 0.7075, 0.1575, 0.785, 0.235, 0.865, 0.315, 0.9425, 0.3925, 1.0225, 0.4725, 1.1],
  "SoftwareVersions": "syngo_MR_E11",
  "SpacingBetweenSlices": 2.4,
  "StationName": "AWP67050",
  "TaskName": "RDMcolor",
  "TotalReadoutTime": 0.0504612,
  "TxRefAmp": 219.976,
  "dcmmeta_affine": [
    [-2.3949599266052246, -0.11168679594993591, -0.028110405430197716, 111.6758041381836],
    [-0.1057145819067955, 2.364037275314331, -0.3866933584213257, -82.14633178710938],
    [-0.04568440839648247, 0.3846430778503418, 2.368475914001465, -82.95899200439453],
    [0.0, 0.0, 0.0, 1.0]
],
  "dcmmeta_reorient_transform": [
    [0.0, -1.0, 0.0, 87.0],
    [1.0, 0.0, 0.0, 0.0],
    [0.0, 0.0, 1.0, 0.0],
    [0.0, 0.0, 0.0, 1.0]
],
  "dcmmeta_shape": [88, 88, 60, 392],
  "dcmmeta_slice_dim": 2,
  "dcmmeta_version": 0.6,
  "global": {
    "const": {
      "AcquisitionMatrix": [88, 0, 0, 88],
      "AngioFlag": "N",
      "BitsAllocated": 16,
      "BitsStored": 12,
      "BodyPartExamined": "BRAIN",
      "Columns": 704,
      "DeidentificationMethodCodeSequence": [
        {
          "CodeMeaning": "XNAT DicomEdit 6 Script",
          "CodeValue": "3",
          "CodingSchemeDesignator": "XNAT",
          "CodingSchemeVersion": "1.0"}
],
      "EchoNumbers": 1,
      "EchoTime": 33.0,
      "EchoTrainLength": 88,
      "FlipAngle": 62.0,
      "HighBit": 11,
      "ImageOrientationPatient": [0.99884587972585, 0.04408949545136, -0.0190532135228, -0.0465802741863, 0.98594915906, -0.160419867241],
      "ImagePositionPatient": [-805.20719874325, -884.20844388056, 83.045827806594],
      "ImageType": [
        "ORIGINAL",
        "PRIMARY",
        "M",
        "ND",
        "MOSAIC"
],
      "ImagedNucleus": "1H",
      "ImagingFrequency": 123.25001,
      "InPlanePhaseEncodingDirection": "COL",
      "MRAcquisitionType": "2D",
      "MagneticFieldStrength": 3.0,
      "Manufacturer": "SIEMENS",
      "ManufacturerModelName": "Prisma_fit",
      "Modality": "MR",
      "NumberOfAverages": 1.0,
      "NumberOfPhaseEncodingSteps": 88,
      "PercentPhaseFieldOfView": 100.0,
      "PercentSampling": 100.0,
      "PerformedProcedureStepStartTime": "150517.931000",
      "PhotometricInterpretation": "MONOCHROME2",
      "PixelBandwidth": 2185.0,
      "PixelRepresentation": 0,
      "PixelSpacing": [2.3977272510529, 2.3977272510529],
      "ProtocolName": "func-bold_task-RDMcolor_run-06",
      "RepetitionTime": 1200.0,
      "Rows": 704,
      "SAR": 0.04468719668377,
      "SamplesPerPixel": 1,
      "ScanOptions": "FS",
      "ScanningSequence": "EP",
      "SequenceName": "*epfid2d1_88",
      "SequenceVariant": "SK",
      "SeriesDescription": "func-bold_task-RDMcolor_run-06",
      "SeriesNumber": 18,
      "SeriesTime": "162423.225000",
      "SliceLocation": -69.941741972124,
      "SliceThickness": 2.4000000953674,
      "SmallestImagePixelValue": 0,
      "SoftwareVersions": "syngo MR E11",
      "SpacingBetweenSlices": 2.4000000679793,
      "SpecificCharacterSet": "ISO_IR 100",
      "StudyID": "1",
      "StudyTime": "150517.870000",
      "TransmitCoilName": "Body",
      "VariableFlipAngleFlag": "N",
      "WindowCenterWidthExplanation": "Algo1",
      "dBdt": 0.0},
    "slices": {}
  },
  "time": {
    "samples": {
      "AcquisitionNumber": [1, 2, 3, 4, 5, 6, 7, 8, 9, 10, 11, 12, 13, 14, 15, 16, 17, 18, 19, 20, 21, 22, 23, 24, 25, 26, 27, 28, 29, 30, 31, 32, 33, 34, 35, 36, 37, 38, 39, 40, 41, 42, 43, 44, 45, 46, 47, 48, 49, 50, 51, 52, 53, 54, 55, 56, 57, 58, 59, 60, 61, 62, 63, 64, 65, 66, 67, 68, 69, 70, 71, 72, 73, 74, 75, 76, 77, 78, 79, 80, 81, 82, 83, 84, 85, 86, 87, 88, 89, 90, 91, 92, 93, 94, 95, 96, 97, 98, 99, 100, 101, 102, 103, 104, 105, 106, 107, 108, 109, 110, 111, 112, 113, 114, 115, 116, 117, 118, 119, 120, 121, 122, 123, 124, 125, 126, 127, 128, 129, 130, 131, 132, 133, 134, 135, 136, 137, 138, 139, 140, 141, 142, 143, 144, 145, 146, 147, 148, 149, 150, 151, 152, 153, 154, 155, 156, 157, 158, 159, 160, 161, 162, 163, 164, 165, 166, 167, 168, 169, 170, 171, 172, 173, 174, 175, 176, 177, 178, 179, 180, 181, 182, 183, 184, 185, 186, 187, 188, 189, 190, 191, 192, 193, 194, 195, 196, 197, 198, 199, 200, 201, 202, 203, 204, 205, 206, 207, 208, 209, 210, 211, 212, 213, 214, 215, 216, 217, 218, 219, 220, 221, 222, 223, 224, 225, 226, 227, 228, 229, 230, 231, 232, 233, 234, 235, 236, 237, 238, 239, 240, 241, 242, 243, 244, 245, 246, 247, 248, 249, 250, 251, 252, 253, 254, 255, 256, 257, 258, 259, 260, 261, 262, 263, 264, 265, 266, 267, 268, 269, 270, 271, 272, 273, 274, 275, 276, 277, 278, 279, 280, 281, 282, 283, 284, 285, 286, 287, 288, 289, 290, 291, 292, 293, 294, 295, 296, 297, 298, 299, 300, 301, 302, 303, 304, 305, 306, 307, 308, 309, 310, 311, 312, 313, 314, 315, 316, 317, 318, 319, 320, 321, 322, 323, 324, 325, 326, 327, 328, 329, 330, 331, 332, 333, 334, 335, 336, 337, 338, 339, 340, 341, 342, 343, 344, 345, 346, 347, 348, 349, 350, 351, 352, 353, 354, 355, 356, 357, 358, 359, 360, 361, 362, 363, 364, 365, 366, 367, 368, 369, 370, 371, 372, 373, 374, 375, 376, 377, 378, 379, 380, 381, 382, 383, 384, 385, 386, 387, 388, 389, 390, 391, 392],
      "AcquisitionTime": ["162347.520000", "162348.720000", "162349.920000", "162351.120000", "162352.320000", "162353.520000", "162354.720000", "162355.920000", "162357.120000", "162358.320000", "162359.520000", "162400.720000", "162401.920000", "162403.120000", "162404.320000", "162405.520000", "162406.720000", "162407.920000", "162409.120000", "162410.320000", "162411.520000", "162412.720000", "162413.920000", "162415.120000", "162416.320000", "162417.520000", "162418.720000", "162419.920000", "162421.120000", "162422.320000", "162423.520000", "162424.720000", "162425.920000", "162427.120000", "162428.320000", "162429.520000", "162430.720000", "162431.920000", "162433.120000", "162434.320000", "162435.520000", "162436.720000", "162437.920000", "162439.120000", "162440.320000", "162441.520000", "162442.720000", "162443.920000", "162445.120000", "162446.320000", "162447.520000", "162448.720000", "162449.920000", "162451.120000", "162452.320000", "162453.520000", "162454.720000", "162455.920000", "162457.120000", "162458.320000", "162459.520000", "162500.720000", "162501.920000", "162503.120000", "162504.320000", "162505.520000", "162506.720000", "162507.920000", "162509.120000", "162510.320000", "162511.520000", "162512.720000", "162513.920000", "162515.120000", "162516.320000", "162517.520000", "162518.720000", "162519.920000", "162521.120000", "162522.320000", "162523.520000", "162524.720000", "162525.920000", "162527.120000", "162528.320000", "162529.520000", "162530.720000", "162531.920000", "162533.120000", "162534.320000", "162535.520000", "162536.720000", "162537.920000", "162539.120000", "162540.320000", "162541.520000", "162542.720000", "162543.920000", "162545.120000", "162546.320000", "162547.520000", "162548.720000", "162549.920000", "162551.120000", "162552.320000", "162553.520000", "162554.720000", "162555.920000", "162557.120000", "162558.320000", "162559.520000", "162600.720000", "162601.920000", "162603.120000", "162604.320000", "162605.520000", "162606.720000", "162607.920000", "162609.120000", "162610.320000", "162611.520000", "162612.720000", "162613.920000", "162615.120000", "162616.320000", "162617.520000", "162618.720000", "162619.920000", "162621.120000", "162622.320000", "162623.520000", "162624.720000", "162625.920000", "162627.120000", "162628.320000", "162629.520000", "162630.720000", "162631.920000", "162633.120000", "162634.320000", "162635.520000", "162636.720000", "162637.920000", "162639.120000", "162640.320000", "162641.520000", "162642.720000", "162643.920000", "162645.120000", "162646.320000", "162647.520000", "162648.720000", "162649.920000", "162651.120000", "162652.320000", "162653.520000", "162654.720000", "162655.920000", "162657.120000", "162658.320000", "162659.520000", "162700.720000", "162701.920000", "162703.120000", "162704.320000", "162705.520000", "162706.720000", "162707.920000", "162709.120000", "162710.320000", "162711.520000", "162712.720000", "162713.920000", "162715.120000", "162716.320000", "162717.520000", "162718.720000", "162719.920000", "162721.120000", "162722.320000", "162723.520000", "162724.720000", "162725.920000", "162727.120000", "162728.320000", "162729.520000", "162730.720000", "162731.920000", "162733.120000", "162734.320000", "162735.520000", "162736.720000", "162737.920000", "162739.120000", "162740.320000", "162741.520000", "162742.720000", "162743.920000", "162745.120000", "162746.320000", "162747.520000", "162748.720000", "162749.920000", "162751.120000", "162752.320000", "162753.520000", "162754.720000", "162755.920000", "162757.120000", "162758.320000", "162759.520000", "162800.720000", "162801.920000", "162803.120000", "162804.320000", "162805.520000", "162806.720000", "162807.920000", "162809.120000", "162810.320000", "162811.520000", "162812.720000", "162813.920000", "162815.120000", "162816.320000", "162817.520000", "162818.720000", "162819.920000", "162821.120000", "162822.320000", "162823.520000", "162824.720000", "162825.920000", "162827.120000", "162828.320000", "162829.520000", "162830.720000", "162831.920000", "162833.120000", "162834.320000", "162835.520000", "162836.720000", "162837.920000", "162839.120000", "162840.320000", "162841.520000", "162842.720000", "162843.920000", "162845.120000", "162846.320000", "162847.520000", "162848.720000", "162849.920000", "162851.120000", "162852.320000", "162853.520000", "162854.720000", "162855.920000", "162857.120000", "162858.320000", "162859.520000", "162900.720000", "162901.920000", "162903.120000", "162904.320000", "162905.520000", "162906.720000", "162907.920000", "162909.120000", "162910.320000", "162911.520000", "162912.720000", "162913.920000", "162915.120000", "162916.320000", "162917.520000", "162918.720000", "162919.920000", "162921.120000", "162922.320000", "162923.520000", "162924.720000", "162925.920000", "162927.120000", "162928.320000", "162929.520000", "162930.720000", "162931.920000", "162933.120000", "162934.320000", "162935.520000", "162936.720000", "162937.920000", "162939.120000", "162940.320000", "162941.520000", "162942.720000", "162943.920000", "162945.120000", "162946.320000", "162947.520000", "162948.720000", "162949.920000", "162951.120000", "162952.320000", "162953.520000", "162954.720000", "162955.920000", "162957.120000", "162958.320000", "162959.520000", "163000.720000", "163001.920000", "163003.120000", "163004.320000", "163005.520000", "163006.720000", "163007.920000", "163009.120000", "163010.320000", "163011.520000", "163012.720000", "163013.920000", "163015.120000", "163016.320000", "163017.520000", "163018.720000", "163019.920000", "163021.120000", "163022.320000", "163023.520000", "163024.720000", "163025.920000", "163027.120000", "163028.320000", "163029.520000", "163030.720000", "163031.920000", "163033.120000", "163034.320000", "163035.520000", "163036.720000", "163037.920000", "163039.120000", "163040.320000", "163041.520000", "163042.720000", "163043.920000", "163045.120000", "163046.320000", "163047.520000", "163048.720000", "163049.920000", "163051.120000", "163052.320000", "163053.520000", "163054.720000", "163055.920000", "163057.120000", "163058.320000", "163059.520000", "163100.720000", "163101.920000", "163103.120000", "163104.320000", "163105.520000", "163106.720000", "163107.920000", "163109.120000", "163110.320000", "163111.520000", "163112.720000", "163113.920000", "163115.120000", "163116.320000", "163117.520000", "163118.720000", "163119.920000", "163121.120000", "163122.320000", "163123.520000", "163124.720000", "163125.920000", "163127.120000", "163128.320000", "163129.520000", "163130.720000", "163131.920000", "163133.120000", "163134.320000", "163135.520000", "163136.720000"],
      "ContentTime": ["162423.229000", "162423.232000", "162423.235000", "162423.237000", "162423.240000", "162423.243000", "162423.251000", "162423.254000", "162423.257000", "162423.259000", "162423.262000", "162423.264000", "162423.267000", "162423.270000", "162423.273000", "162423.275000", "162423.278000", "162423.281000", "162423.283000", "162423.286000", "162423.288000", "162423.291000", "162423.293000", "162423.296000", "162423.299000", "162423.301000", "162423.304000", "162423.306000", "162423.309000", "162503.226000", "162503.228000", "162503.231000", "162503.234000", "162503.236000", "162503.239000", "162503.241000", "162503.244000", "162503.246000", "162503.249000", "162503.252000", "162503.260000", "162503.263000", "162503.265000", "162503.268000", "162503.271000", "162503.273000", "162503.276000", "162503.278000", "162503.281000", "162503.283000", "162503.286000", "162503.289000", "162503.292000", "162503.294000", "162503.297000", "162503.299000", "162503.302000", "162503.304000", "162503.307000", "162503.310000", "162503.312000", "162503.315000", "162503.317000", "162543.226000", "162543.228000", "162543.231000", "162543.234000", "162543.236000", "162543.239000", "162543.242000", "162543.244000", "162543.247000", "162543.249000", "162543.252000", "162543.255000", "162543.257000", "162543.260000", "162543.263000", "162543.280000", "162543.283000", "162543.286000", "162543.288000", "162543.291000", "162543.293000", "162543.296000", "162543.299000", "162543.301000", "162543.304000", "162543.306000", "162543.309000", "162543.311000", "162543.314000", "162543.317000", "162543.319000", "162543.322000", "162543.324000", "162623.224000", "162623.227000", "162623.230000", "162623.233000", "162623.235000", "162623.238000", "162623.240000", "162623.243000", "162623.246000", "162623.248000", "162623.251000", "162623.254000", "162623.256000", "162623.259000", "162623.261000", "162623.264000", "162623.266000", "162623.269000", "162623.272000", "162623.274000", "162623.277000", "162623.279000", "162623.282000", "162623.285000", "162623.287000", "162623.290000", "162623.292000", "162623.295000", "162623.298000", "162623.300000", "162623.303000", "162623.305000", "162623.308000", "162703.224000", "162703.227000", "162703.230000", "162703.233000", "162703.235000", "162703.238000", "162703.240000", "162703.243000", "162703.246000", "162703.248000", "162703.251000", "162703.253000", "162703.256000", "162703.259000", "162703.261000", "162703.264000", "162703.266000", "162703.269000", "162703.272000", "162703.275000", "162703.277000", "162703.280000", "162703.283000", "162703.285000", "162703.288000", "162703.290000", "162703.293000", "162703.295000", "162703.298000", "162703.301000", "162703.303000", "162703.306000", "162703.309000", "162703.311000", "162723.226000", "162723.228000", "162723.231000", "162723.234000", "162723.237000", "162723.239000", "162723.242000", "162723.244000", "162723.247000", "162723.250000", "162723.253000", "162723.255000", "162723.258000", "162723.261000", "162723.263000", "162723.266000", "162803.226000", "162803.228000", "162803.231000", "162803.234000", "162803.237000", "162803.239000", "162803.242000", "162803.244000", "162803.248000", "162803.250000", "162803.253000", "162803.255000", "162803.259000", "162803.261000", "162803.264000", "162803.266000", "162803.269000", "162803.272000", "162803.274000", "162803.277000", "162803.280000", "162803.282000", "162803.285000", "162803.287000", "162803.290000", "162803.293000", "162803.295000", "162803.298000", "162803.300000", "162803.303000", "162803.306000", "162803.308000", "162803.311000", "162803.313000", "162843.225000", "162843.227000", "162843.230000", "162843.233000", "162843.235000", "162843.238000", "162843.240000", "162843.243000", "162843.246000", "162843.248000", "162843.251000", "162843.253000", "162843.256000", "162843.259000", "162843.261000", "162843.264000", "162843.266000", "162843.269000", "162843.272000", "162843.274000", "162843.277000", "162843.279000", "162843.282000", "162843.285000", "162843.287000", "162843.290000", "162843.292000", "162843.295000", "162843.298000", "162843.300000", "162843.303000", "162843.305000", "162843.308000", "162923.225000", "162923.228000", "162923.230000", "162923.233000", "162923.236000", "162923.238000", "162923.241000", "162923.243000", "162923.246000", "162923.249000", "162923.251000", "162923.254000", "162923.256000", "162923.259000", "162923.262000", "162923.264000", "162923.267000", "162923.270000", "162923.272000", "162923.275000", "162923.277000", "162923.280000", "162923.283000", "162923.285000", "162923.288000", "162923.291000", "162923.293000", "162923.296000", "162923.298000", "162923.301000", "162923.304000", "162923.306000", "162923.309000", "163003.226000", "163003.228000", "163003.231000", "163003.233000", "163003.236000", "163003.239000", "163003.241000", "163003.244000", "163003.247000", "163003.263000", "163003.266000", "163003.268000", "163003.271000", "163003.273000", "163003.276000", "163003.279000", "163003.281000", "163003.284000", "163003.287000", "163003.289000", "163003.292000", "163003.295000", "163003.297000", "163003.300000", "163003.302000", "163003.305000", "163003.308000", "163003.310000", "163003.313000", "163003.315000", "163003.318000", "163003.321000", "163003.323000", "163003.326000", "163043.225000", "163043.229000", "163043.231000", "163043.234000", "163043.237000", "163043.239000", "163043.242000", "163043.245000", "163043.247000", "163043.250000", "163043.252000", "163043.255000", "163043.258000", "163043.260000", "163043.263000", "163043.265000", "163043.268000", "163043.271000", "163043.273000", "163043.276000", "163043.278000", "163043.281000", "163043.283000", "163043.286000", "163043.289000", "163043.291000", "163043.294000", "163043.297000", "163043.299000", "163043.302000", "163043.305000", "163043.307000", "163043.310000", "163123.225000", "163123.228000", "163123.230000", "163123.233000", "163123.235000", "163123.238000", "163123.240000", "163123.243000", "163123.246000", "163123.248000", "163123.251000", "163123.254000", "163123.256000", "163123.259000", "163123.261000", "163123.264000", "163123.267000", "163123.269000", "163123.272000", "163123.274000", "163123.277000", "163123.280000", "163123.282000", "163123.285000", "163123.288000", "163123.290000", "163123.293000", "163123.295000", "163123.298000", "163123.301000", "163123.303000", "163123.306000", "163123.308000", "163137.973000", "163137.976000", "163137.979000", "163137.981000", "163137.984000", "163137.987000", "163137.997000", "163138.002000", "163138.005000", "163138.008000", "163138.010000", "163138.013000", "163138.016000"],
      "InstanceCreationTime": ["162423.229000", "162423.232000", "162423.235000", "162423.237000", "162423.240000", "162423.243000", "162423.251000", "162423.254000", "162423.257000", "162423.259000", "162423.262000", "162423.264000", "162423.267000", "162423.270000", "162423.273000", "162423.275000", "162423.278000", "162423.281000", "162423.283000", "162423.286000", "162423.288000", "162423.291000", "162423.293000", "162423.296000", "162423.299000", "162423.301000", "162423.304000", "162423.306000", "162423.309000", "162503.226000", "162503.228000", "162503.231000", "162503.234000", "162503.236000", "162503.239000", "162503.241000", "162503.244000", "162503.246000", "162503.249000", "162503.252000", "162503.260000", "162503.263000", "162503.265000", "162503.268000", "162503.271000", "162503.273000", "162503.276000", "162503.278000", "162503.281000", "162503.283000", "162503.286000", "162503.289000", "162503.292000", "162503.294000", "162503.297000", "162503.299000", "162503.302000", "162503.304000", "162503.307000", "162503.310000", "162503.312000", "162503.315000", "162503.317000", "162543.226000", "162543.228000", "162543.231000", "162543.234000", "162543.236000", "162543.239000", "162543.242000", "162543.244000", "162543.247000", "162543.249000", "162543.252000", "162543.255000", "162543.257000", "162543.260000", "162543.263000", "162543.280000", "162543.283000", "162543.286000", "162543.288000", "162543.291000", "162543.293000", "162543.296000", "162543.299000", "162543.301000", "162543.304000", "162543.306000", "162543.309000", "162543.311000", "162543.314000", "162543.317000", "162543.319000", "162543.322000", "162543.324000", "162623.224000", "162623.227000", "162623.230000", "162623.233000", "162623.235000", "162623.238000", "162623.240000", "162623.243000", "162623.246000", "162623.248000", "162623.251000", "162623.254000", "162623.256000", "162623.259000", "162623.261000", "162623.264000", "162623.266000", "162623.269000", "162623.272000", "162623.274000", "162623.277000", "162623.279000", "162623.282000", "162623.285000", "162623.287000", "162623.290000", "162623.292000", "162623.295000", "162623.298000", "162623.300000", "162623.303000", "162623.305000", "162623.308000", "162703.224000", "162703.227000", "162703.230000", "162703.233000", "162703.235000", "162703.238000", "162703.240000", "162703.243000", "162703.246000", "162703.248000", "162703.251000", "162703.253000", "162703.256000", "162703.259000", "162703.261000", "162703.264000", "162703.266000", "162703.269000", "162703.272000", "162703.275000", "162703.277000", "162703.280000", "162703.283000", "162703.285000", "162703.288000", "162703.290000", "162703.293000", "162703.295000", "162703.298000", "162703.301000", "162703.303000", "162703.306000", "162703.309000", "162703.311000", "162723.226000", "162723.228000", "162723.231000", "162723.234000", "162723.237000", "162723.239000", "162723.242000", "162723.244000", "162723.247000", "162723.250000", "162723.253000", "162723.255000", "162723.258000", "162723.261000", "162723.263000", "162723.266000", "162803.226000", "162803.228000", "162803.231000", "162803.234000", "162803.237000", "162803.239000", "162803.242000", "162803.244000", "162803.248000", "162803.250000", "162803.253000", "162803.255000", "162803.259000", "162803.261000", "162803.264000", "162803.266000", "162803.269000", "162803.272000", "162803.274000", "162803.277000", "162803.280000", "162803.282000", "162803.285000", "162803.287000", "162803.290000", "162803.293000", "162803.295000", "162803.298000", "162803.300000", "162803.303000", "162803.306000", "162803.308000", "162803.311000", "162803.313000", "162843.225000", "162843.227000", "162843.230000", "162843.233000", "162843.235000", "162843.238000", "162843.240000", "162843.243000", "162843.246000", "162843.248000", "162843.251000", "162843.253000", "162843.256000", "162843.259000", "162843.261000", "162843.264000", "162843.266000", "162843.269000", "162843.272000", "162843.274000", "162843.277000", "162843.279000", "162843.282000", "162843.285000", "162843.287000", "162843.290000", "162843.292000", "162843.295000", "162843.298000", "162843.300000", "162843.303000", "162843.305000", "162843.308000", "162923.225000", "162923.228000", "162923.230000", "162923.233000", "162923.236000", "162923.238000", "162923.241000", "162923.243000", "162923.246000", "162923.249000", "162923.251000", "162923.254000", "162923.256000", "162923.259000", "162923.262000", "162923.264000", "162923.267000", "162923.270000", "162923.272000", "162923.275000", "162923.277000", "162923.280000", "162923.283000", "162923.285000", "162923.288000", "162923.291000", "162923.293000", "162923.296000", "162923.298000", "162923.301000", "162923.304000", "162923.306000", "162923.309000", "163003.226000", "163003.228000", "163003.231000", "163003.233000", "163003.236000", "163003.239000", "163003.241000", "163003.244000", "163003.247000", "163003.263000", "163003.266000", "163003.268000", "163003.271000", "163003.273000", "163003.276000", "163003.279000", "163003.281000", "163003.284000", "163003.287000", "163003.289000", "163003.292000", "163003.295000", "163003.297000", "163003.300000", "163003.302000", "163003.305000", "163003.308000", "163003.310000", "163003.313000", "163003.315000", "163003.318000", "163003.321000", "163003.323000", "163003.326000", "163043.225000", "163043.229000", "163043.231000", "163043.234000", "163043.237000", "163043.239000", "163043.242000", "163043.245000", "163043.247000", "163043.250000", "163043.252000", "163043.255000", "163043.258000", "163043.260000", "163043.263000", "163043.265000", "163043.268000", "163043.271000", "163043.273000", "163043.276000", "163043.278000", "163043.281000", "163043.283000", "163043.286000", "163043.289000", "163043.291000", "163043.294000", "163043.297000", "163043.299000", "163043.302000", "163043.305000", "163043.307000", "163043.310000", "163123.225000", "163123.228000", "163123.230000", "163123.233000", "163123.235000", "163123.238000", "163123.240000", "163123.243000", "163123.246000", "163123.248000", "163123.251000", "163123.254000", "163123.256000", "163123.259000", "163123.261000", "163123.264000", "163123.267000", "163123.269000", "163123.272000", "163123.274000", "163123.277000", "163123.280000", "163123.282000", "163123.285000", "163123.288000", "163123.290000", "163123.293000", "163123.295000", "163123.298000", "163123.301000", "163123.303000", "163123.306000", "163123.308000", "163137.973000", "163137.976000", "163137.979000", "163137.981000", "163137.984000", "163137.987000", "163137.997000", "163138.002000", "163138.005000", "163138.008000", "163138.010000", "163138.013000", "163138.016000"],
      "InstanceNumber": [1, 2, 3, 4, 5, 6, 7, 8, 9, 10, 11, 12, 13, 14, 15, 16, 17, 18, 19, 20, 21, 22, 23, 24, 25, 26, 27, 28, 29, 30, 31, 32, 33, 34, 35, 36, 37, 38, 39, 40, 41, 42, 43, 44, 45, 46, 47, 48, 49, 50, 51, 52, 53, 54, 55, 56, 57, 58, 59, 60, 61, 62, 63, 64, 65, 66, 67, 68, 69, 70, 71, 72, 73, 74, 75, 76, 77, 78, 79, 80, 81, 82, 83, 84, 85, 86, 87, 88, 89, 90, 91, 92, 93, 94, 95, 96, 97, 98, 99, 100, 101, 102, 103, 104, 105, 106, 107, 108, 109, 110, 111, 112, 113, 114, 115, 116, 117, 118, 119, 120, 121, 122, 123, 124, 125, 126, 127, 128, 129, 130, 131, 132, 133, 134, 135, 136, 137, 138, 139, 140, 141, 142, 143, 144, 145, 146, 147, 148, 149, 150, 151, 152, 153, 154, 155, 156, 157, 158, 159, 160, 161, 162, 163, 164, 165, 166, 167, 168, 169, 170, 171, 172, 173, 174, 175, 176, 177, 178, 179, 180, 181, 182, 183, 184, 185, 186, 187, 188, 189, 190, 191, 192, 193, 194, 195, 196, 197, 198, 199, 200, 201, 202, 203, 204, 205, 206, 207, 208, 209, 210, 211, 212, 213, 214, 215, 216, 217, 218, 219, 220, 221, 222, 223, 224, 225, 226, 227, 228, 229, 230, 231, 232, 233, 234, 235, 236, 237, 238, 239, 240, 241, 242, 243, 244, 245, 246, 247, 248, 249, 250, 251, 252, 253, 254, 255, 256, 257, 258, 259, 260, 261, 262, 263, 264, 265, 266, 267, 268, 269, 270, 271, 272, 273, 274, 275, 276, 277, 278, 279, 280, 281, 282, 283, 284, 285, 286, 287, 288, 289, 290, 291, 292, 293, 294, 295, 296, 297, 298, 299, 300, 301, 302, 303, 304, 305, 306, 307, 308, 309, 310, 311, 312, 313, 314, 315, 316, 317, 318, 319, 320, 321, 322, 323, 324, 325, 326, 327, 328, 329, 330, 331, 332, 333, 334, 335, 336, 337, 338, 339, 340, 341, 342, 343, 344, 345, 346, 347, 348, 349, 350, 351, 352, 353, 354, 355, 356, 357, 358, 359, 360, 361, 362, 363, 364, 365, 366, 367, 368, 369, 370, 371, 372, 373, 374, 375, 376, 377, 378, 379, 380, 381, 382, 383, 384, 385, 386, 387, 388, 389, 390, 391, 392],
