{
  "AcquisitionMatrixPE": 88,
  "AcquisitionNumber": 1,
  "AcquisitionTime": "15:35:57.455000",
  "BandwidthPerPixelPhaseEncode": 19.592,
  "BaseResolution": 88,
  "BodyPartExamined": "BRAIN",
  "ConsistencyInfo": "N4_VE11C_LATEST_20160120",
  "ConversionSoftware": "dcm2niix",
  "ConversionSoftwareVersion": "v1.0.20190902",
  "DerivedVendorReportedEchoSpacing": 0.000580014,
  "DeviceSerialNumber": "67050",
  "DwellTime": 2.6e-06,
  "EchoTime": 0.033,
  "EchoTrainLength": 88,
  "EffectiveEchoSpacing": 0.000580014,
  "FlipAngle": 62,
  "ImageOrientationPatientDICOM": [0.998846, 0.0440895, -0.0190532, -0.0465803, 0.985949, -0.16042],
  "ImageType": [
    "ORIGINAL",
    "PRIMARY",
    "M",
    "ND",
    "MOSAIC"
],
  "ImagingFrequency": 123.25,
  "InPlanePhaseEncodingDirectionDICOM": "COL",
  "InstitutionAddress": "Olive_Street_60_Providence_RI_US_02912",
  "InstitutionName": "BROWN_UNIVERSITY_MRF",
  "InstitutionalDepartmentName": "Department",
  "MRAcquisitionType": "2D",
  "MagneticFieldStrength": 3,
  "Manufacturer": "Siemens",
  "ManufacturersModelName": "Prisma_fit",
  "Modality": "MR",
  "MultibandAccelerationFactor": 4,
  "PartialFourier": 1,
  "PatientPosition": "HFS",
  "PercentPhaseFOV": 100,
  "PhaseEncodingDirection": "j-",
  "PhaseEncodingSteps": 88,
  "PhaseResolution": 1,
  "PixelBandwidth": 2185,
  "ProcedureStepDescription": "ASHENHAV_1222",
  "ProtocolName": "func-bold_task-RDMcolor_run-02",
  "PulseSequenceDetails": "%SiemensSeq%_ep2d_bold",
  "ReceiveCoilActiveElements": "HC1-7;NC1",
  "ReceiveCoilName": "HeadNeck_64",
  "ReconMatrixPE": 88,
  "RefLinesPE": 8,
  "RepetitionTime": 1.2,
  "SAR": 0.0446872,
  "ScanOptions": "FS",
  "ScanningSequence": "EP",
  "SequenceName": "_epfid2d1_88",
  "SequenceVariant": "SK",
  "SeriesDescription": "func-bold_task-RDMcolor_run-02",
  "SeriesNumber": 10,
  "ShimSetting": [1747, -9098, 4389, 591, -72, -377, -51, -2],
  "SliceThickness": 2.4,
  "SliceTiming": [0.55, 0, 0.63, 0.0775, 0.7075, 0.1575, 0.785, 0.235, 0.865, 0.315, 0.9425, 0.3925, 1.0225, 0.4725, 1.1, 0.55, 0, 0.63, 0.0775, 0.7075, 0.1575, 0.785, 0.235, 0.865, 0.315, 0.9425, 0.3925, 1.0225, 0.4725, 1.1, 0.55, 0, 0.63, 0.0775, 0.7075, 0.1575, 0.785, 0.235, 0.865, 0.315, 0.9425, 0.3925, 1.0225, 0.4725, 1.1, 0.55, 0, 0.63, 0.0775, 0.7075, 0.1575, 0.785, 0.235, 0.865, 0.315, 0.9425, 0.3925, 1.0225, 0.4725, 1.1],
  "SoftwareVersions": "syngo_MR_E11",
  "SpacingBetweenSlices": 2.4,
  "StationName": "AWP67050",
  "TaskName": "RDMcolor",
  "TotalReadoutTime": 0.0504612,
  "TxRefAmp": 219.976,
  "dcmmeta_affine": [
    [-2.3949599266052246, -0.11168679594993591, -0.028110405430197716, 111.6758041381836],
    [-0.1057145819067955, 2.364037275314331, -0.3866933584213257, -82.14633178710938],
    [-0.04568440839648247, 0.3846430778503418, 2.368475914001465, -82.95899200439453],
    [0.0, 0.0, 0.0, 1.0]
],
  "dcmmeta_reorient_transform": [
    [0.0, -1.0, 0.0, 87.0],
    [1.0, 0.0, 0.0, 0.0],
    [0.0, 0.0, 1.0, 0.0],
    [0.0, 0.0, 0.0, 1.0]
],
  "dcmmeta_shape": [88, 88, 60, 392],
  "dcmmeta_slice_dim": 2,
  "dcmmeta_version": 0.6,
  "global": {
    "const": {
      "AcquisitionMatrix": [88, 0, 0, 88],
      "AngioFlag": "N",
      "BitsAllocated": 16,
      "BitsStored": 12,
      "BodyPartExamined": "BRAIN",
      "Columns": 704,
      "DeidentificationMethodCodeSequence": [
        {
          "CodeMeaning": "XNAT DicomEdit 6 Script",
          "CodeValue": "3",
          "CodingSchemeDesignator": "XNAT",
          "CodingSchemeVersion": "1.0"}
],
      "EchoNumbers": 1,
      "EchoTime": 33.0,
      "EchoTrainLength": 88,
      "FlipAngle": 62.0,
      "HighBit": 11,
      "ImageOrientationPatient": [0.99884587972585, 0.04408949545136, -0.0190532135228, -0.0465802741863, 0.98594915906, -0.160419867241],
      "ImagePositionPatient": [-805.20719874325, -884.20844388056, 83.045827806594],
      "ImageType": [
        "ORIGINAL",
        "PRIMARY",
        "M",
        "ND",
        "MOSAIC"
],
      "ImagedNucleus": "1H",
      "ImagingFrequency": 123.249996,
      "InPlanePhaseEncodingDirection": "COL",
      "MRAcquisitionType": "2D",
      "MagneticFieldStrength": 3.0,
      "Manufacturer": "SIEMENS",
      "ManufacturerModelName": "Prisma_fit",
      "Modality": "MR",
      "NumberOfAverages": 1.0,
      "NumberOfPhaseEncodingSteps": 88,
      "PercentPhaseFieldOfView": 100.0,
      "PercentSampling": 100.0,
      "PerformedProcedureStepStartTime": "150517.931000",
      "PhotometricInterpretation": "MONOCHROME2",
      "PixelBandwidth": 2185.0,
      "PixelRepresentation": 0,
      "PixelSpacing": [2.3977272510529, 2.3977272510529],
      "ProtocolName": "func-bold_task-RDMcolor_run-02",
      "RepetitionTime": 1200.0,
      "Rows": 704,
      "SAR": 0.04468719668377,
      "SamplesPerPixel": 1,
      "ScanOptions": "FS",
      "ScanningSequence": "EP",
      "SequenceName": "*epfid2d1_88",
      "SequenceVariant": "SK",
      "SeriesDescription": "func-bold_task-RDMcolor_run-02",
      "SeriesNumber": 10,
      "SeriesTime": "153640.127000",
      "SliceLocation": -69.941741972124,
      "SliceThickness": 2.4000000953674,
      "SmallestImagePixelValue": 0,
      "SoftwareVersions": "syngo MR E11",
      "SpacingBetweenSlices": 2.4000000679793,
      "SpecificCharacterSet": "ISO_IR 100",
      "StudyID": "1",
      "StudyTime": "150517.870000",
      "TransmitCoilName": "Body",
      "VariableFlipAngleFlag": "N",
      "WindowCenterWidthExplanation": "Algo1",
      "dBdt": 0.0},
    "slices": {}
  },
  "time": {
    "samples": {
      "AcquisitionNumber": [1, 2, 3, 4, 5, 6, 7, 8, 9, 10, 11, 12, 13, 14, 15, 16, 17, 18, 19, 20, 21, 22, 23, 24, 25, 26, 27, 28, 29, 30, 31, 32, 33, 34, 35, 36, 37, 38, 39, 40, 41, 42, 43, 44, 45, 46, 47, 48, 49, 50, 51, 52, 53, 54, 55, 56, 57, 58, 59, 60, 61, 62, 63, 64, 65, 66, 67, 68, 69, 70, 71, 72, 73, 74, 75, 76, 77, 78, 79, 80, 81, 82, 83, 84, 85, 86, 87, 88, 89, 90, 91, 92, 93, 94, 95, 96, 97, 98, 99, 100, 101, 102, 103, 104, 105, 106, 107, 108, 109, 110, 111, 112, 113, 114, 115, 116, 117, 118, 119, 120, 121, 122, 123, 124, 125, 126, 127, 128, 129, 130, 131, 132, 133, 134, 135, 136, 137, 138, 139, 140, 141, 142, 143, 144, 145, 146, 147, 148, 149, 150, 151, 152, 153, 154, 155, 156, 157, 158, 159, 160, 161, 162, 163, 164, 165, 166, 167, 168, 169, 170, 171, 172, 173, 174, 175, 176, 177, 178, 179, 180, 181, 182, 183, 184, 185, 186, 187, 188, 189, 190, 191, 192, 193, 194, 195, 196, 197, 198, 199, 200, 201, 202, 203, 204, 205, 206, 207, 208, 209, 210, 211, 212, 213, 214, 215, 216, 217, 218, 219, 220, 221, 222, 223, 224, 225, 226, 227, 228, 229, 230, 231, 232, 233, 234, 235, 236, 237, 238, 239, 240, 241, 242, 243, 244, 245, 246, 247, 248, 249, 250, 251, 252, 253, 254, 255, 256, 257, 258, 259, 260, 261, 262, 263, 264, 265, 266, 267, 268, 269, 270, 271, 272, 273, 274, 275, 276, 277, 278, 279, 280, 281, 282, 283, 284, 285, 286, 287, 288, 289, 290, 291, 292, 293, 294, 295, 296, 297, 298, 299, 300, 301, 302, 303, 304, 305, 306, 307, 308, 309, 310, 311, 312, 313, 314, 315, 316, 317, 318, 319, 320, 321, 322, 323, 324, 325, 326, 327, 328, 329, 330, 331, 332, 333, 334, 335, 336, 337, 338, 339, 340, 341, 342, 343, 344, 345, 346, 347, 348, 349, 350, 351, 352, 353, 354, 355, 356, 357, 358, 359, 360, 361, 362, 363, 364, 365, 366, 367, 368, 369, 370, 371, 372, 373, 374, 375, 376, 377, 378, 379, 380, 381, 382, 383, 384, 385, 386, 387, 388, 389, 390, 391, 392],
      "AcquisitionTime": ["153557.455000", "153558.655000", "153559.855000", "153601.055000", "153602.255000", "153603.455000", "153604.655000", "153605.855000", "153607.055000", "153608.255000", "153609.455000", "153610.655000", "153611.855000", "153613.055000", "153614.255000", "153615.455000", "153616.655000", "153617.855000", "153619.055000", "153620.255000", "153621.455000", "153622.655000", "153623.855000", "153625.055000", "153626.255000", "153627.455000", "153628.655000", "153629.855000", "153631.055000", "153632.255000", "153633.455000", "153634.655000", "153635.855000", "153637.055000", "153638.255000", "153639.455000", "153640.655000", "153641.855000", "153643.055000", "153644.255000", "153645.455000", "153646.655000", "153647.855000", "153649.055000", "153650.255000", "153651.455000", "153652.655000", "153653.855000", "153655.055000", "153656.255000", "153657.455000", "153658.655000", "153659.855000", "153701.055000", "153702.255000", "153703.455000", "153704.655000", "153705.855000", "153707.055000", "153708.255000", "153709.455000", "153710.655000", "153711.855000", "153713.055000", "153714.255000", "153715.455000", "153716.655000", "153717.855000", "153719.055000", "153720.255000", "153721.455000", "153722.655000", "153723.855000", "153725.055000", "153726.255000", "153727.455000", "153728.655000", "153729.855000", "153731.055000", "153732.255000", "153733.455000", "153734.655000", "153735.855000", "153737.055000", "153738.255000", "153739.455000", "153740.655000", "153741.855000", "153743.055000", "153744.255000", "153745.455000", "153746.655000", "153747.855000", "153749.055000", "153750.255000", "153751.455000", "153752.655000", "153753.855000", "153755.055000", "153756.255000", "153757.455000", "153758.655000", "153759.855000", "153801.055000", "153802.255000", "153803.455000", "153804.655000", "153805.855000", "153807.055000", "153808.255000", "153809.455000", "153810.655000", "153811.855000", "153813.055000", "153814.255000", "153815.455000", "153816.655000", "153817.855000", "153819.055000", "153820.255000", "153821.455000", "153822.655000", "153823.855000", "153825.055000", "153826.255000", "153827.455000", "153828.655000", "153829.855000", "153831.055000", "153832.255000", "153833.455000", "153834.655000", "153835.855000", "153837.055000", "153838.255000", "153839.455000", "153840.655000", "153841.855000", "153843.055000", "153844.255000", "153845.455000", "153846.655000", "153847.855000", "153849.055000", "153850.255000", "153851.455000", "153852.655000", "153853.855000", "153855.055000", "153856.255000", "153857.455000", "153858.655000", "153859.855000", "153901.055000", "153902.255000", "153903.455000", "153904.655000", "153905.855000", "153907.055000", "153908.255000", "153909.455000", "153910.655000", "153911.855000", "153913.055000", "153914.255000", "153915.455000", "153916.655000", "153917.855000", "153919.055000", "153920.255000", "153921.455000", "153922.655000", "153923.855000", "153925.055000", "153926.255000", "153927.455000", "153928.655000", "153929.855000", "153931.055000", "153932.255000", "153933.455000", "153934.655000", "153935.855000", "153937.055000", "153938.255000", "153939.455000", "153940.655000", "153941.855000", "153943.055000", "153944.255000", "153945.455000", "153946.655000", "153947.855000", "153949.055000", "153950.255000", "153951.455000", "153952.655000", "153953.855000", "153955.055000", "153956.255000", "153957.455000", "153958.655000", "153959.855000", "154001.055000", "154002.255000", "154003.455000", "154004.655000", "154005.855000", "154007.055000", "154008.255000", "154009.455000", "154010.655000", "154011.855000", "154013.055000", "154014.255000", "154015.455000", "154016.655000", "154017.855000", "154019.055000", "154020.255000", "154021.455000", "154022.655000", "154023.855000", "154025.055000", "154026.255000", "154027.455000", "154028.655000", "154029.855000", "154031.055000", "154032.255000", "154033.455000", "154034.655000", "154035.855000", "154037.055000", "154038.255000", "154039.455000", "154040.655000", "154041.855000", "154043.055000", "154044.255000", "154045.455000", "154046.655000", "154047.855000", "154049.055000", "154050.255000", "154051.455000", "154052.655000", "154053.855000", "154055.055000", "154056.255000", "154057.455000", "154058.655000", "154059.855000", "154101.055000", "154102.255000", "154103.455000", "154104.655000", "154105.855000", "154107.055000", "154108.255000", "154109.455000", "154110.655000", "154111.855000", "154113.055000", "154114.255000", "154115.455000", "154116.655000", "154117.855000", "154119.055000", "154120.255000", "154121.455000", "154122.655000", "154123.855000", "154125.055000", "154126.255000", "154127.455000", "154128.655000", "154129.855000", "154131.055000", "154132.255000", "154133.455000", "154134.655000", "154135.855000", "154137.055000", "154138.255000", "154139.455000", "154140.655000", "154141.855000", "154143.055000", "154144.255000", "154145.455000", "154146.655000", "154147.855000", "154149.055000", "154150.255000", "154151.455000", "154152.655000", "154153.855000", "154155.055000", "154156.255000", "154157.455000", "154158.655000", "154159.855000", "154201.055000", "154202.255000", "154203.455000", "154204.655000", "154205.855000", "154207.055000", "154208.255000", "154209.455000", "154210.655000", "154211.855000", "154213.055000", "154214.255000", "154215.455000", "154216.655000", "154217.855000", "154219.055000", "154220.255000", "154221.455000", "154222.655000", "154223.855000", "154225.055000", "154226.255000", "154227.455000", "154228.655000", "154229.855000", "154231.055000", "154232.255000", "154233.455000", "154234.655000", "154235.855000", "154237.055000", "154238.255000", "154239.455000", "154240.655000", "154241.855000", "154243.055000", "154244.255000", "154245.455000", "154246.655000", "154247.855000", "154249.055000", "154250.255000", "154251.455000", "154252.655000", "154253.855000", "154255.055000", "154256.255000", "154257.455000", "154258.655000", "154259.855000", "154301.055000", "154302.255000", "154303.455000", "154304.655000", "154305.855000", "154307.055000", "154308.255000", "154309.455000", "154310.655000", "154311.855000", "154313.055000", "154314.255000", "154315.455000", "154316.655000", "154317.855000", "154319.055000", "154320.255000", "154321.455000", "154322.655000", "154323.855000", "154325.055000", "154326.255000", "154327.455000", "154328.655000", "154329.855000", "154331.055000", "154332.255000", "154333.455000", "154334.655000", "154335.855000", "154337.055000", "154338.255000", "154339.455000", "154340.655000", "154341.855000", "154343.055000", "154344.255000", "154345.455000", "154346.655000"],
      "ContentTime": ["153640.131000", "153640.134000", "153640.137000", "153640.139000", "153640.142000", "153640.144000", "153640.147000", "153640.149000", "153640.152000", "153640.154000", "153640.157000", "153640.159000", "153640.162000", "153640.165000", "153640.167000", "153640.170000", "153640.172000", "153640.175000", "153640.178000", "153640.180000", "153640.183000", "153640.186000", "153640.188000", "153640.191000", "153640.193000", "153640.196000", "153640.198000", "153640.201000", "153640.206000", "153640.209000", "153640.211000", "153640.214000", "153640.217000", "153640.219000", "153640.222000", "153720.128000", "153720.130000", "153720.133000", "153720.135000", "153720.138000", "153720.153000", "153720.156000", "153720.158000", "153720.161000", "153720.163000", "153720.166000", "153720.169000", "153720.171000", "153720.174000", "153720.176000", "153720.179000", "153720.182000", "153720.184000", "153720.187000", "153720.189000", "153720.192000", "153720.194000", "153720.197000", "153720.200000", "153720.202000", "153720.205000", "153720.208000", "153720.210000", "153720.213000", "153720.215000", "153720.218000", "153720.221000", "153720.223000", "153740.126000", "153740.129000", "153740.132000", "153740.134000", "153740.137000", "153740.139000", "153740.142000", "153740.144000", "153740.147000", "153740.149000", "153740.152000", "153740.155000", "153740.157000", "153740.160000", "153740.162000", "153740.165000", "153740.168000", "153820.126000", "153820.129000", "153820.132000", "153820.134000", "153820.137000", "153820.146000", "153820.149000", "153820.151000", "153820.154000", "153820.156000", "153820.159000", "153820.162000", "153820.164000", "153820.176000", "153820.179000", "153820.181000", "153820.184000", "153820.187000", "153820.189000", "153820.192000", "153820.195000", "153820.197000", "153820.200000", "153820.203000", "153820.205000", "153820.208000", "153820.211000", "153820.214000", "153820.216000", "153820.219000", "153820.221000", "153820.224000", "153820.227000", "153900.126000", "153900.129000", "153900.132000", "153900.135000", "153900.137000", "153900.140000", "153900.142000", "153900.145000", "153900.148000", "153900.150000", "153900.153000", "153900.155000", "153900.158000", "153900.161000", "153900.163000", "153900.166000", "153900.168000", "153900.171000", "153900.173000", "153900.176000", "153900.179000", "153900.181000", "153900.184000", "153900.186000", "153900.189000", "153900.191000", "153900.205000", "153900.208000", "153900.211000", "153900.213000", "153900.216000", "153900.218000", "153900.221000", "153940.127000", "153940.130000", "153940.133000", "153940.135000", "153940.138000", "153940.141000", "153940.143000", "153940.146000", "153940.148000", "153940.151000", "153940.153000", "153940.156000", "153940.158000", "153940.161000", "153940.164000", "153940.166000", "153940.169000", "153940.172000", "153940.174000", "153940.177000", "153940.179000", "153940.182000", "153940.184000", "153940.187000", "153940.190000", "153940.192000", "153940.195000", "153940.197000", "153940.200000", "153940.203000", "153940.205000", "153940.208000", "153940.210000", "153940.213000", "154020.127000", "154020.129000", "154020.132000", "154020.135000", "154020.137000", "154020.140000", "154020.143000", "154020.145000", "154020.148000", "154020.150000", "154020.153000", "154020.156000", "154020.158000", "154020.161000", "154020.164000", "154020.166000", "154020.169000", "154020.171000", "154020.174000", "154020.176000", "154020.179000", "154020.182000", "154020.184000", "154020.187000", "154020.189000", "154020.192000", "154020.195000", "154020.197000", "154020.200000", "154020.202000", "154020.205000", "154020.208000", "154020.211000", "154100.127000", "154100.129000", "154100.132000", "154100.135000", "154100.137000", "154100.140000", "154100.143000", "154100.145000", "154100.148000", "154100.150000", "154100.153000", "154100.156000", "154100.158000", "154100.161000", "154100.163000", "154100.166000", "154100.168000", "154100.171000", "154100.184000", "154100.186000", "154100.189000", "154100.191000", "154100.194000", "154100.197000", "154100.199000", "154100.202000", "154100.204000", "154100.207000", "154100.218000", "154100.221000", "154100.224000", "154100.226000", "154100.229000", "154140.127000", "154140.130000", "154140.133000", "154140.135000", "154140.138000", "154140.141000", "154140.143000", "154140.146000", "154140.148000", "154140.151000", "154140.154000", "154140.156000", "154140.159000", "154140.162000", "154140.164000", "154140.167000", "154140.169000", "154140.172000", "154140.175000", "154140.177000", "154140.180000", "154140.182000", "154140.185000", "154140.188000", "154140.190000", "154140.193000", "154140.196000", "154140.198000", "154140.201000", "154140.203000", "154140.206000", "154140.209000", "154140.211000", "154140.214000", "154220.127000", "154220.130000", "154220.132000", "154220.135000", "154220.137000", "154220.140000", "154220.143000", "154220.145000", "154220.148000", "154220.151000", "154220.153000", "154220.156000", "154220.158000", "154220.161000", "154220.163000", "154220.166000", "154220.169000", "154220.171000", "154220.174000", "154220.176000", "154220.179000", "154220.182000", "154220.184000", "154220.187000", "154220.189000", "154220.192000", "154220.201000", "154220.204000", "154220.207000", "154220.210000", "154220.212000", "154220.215000", "154220.218000", "154300.127000", "154300.130000", "154300.132000", "154300.135000", "154300.137000", "154300.140000", "154300.142000", "154300.145000", "154300.148000", "154300.150000", "154300.153000", "154300.156000", "154300.158000", "154300.161000", "154300.163000", "154300.166000", "154300.169000", "154300.171000", "154300.174000", "154300.176000", "154300.179000", "154300.182000", "154300.200000", "154300.202000", "154300.225000", "154300.228000", "154300.230000", "154300.233000", "154300.235000", "154300.238000", "154300.241000", "154300.243000", "154300.246000", "154340.127000", "154340.129000", "154340.132000", "154340.135000", "154340.138000", "154340.140000", "154340.143000", "154340.145000", "154340.148000", "154340.150000", "154340.153000", "154340.156000", "154340.158000", "154340.161000", "154340.163000", "154340.166000", "154340.168000", "154340.171000", "154340.173000", "154340.176000", "154340.179000", "154340.181000", "154340.184000", "154340.186000", "154340.189000", "154340.192000", "154340.194000", "154340.197000", "154340.199000", "154340.202000", "154340.205000", "154340.207000", "154340.210000", "154340.213000", "154348.391000", "154348.394000", "154348.397000", "154348.399000", "154348.402000", "154348.404000", "154348.407000"],
      "InstanceCreationTime": ["153640.131000", "153640.134000", "153640.137000", "153640.139000", "153640.142000", "153640.144000", "153640.147000", "153640.149000", "153640.152000", "153640.154000", "153640.157000", "153640.159000", "153640.162000", "153640.165000", "153640.167000", "153640.170000", "153640.172000", "153640.175000", "153640.178000", "153640.180000", "153640.183000", "153640.186000", "153640.188000", "153640.191000", "153640.193000", "153640.196000", "153640.198000", "153640.201000", "153640.206000", "153640.209000", "153640.211000", "153640.214000", "153640.217000", "153640.219000", "153640.222000", "153720.128000", "153720.130000", "153720.133000", "153720.135000", "153720.138000", "153720.153000", "153720.156000", "153720.158000", "153720.161000", "153720.163000", "153720.166000", "153720.169000", "153720.171000", "153720.174000", "153720.176000", "153720.179000", "153720.182000", "153720.184000", "153720.187000", "153720.189000", "153720.192000", "153720.194000", "153720.197000", "153720.200000", "153720.202000", "153720.205000", "153720.208000", "153720.210000", "153720.213000", "153720.215000", "153720.218000", "153720.221000", "153720.223000", "153740.126000", "153740.129000", "153740.132000", "153740.134000", "153740.137000", "153740.139000", "153740.142000", "153740.144000", "153740.147000", "153740.149000", "153740.152000", "153740.155000", "153740.157000", "153740.160000", "153740.162000", "153740.165000", "153740.168000", "153820.126000", "153820.129000", "153820.132000", "153820.134000", "153820.137000", "153820.146000", "153820.149000", "153820.151000", "153820.154000", "153820.156000", "153820.159000", "153820.162000", "153820.164000", "153820.176000", "153820.179000", "153820.181000", "153820.184000", "153820.187000", "153820.189000", "153820.192000", "153820.195000", "153820.197000", "153820.200000", "153820.203000", "153820.205000", "153820.208000", "153820.211000", "153820.214000", "153820.216000", "153820.219000", "153820.221000", "153820.224000", "153820.227000", "153900.126000", "153900.129000", "153900.132000", "153900.135000", "153900.137000", "153900.140000", "153900.142000", "153900.145000", "153900.148000", "153900.150000", "153900.153000", "153900.155000", "153900.158000", "153900.161000", "153900.163000", "153900.166000", "153900.168000", "153900.171000", "153900.173000", "153900.176000", "153900.179000", "153900.181000", "153900.184000", "153900.186000", "153900.189000", "153900.191000", "153900.205000", "153900.208000", "153900.211000", "153900.213000", "153900.216000", "153900.218000", "153900.221000", "153940.127000", "153940.130000", "153940.133000", "153940.135000", "153940.138000", "153940.141000", "153940.143000", "153940.146000", "153940.148000", "153940.151000", "153940.153000", "153940.156000", "153940.158000", "153940.161000", "153940.164000", "153940.166000", "153940.169000", "153940.172000", "153940.174000", "153940.177000", "153940.179000", "153940.182000", "153940.184000", "153940.187000", "153940.190000", "153940.192000", "153940.195000", "153940.197000", "153940.200000", "153940.203000", "153940.205000", "153940.208000", "153940.210000", "153940.213000", "154020.127000", "154020.129000", "154020.132000", "154020.135000", "154020.137000", "154020.140000", "154020.143000", "154020.145000", "154020.148000", "154020.150000", "154020.153000", "154020.156000", "154020.158000", "154020.161000", "154020.164000", "154020.166000", "154020.169000", "154020.171000", "154020.174000", "154020.176000", "154020.179000", "154020.182000", "154020.184000", "154020.187000", "154020.189000", "154020.192000", "154020.195000", "154020.197000", "154020.200000", "154020.202000", "154020.205000", "154020.208000", "154020.211000", "154100.127000", "154100.129000", "154100.132000", "154100.135000", "154100.137000", "154100.140000", "154100.143000", "154100.145000", "154100.148000", "154100.150000", "154100.153000", "154100.156000", "154100.158000", "154100.161000", "154100.163000", "154100.166000", "154100.168000", "154100.171000", "154100.184000", "154100.186000", "154100.189000", "154100.191000", "154100.194000", "154100.197000", "154100.199000", "154100.202000", "154100.204000", "154100.207000", "154100.218000", "154100.221000", "154100.224000", "154100.226000", "154100.229000", "154140.127000", "154140.130000", "154140.133000", "154140.135000", "154140.138000", "154140.141000", "154140.143000", "154140.146000", "154140.148000", "154140.151000", "154140.154000", "154140.156000", "154140.159000", "154140.162000", "154140.164000", "154140.167000", "154140.169000", "154140.172000", "154140.175000", "154140.177000", "154140.180000", "154140.182000", "154140.185000", "154140.188000", "154140.190000", "154140.193000", "154140.196000", "154140.198000", "154140.201000", "154140.203000", "154140.206000", "154140.209000", "154140.211000", "154140.214000", "154220.127000", "154220.130000", "154220.132000", "154220.135000", "154220.137000", "154220.140000", "154220.143000", "154220.145000", "154220.148000", "154220.151000", "154220.153000", "154220.156000", "154220.158000", "154220.161000", "154220.163000", "154220.166000", "154220.169000", "154220.171000", "154220.174000", "154220.176000", "154220.179000", "154220.182000", "154220.184000", "154220.187000", "154220.189000", "154220.192000", "154220.201000", "154220.204000", "154220.207000", "154220.210000", "154220.212000", "154220.215000", "154220.218000", "154300.127000", "154300.130000", "154300.132000", "154300.135000", "154300.137000", "154300.140000", "154300.142000", "154300.145000", "154300.148000", "154300.150000", "154300.153000", "154300.156000", "154300.158000", "154300.161000", "154300.163000", "154300.166000", "154300.169000", "154300.171000", "154300.174000", "154300.176000", "154300.179000", "154300.182000", "154300.200000", "154300.202000", "154300.225000", "154300.228000", "154300.230000", "154300.233000", "154300.235000", "154300.238000", "154300.241000", "154300.243000", "154300.246000", "154340.127000", "154340.129000", "154340.132000", "154340.135000", "154340.138000", "154340.140000", "154340.143000", "154340.145000", "154340.148000", "154340.150000", "154340.153000", "154340.156000", "154340.158000", "154340.161000", "154340.163000", "154340.166000", "154340.168000", "154340.171000", "154340.173000", "154340.176000", "154340.179000", "154340.181000", "154340.184000", "154340.186000", "154340.189000", "154340.192000", "154340.194000", "154340.197000", "154340.199000", "154340.202000", "154340.205000", "154340.207000", "154340.210000", "154340.213000", "154348.391000", "154348.394000", "154348.397000", "154348.399000", "154348.402000", "154348.404000", "154348.407000"],
      "InstanceNumber": [1, 2, 3, 4, 5, 6, 7, 8, 9, 10, 11, 12, 13, 14, 15, 16, 17, 18, 19, 20, 21, 22, 23, 24, 25, 26, 27, 28, 29, 30, 31, 32, 33, 34, 35, 36, 37, 38, 39, 40, 41, 42, 43, 44, 45, 46, 47, 48, 49, 50, 51, 52, 53, 54, 55, 56, 57, 58, 59, 60, 61, 62, 63, 64, 65, 66, 67, 68, 69, 70, 71, 72, 73, 74, 75, 76, 77, 78, 79, 80, 81, 82, 83, 84, 85, 86, 87, 88, 89, 90, 91, 92, 93, 94, 95, 96, 97, 98, 99, 100, 101, 102, 103, 104, 105, 106, 107, 108, 109, 110, 111, 112, 113, 114, 115, 116, 117, 118, 119, 120, 121, 122, 123, 124, 125, 126, 127, 128, 129, 130, 131, 132, 133, 134, 135, 136, 137, 138, 139, 140, 141, 142, 143, 144, 145, 146, 147, 148, 149, 150, 151, 152, 153, 154, 155, 156, 157, 158, 159, 160, 161, 162, 163, 164, 165, 166, 167, 168, 169, 170, 171, 172, 173, 174, 175, 176, 177, 178, 179, 180, 181, 182, 183, 184, 185, 186, 187, 188, 189, 190, 191, 192, 193, 194, 195, 196, 197, 198, 199, 200, 201, 202, 203, 204, 205, 206, 207, 208, 209, 210, 211, 212, 213, 214, 215, 216, 217, 218, 219, 220, 221, 222, 223, 224, 225, 226, 227, 228, 229, 230, 231, 232, 233, 234, 235, 236, 237, 238, 239, 240, 241, 242, 243, 244, 245, 246, 247, 248, 249, 250, 251, 252, 253, 254, 255, 256, 257, 258, 259, 260, 261, 262, 263, 264, 265, 266, 267, 268, 269, 270, 271, 272, 273, 274, 275, 276, 277, 278, 279, 280, 281, 282, 283, 284, 285, 286, 287, 288, 289, 290, 291, 292, 293, 294, 295, 296, 297, 298, 299, 300, 301, 302, 303, 304, 305, 306, 307, 308, 309, 310, 311, 312, 313, 314, 315, 316, 317, 318, 319, 320, 321, 322, 323, 324, 325, 326, 327, 328, 329, 330, 331, 332, 333, 334, 335, 336, 337, 338, 339, 340, 341, 342, 343, 344, 345, 346, 347, 348, 349, 350, 351, 352, 353, 354, 355, 356, 357, 358, 359, 360, 361, 362, 363, 364, 365, 366, 367, 368, 369, 370, 371, 372, 373, 374, 375, 376, 377, 378, 379, 380, 381, 382, 383, 384, 385, 386, 387, 388, 389, 390, 391, 392],
