{
  "AcquisitionMatrixPE": 88,
  "AcquisitionNumber": 1,
  "AcquisitionTime": "09:40:27.587500",
  "BandwidthPerPixelPhaseEncode": 19.592,
  "BaseResolution": 88,
  "BodyPartExamined": "BRAIN",
  "ConsistencyInfo": "N4_VE11C_LATEST_20160120",
  "ConversionSoftware": "dcm2niix",
  "ConversionSoftwareVersion": "v1.0.20190902",
  "DerivedVendorReportedEchoSpacing": 0.000580014,
  "DeviceSerialNumber": "67050",
  "DwellTime": 2.6e-06,
  "EchoTime": 0.033,
  "EchoTrainLength": 88,
  "EffectiveEchoSpacing": 0.000580014,
  "FlipAngle": 62,
  "ImageOrientationPatientDICOM": [0.990156, 0.0584972, 0.127156, -0.029906, 0.975916, -0.216086],
  "ImageType": [
    "ORIGINAL",
    "PRIMARY",
    "M",
    "ND",
    "MOSAIC"
],
  "ImagingFrequency": 123.251,
  "InPlanePhaseEncodingDirectionDICOM": "COL",
  "InstitutionAddress": "Olive_Street_60_Providence_RI_US_02912",
  "InstitutionName": "BROWN_UNIVERSITY_MRF",
  "InstitutionalDepartmentName": "Department",
  "MRAcquisitionType": "2D",
  "MagneticFieldStrength": 3,
  "Manufacturer": "Siemens",
  "ManufacturersModelName": "Prisma_fit",
  "Modality": "MR",
  "MultibandAccelerationFactor": 4,
  "PartialFourier": 1,
  "PatientPosition": "HFS",
  "PercentPhaseFOV": 100,
  "PhaseEncodingDirection": "j-",
  "PhaseEncodingSteps": 88,
  "PhaseResolution": 1,
  "PixelBandwidth": 2185,
  "ProcedureStepDescription": "ASHENHAV_1222",
  "ProtocolName": "func-bold_task-RDMmotion_run-03",
  "PulseSequenceDetails": "%SiemensSeq%_ep2d_bold",
  "ReceiveCoilActiveElements": "HC1-7;NC1",
  "ReceiveCoilName": "HeadNeck_64",
  "ReconMatrixPE": 88,
  "RefLinesPE": 8,
  "RepetitionTime": 1.2,
  "SAR": 0.0500856,
  "ScanOptions": "FS",
  "ScanningSequence": "EP",
  "SequenceName": "_epfid2d1_88",
  "SequenceVariant": "SK",
  "SeriesDescription": "func-bold_task-RDMmotion_run-03",
  "SeriesNumber": 11,
  "ShimSetting": [1784, -9082, 4397, 354, -52, -216, -82, 34],
  "SliceThickness": 2.4,
  "SliceTiming": [0.5525, 0, 0.63, 0.08, 0.7075, 0.1575, 0.7875, 0.2375, 0.865, 0.315, 0.945, 0.395, 1.0225, 0.4725, 1.1025, 0.5525, 0, 0.63, 0.08, 0.7075, 0.1575, 0.7875, 0.2375, 0.865, 0.315, 0.945, 0.395, 1.0225, 0.4725, 1.1025, 0.5525, 0, 0.63, 0.08, 0.7075, 0.1575, 0.7875, 0.2375, 0.865, 0.315, 0.945, 0.395, 1.0225, 0.4725, 1.1025, 0.5525, 0, 0.63, 0.08, 0.7075, 0.1575, 0.7875, 0.2375, 0.865, 0.315, 0.945, 0.395, 1.0225, 0.4725, 1.1025],
  "SoftwareVersions": "syngo_MR_E11",
  "SpacingBetweenSlices": 2.4,
  "StationName": "AWP67050",
  "TaskName": "RDMmotion",
  "TotalReadoutTime": 0.0504612,
  "TxRefAmp": 237.486,
  "dcmmeta_affine": [
    [-2.374124526977539, -0.07170654833316803, 0.3281621038913727, 103.75586700439453],
    [-0.14026035368442535, 2.3399808406829834, -0.5043755769729614, -73.49224853515625],
    [0.3048858344554901, 0.5181160569190979, 2.323341131210327, -101.17082214355469],
    [0.0, 0.0, 0.0, 1.0]
],
  "dcmmeta_reorient_transform": [
    [0.0, -1.0, 0.0, 87.0],
    [1.0, 0.0, 0.0, 0.0],
    [0.0, 0.0, 1.0, 0.0],
    [0.0, 0.0, 0.0, 1.0]
],
  "dcmmeta_shape": [88, 88, 60, 125],
  "dcmmeta_slice_dim": 2,
  "dcmmeta_version": 0.6,
  "global": {
    "const": {
      "AcquisitionMatrix": [88, 0, 0, 88],
      "AngioFlag": "N",
      "BitsAllocated": 16,
      "BitsStored": 12,
      "BodyPartExamined": "BRAIN",
      "Columns": 704,
      "DeidentificationMethodCodeSequence": [
        {
          "CodeMeaning": "XNAT DicomEdit 6 Script",
          "CodeValue": "3",
          "CodingSchemeDesignator": "XNAT",
          "CodingSchemeVersion": "1.0"}
],
      "EchoNumbers": 1,
      "EchoTime": 33.0,
      "EchoTrainLength": 88,
      "FlipAngle": 62.0,
      "HighBit": 11,
      "ImageOrientationPatient": [0.99015624180712, 0.05849721020437, 0.12715617644734, -0.0299060486995, 0.9759161475964, -0.216086327915],
      "ImagePositionPatient": [-806.66215490714, -894.00033713072, 9.5801947432128],
      "ImageType": [
        "ORIGINAL",
        "PRIMARY",
        "M",
        "ND",
        "MOSAIC"
],
      "ImagedNucleus": "1H",
      "ImagingFrequency": 123.250675,
      "InPlanePhaseEncodingDirection": "COL",
      "MRAcquisitionType": "2D",
      "MagneticFieldStrength": 3.0,
      "Manufacturer": "SIEMENS",
      "ManufacturerModelName": "Prisma_fit",
      "Modality": "MR",
      "NumberOfAverages": 1.0,
      "NumberOfPhaseEncodingSteps": 88,
      "PercentPhaseFieldOfView": 100.0,
      "PercentSampling": 100.0,
      "PerformedProcedureStepStartTime": "084626.598000",
      "PhotometricInterpretation": "MONOCHROME2",
      "PixelBandwidth": 2185.0,
      "PixelRepresentation": 0,
      "PixelSpacing": [2.3977272510529, 2.3977272510529],
      "ProtocolName": "func-bold_task-RDMmotion_run-03",
      "RepetitionTime": 1200.0,
      "Rows": 704,
      "SAR": 0.05008557343571,
      "SamplesPerPixel": 1,
      "ScanOptions": "FS",
      "ScanningSequence": "EP",
      "SequenceName": "*epfid2d1_88",
      "SequenceVariant": "SK",
      "SeriesDescription": "func-bold_task-RDMmotion_run-03",
      "SeriesNumber": 11,
      "SeriesTime": "094057.766000",
      "SliceLocation": -68.307462997709,
      "SliceThickness": 2.4000000953674,
      "SmallestImagePixelValue": 0,
      "SoftwareVersions": "syngo MR E11",
      "SpacingBetweenSlices": 2.3999999131864,
      "SpecificCharacterSet": "ISO_IR 100",
      "StudyID": "1",
      "StudyTime": "084626.370000",
      "TransmitCoilName": "Body",
      "VariableFlipAngleFlag": "N",
      "WindowCenterWidthExplanation": "Algo1",
      "dBdt": 0.0},
    "slices": {}
  },
  "time": {
    "samples": {
      "AcquisitionNumber": [1, 2, 3, 4, 5, 6, 7, 8, 9, 10, 11, 12, 13, 14, 15, 16, 17, 18, 19, 20, 21, 22, 23, 24, 25, 26, 27, 28, 29, 30, 31, 32, 33, 34, 35, 36, 37, 38, 39, 40, 41, 42, 43, 44, 45, 46, 47, 48, 49, 50, 51, 52, 53, 54, 55, 56, 57, 58, 59, 60, 61, 62, 63, 64, 65, 66, 67, 68, 69, 70, 71, 72, 73, 74, 75, 76, 77, 78, 79, 80, 81, 82, 83, 84, 85, 86, 87, 88, 89, 90, 91, 92, 93, 94, 95, 96, 97, 98, 99, 100, 101, 102, 103, 104, 105, 106, 107, 108, 109, 110, 111, 112, 113, 114, 115, 116, 117, 118, 119, 120, 121, 122, 123, 124, 125],
      "AcquisitionTime": ["094027.587500", "094028.787500", "094029.987500", "094031.187500", "094032.387500", "094033.587500", "094034.787500", "094035.987500", "094037.187500", "094038.387500", "094039.587500", "094040.787500", "094041.987500", "094043.187500", "094044.387500", "094045.587500", "094046.787500", "094047.987500", "094049.187500", "094050.387500", "094051.587500", "094052.787500", "094053.987500", "094055.187500", "094056.387500", "094057.587500", "094058.787500", "094059.987500", "094101.187500", "094102.387500", "094103.587500", "094104.787500", "094105.987500", "094107.187500", "094108.387500", "094109.587500", "094110.787500", "094111.987500", "094113.187500", "094114.387500", "094115.587500", "094116.787500", "094117.987500", "094119.187500", "094120.387500", "094121.587500", "094122.787500", "094123.987500", "094125.187500", "094126.387500", "094127.587500", "094128.787500", "094129.987500", "094131.187500", "094132.387500", "094133.587500", "094134.787500", "094135.987500", "094137.187500", "094138.387500", "094139.587500", "094140.787500", "094141.987500", "094143.187500", "094144.387500", "094145.587500", "094146.787500", "094147.987500", "094149.187500", "094150.387500", "094151.587500", "094152.787500", "094153.987500", "094155.187500", "094156.387500", "094157.587500", "094158.787500", "094159.987500", "094201.187500", "094202.387500", "094203.587500", "094204.787500", "094205.987500", "094207.187500", "094208.387500", "094209.587500", "094210.787500", "094211.987500", "094213.187500", "094214.387500", "094215.587500", "094216.787500", "094217.987500", "094219.187500", "094220.387500", "094221.587500", "094222.787500", "094223.987500", "094225.187500", "094226.387500", "094227.587500", "094228.787500", "094229.987500", "094231.187500", "094232.387500", "094233.587500", "094234.787500", "094235.987500", "094237.187500", "094238.387500", "094239.587500", "094240.787500", "094241.987500", "094243.187500", "094244.387500", "094245.587500", "094246.787500", "094247.987500", "094249.187500", "094250.387500", "094251.587500", "094252.787500", "094253.987500", "094255.187500", "094256.387500"],
      "ContentTime": ["094057.769000", "094057.772000", "094057.775000", "094057.778000", "094057.780000", "094057.783000", "094057.785000", "094057.796000", "094057.799000", "094057.802000", "094057.804000", "094057.808000", "094057.811000", "094057.823000", "094057.825000", "094057.828000", "094057.831000", "094057.833000", "094057.836000", "094057.838000", "094057.841000", "094057.843000", "094057.846000", "094057.848000", "094057.851000", "094137.764000", "094137.767000", "094137.770000", "094137.773000", "094137.775000", "094137.778000", "094137.780000", "094137.783000", "094137.786000", "094137.788000", "094137.791000", "094137.793000", "094137.796000", "094137.799000", "094137.801000", "094137.804000", "094137.806000", "094137.809000", "094137.811000", "094137.814000", "094137.817000", "094137.819000", "094137.822000", "094137.829000", "094137.831000", "094137.834000", "094137.836000", "094137.839000", "094137.841000", "094137.844000", "094137.847000", "094137.849000", "094137.852000", "094217.765000", "094217.767000", "094217.770000", "094217.773000", "094217.776000", "094217.778000", "094217.781000", "094217.783000", "094217.786000", "094217.788000", "094217.791000", "094217.794000", "094217.796000", "094217.799000", "094217.801000", "094217.804000", "094217.807000", "094217.809000", "094217.812000", "094217.814000", "094217.817000", "094217.820000", "094217.822000", "094217.825000", "094217.827000", "094217.830000", "094217.832000", "094217.835000", "094217.838000", "094217.840000", "094217.843000", "094217.846000", "094217.848000", "094257.716000", "094257.718000", "094257.721000", "094257.724000", "094257.726000", "094257.729000", "094257.732000", "094257.734000", "094257.737000", "094257.739000", "094257.742000", "094257.745000", "094257.747000", "094257.750000", "094257.753000", "094257.755000", "094257.758000", "094257.760000", "094257.763000", "094257.766000", "094257.768000", "094257.771000", "094257.773000", "094257.776000", "094257.779000", "094257.787000", "094257.808000", "094257.811000", "094257.814000", "094257.816000", "094257.824000", "094257.826000", "094257.829000", "094257.832000"],
      "InstanceCreationTime": ["094057.769000", "094057.772000", "094057.775000", "094057.778000", "094057.780000", "094057.783000", "094057.785000", "094057.796000", "094057.799000", "094057.802000", "094057.804000", "094057.808000", "094057.811000", "094057.823000", "094057.825000", "094057.828000", "094057.831000", "094057.833000", "094057.836000", "094057.838000", "094057.841000", "094057.843000", "094057.846000", "094057.848000", "094057.851000", "094137.764000", "094137.767000", "094137.770000", "094137.773000", "094137.775000", "094137.778000", "094137.780000", "094137.783000", "094137.786000", "094137.788000", "094137.791000", "094137.793000", "094137.796000", "094137.799000", "094137.801000", "094137.804000", "094137.806000", "094137.809000", "094137.811000", "094137.814000", "094137.817000", "094137.819000", "094137.822000", "094137.829000", "094137.831000", "094137.834000", "094137.836000", "094137.839000", "094137.841000", "094137.844000", "094137.847000", "094137.849000", "094137.852000", "094217.765000", "094217.767000", "094217.770000", "094217.773000", "094217.776000", "094217.778000", "094217.781000", "094217.783000", "094217.786000", "094217.788000", "094217.791000", "094217.794000", "094217.796000", "094217.799000", "094217.801000", "094217.804000", "094217.807000", "094217.809000", "094217.812000", "094217.814000", "094217.817000", "094217.820000", "094217.822000", "094217.825000", "094217.827000", "094217.830000", "094217.832000", "094217.835000", "094217.838000", "094217.840000", "094217.843000", "094217.846000", "094217.848000", "094257.716000", "094257.718000", "094257.721000", "094257.724000", "094257.726000", "094257.729000", "094257.732000", "094257.734000", "094257.737000", "094257.739000", "094257.742000", "094257.745000", "094257.747000", "094257.750000", "094257.753000", "094257.755000", "094257.758000", "094257.760000", "094257.763000", "094257.766000", "094257.768000", "094257.771000", "094257.773000", "094257.776000", "094257.779000", "094257.787000", "094257.808000", "094257.811000", "094257.814000", "094257.816000", "094257.824000", "094257.826000", "094257.829000", "094257.832000"],
      "InstanceNumber": [1, 2, 3, 4, 5, 6, 7, 8, 9, 10, 11, 12, 13, 14, 15, 16, 17, 18, 19, 20, 21, 22, 23, 24, 25, 26, 27, 28, 29, 30, 31, 32, 33, 34, 35, 36, 37, 38, 39, 40, 41, 42, 43, 44, 45, 46, 47, 48, 49, 50, 51, 52, 53, 54, 55, 56, 57, 58, 59, 60, 61, 62, 63, 64, 65, 66, 67, 68, 69, 70, 71, 72, 73, 74, 75, 76, 77, 78, 79, 80, 81, 82, 83, 84, 85, 86, 87, 88, 89, 90, 91, 92, 93, 94, 95, 96, 97, 98, 99, 100, 101, 102, 103, 104, 105, 106, 107, 108, 109, 110, 111, 112, 113, 114, 115, 116, 117, 118, 119, 120, 121, 122, 123, 124, 125],
      "LargestImagePixelValue": [1926, 1878, 1865, 1830, 1843, 1828, 1822, 1820, 1851, 1834, 1802, 1822, 1820, 1759, 1729, 1709, 1740, 1724, 1743, 1727, 1734, 1741, 1718, 1753, 1738, 1764, 1749, 1771, 1742, 1779, 1766, 1741, 1759, 1754, 1754, 1757, 1755, 1750, 1740, 1744, 1746, 1732, 1764, 1731, 1763, 1754, 1741, 1755, 1774, 1749, 1746, 1725, 1746, 1754, 1738, 1751, 1760, 1748, 1760, 1759, 1758, 1759, 1763, 1760, 1768, 1776, 1755, 1773, 1775, 1744, 1752, 1751, 1731, 1749, 1749, 1774, 1780, 1778, 1762, 1719, 1758, 1777, 1764, 1779, 1763, 1763, 1756, 1755, 1769, 1774, 1761, 1803, 1817, 1799, 1815, 1801, 1764, 1793, 1803, 1785, 1794, 1788, 1806, 1792, 1751, 1789, 1762, 1784, 1802, 1786, 1786, 1789, 1772, 1812, 1808, 1780, 1800, 1781, 1799, 1801, 1763, 1787, 1815, 1790, 1802],
      "WindowCenter": [581.0, 579.0, 577.0, 577.0, 577.0, 577.0, 578.0, 577.0, 578.0, 577.0, 576.0, 575.0, 572.0, 574.0, 573.0, 573.0, 575.0, 574.0, 575.0, 574.0, 574.0, 574.0, 574.0, 574.0, 574.0, 575.0, 575.0, 575.0, 574.0, 573.0, 572.0, 572.0, 571.0, 572.0, 572.0, 573.0, 573.0, 574.0, 574.0, 574.0, 573.0, 573.0, 573.0, 572.0, 572.0, 572.0, 572.0, 573.0, 574.0, 574.0, 574.0, 574.0, 574.0, 574.0, 574.0, 574.0, 574.0, 574.0, 573.0, 573.0, 573.0, 574.0, 575.0, 575.0, 575.0, 575.0, 574.0, 573.0, 573.0, 572.0, 572.0, 571.0, 571.0, 571.0, 571.0, 572.0, 572.0, 572.0, 572.0, 572.0, 572.0, 572.0, 572.0, 572.0, 572.0, 573.0, 572.0, 572.0, 571.0, 572.0, 571.0, 572.0, 573.0, 574.0, 574.0, 573.0, 572.0, 571.0, 571.0, 570.0, 571.0, 571.0, 572.0, 573.0, 572.0, 573.0, 574.0, 574.0, 575.0, 574.0, 574.0, 573.0, 573.0, 573.0, 573.0, 572.0, 572.0, 572.0, 572.0, 571.0, 571.0, 571.0, 572.0, 573.0, 573.0],
      "WindowWidth": [1234.0, 1228.0, 1226.0, 1226.0, 1226.0, 1227.0, 1227.0, 1226.0, 1227.0, 1225.0, 1223.0, 1222.0, 1214.0, 1221.0, 1219.0, 1219.0, 1222.0, 1221.0, 1222.0, 1221.0, 1221.0, 1220.0, 1219.0, 1219.0, 1219.0, 1222.0, 1222.0, 1221.0, 1219.0, 1218.0, 1216.0, 1215.0, 1214.0, 1215.0, 1215.0, 1218.0, 1219.0, 1220.0, 1219.0, 1219.0, 1219.0, 1219.0, 1218.0, 1216.0, 1216.0, 1216.0, 1217.0, 1219.0, 1221.0, 1220.0, 1220.0, 1221.0, 1220.0, 1220.0, 1219.0, 1220.0, 1220.0, 1219.0, 1218.0, 1219.0, 1219.0, 1220.0, 1222.0, 1223.0, 1223.0, 1221.0, 1219.0, 1218.0, 1217.0, 1215.0, 1215.0, 1214.0, 1213.0, 1214.0, 1214.0, 1216.0, 1216.0, 1216.0, 1216.0, 1215.0, 1216.0, 1216.0, 1216.0, 1216.0, 1217.0, 1217.0, 1216.0, 1215.0, 1214.0, 1215.0, 1214.0, 1214.0, 1216.0, 1219.0, 1220.0, 1217.0, 1216.0, 1214.0, 1214.0, 1212.0, 1213.0, 1213.0, 1214.0, 1216.0, 1217.0, 1218.0, 1220.0, 1221.0, 1221.0, 1220.0, 1219.0, 1217.0, 1217.0, 1217.0, 1217.0, 1216.0, 1216.0, 1215.0, 1215.0, 1214.0, 1213.0, 1214.0, 1216.0, 1217.0, 1218.0]
    },
    "slices": {}
  }
}