{
  "AcquisitionMatrixPE": 88,
  "AcquisitionNumber": 1,
  "AcquisitionTime": "09:17:0.407500",
  "BandwidthPerPixelPhaseEncode": 19.592,
  "BaseResolution": 88,
  "BodyPartExamined": "BRAIN",
  "ConsistencyInfo": "N4_VE11C_LATEST_20160120",
  "ConversionSoftware": "dcm2niix",
  "ConversionSoftwareVersion": "v1.0.20190902",
  "DerivedVendorReportedEchoSpacing": 0.000580014,
  "DeviceSerialNumber": "67050",
  "DwellTime": 2.6e-06,
  "EchoTime": 0.033,
  "EchoTrainLength": 88,
  "EffectiveEchoSpacing": 0.000580014,
  "FlipAngle": 62,
  "ImageOrientationPatientDICOM": [0.990156, 0.0584972, 0.127156, -0.029906, 0.975916, -0.216086],
  "ImageType": [
    "ORIGINAL",
    "PRIMARY",
    "M",
    "ND",
    "MOSAIC"
],
  "ImagingFrequency": 123.251,
  "InPlanePhaseEncodingDirectionDICOM": "COL",
  "InstitutionAddress": "Olive_Street_60_Providence_RI_US_02912",
  "InstitutionName": "BROWN_UNIVERSITY_MRF",
  "InstitutionalDepartmentName": "Department",
  "MRAcquisitionType": "2D",
  "MagneticFieldStrength": 3,
  "Manufacturer": "Siemens",
  "ManufacturersModelName": "Prisma_fit",
  "Modality": "MR",
  "MultibandAccelerationFactor": 4,
  "PartialFourier": 1,
  "PatientPosition": "HFS",
  "PercentPhaseFOV": 100,
  "PhaseEncodingDirection": "j-",
  "PhaseEncodingSteps": 88,
  "PhaseResolution": 1,
  "PixelBandwidth": 2185,
  "ProcedureStepDescription": "ASHENHAV_1222",
  "ProtocolName": "func-bold_task-RDMmotion_run-01",
  "PulseSequenceDetails": "%SiemensSeq%_ep2d_bold",
  "ReceiveCoilActiveElements": "HC1-7;NC1",
  "ReceiveCoilName": "HeadNeck_64",
  "ReconMatrixPE": 88,
  "RefLinesPE": 8,
  "RepetitionTime": 1.2,
  "SAR": 0.0500856,
  "ScanOptions": "FS",
  "ScanningSequence": "EP",
  "SequenceName": "_epfid2d1_88",
  "SequenceVariant": "SK",
  "SeriesDescription": "func-bold_task-RDMmotion_run-01",
  "SeriesNumber": 7,
  "ShimSetting": [1784, -9082, 4397, 354, -52, -216, -82, 34],
  "SliceThickness": 2.4,
  "SliceTiming": [0.55, 0, 0.6275, 0.0775, 0.7075, 0.155, 0.785, 0.235, 0.865, 0.3125, 0.9425, 0.3925, 1.0225, 0.47, 1.1, 0.55, 0, 0.6275, 0.0775, 0.7075, 0.155, 0.785, 0.235, 0.865, 0.3125, 0.9425, 0.3925, 1.0225, 0.47, 1.1, 0.55, 0, 0.6275, 0.0775, 0.7075, 0.155, 0.785, 0.235, 0.865, 0.3125, 0.9425, 0.3925, 1.0225, 0.47, 1.1, 0.55, 0, 0.6275, 0.0775, 0.7075, 0.155, 0.785, 0.235, 0.865, 0.3125, 0.9425, 0.3925, 1.0225, 0.47, 1.1],
  "SoftwareVersions": "syngo_MR_E11",
  "SpacingBetweenSlices": 2.4,
  "StationName": "AWP67050",
  "TaskName": "RDMmotion",
  "TotalReadoutTime": 0.0504612,
  "TxRefAmp": 237.486,
  "dcmmeta_affine": [
    [-2.374124526977539, -0.07170654833316803, 0.3281621038913727, 103.75586700439453],
    [-0.14026035368442535, 2.3399808406829834, -0.5043755769729614, -73.49224853515625],
    [0.3048858344554901, 0.5181160569190979, 2.323341131210327, -101.17082214355469],
    [0.0, 0.0, 0.0, 1.0]
],
  "dcmmeta_reorient_transform": [
    [0.0, -1.0, 0.0, 87.0],
    [1.0, 0.0, 0.0, 0.0],
    [0.0, 0.0, 1.0, 0.0],
    [0.0, 0.0, 0.0, 1.0]
],
  "dcmmeta_shape": [88, 88, 60, 125],
  "dcmmeta_slice_dim": 2,
  "dcmmeta_version": 0.6,
  "global": {
    "const": {
      "AcquisitionMatrix": [88, 0, 0, 88],
      "AngioFlag": "N",
      "BitsAllocated": 16,
      "BitsStored": 12,
      "BodyPartExamined": "BRAIN",
      "Columns": 704,
      "DeidentificationMethodCodeSequence": [
        {
          "CodeMeaning": "XNAT DicomEdit 6 Script",
          "CodeValue": "3",
          "CodingSchemeDesignator": "XNAT",
          "CodingSchemeVersion": "1.0"}
],
      "EchoNumbers": 1,
      "EchoTime": 33.0,
      "EchoTrainLength": 88,
      "FlipAngle": 62.0,
      "HighBit": 11,
      "ImageOrientationPatient": [0.99015624180712, 0.05849721020437, 0.12715617644734, -0.0299060486995, 0.9759161475964, -0.216086327915],
      "ImagePositionPatient": [-806.66215490714, -894.00033713072, 9.5801947432128],
      "ImageType": [
        "ORIGINAL",
        "PRIMARY",
        "M",
        "ND",
        "MOSAIC"
],
      "ImagedNucleus": "1H",
      "ImagingFrequency": 123.25066,
      "InPlanePhaseEncodingDirection": "COL",
      "MRAcquisitionType": "2D",
      "MagneticFieldStrength": 3.0,
      "Manufacturer": "SIEMENS",
      "ManufacturerModelName": "Prisma_fit",
      "Modality": "MR",
      "NumberOfAverages": 1.0,
      "NumberOfPhaseEncodingSteps": 88,
      "PercentPhaseFieldOfView": 100.0,
      "PercentSampling": 100.0,
      "PerformedProcedureStepStartTime": "084626.598000",
      "PhotometricInterpretation": "MONOCHROME2",
      "PixelBandwidth": 2185.0,
      "PixelRepresentation": 0,
      "PixelSpacing": [2.3977272510529, 2.3977272510529],
      "ProtocolName": "func-bold_task-RDMmotion_run-01",
      "RepetitionTime": 1200.0,
      "Rows": 704,
      "SAR": 0.05008557343571,
      "SamplesPerPixel": 1,
      "ScanOptions": "FS",
      "ScanningSequence": "EP",
      "SequenceName": "*epfid2d1_88",
      "SequenceVariant": "SK",
      "SeriesDescription": "func-bold_task-RDMmotion_run-01",
      "SeriesNumber": 7,
      "SeriesTime": "091724.011000",
      "SliceLocation": -68.307462997709,
      "SliceThickness": 2.4000000953674,
      "SmallestImagePixelValue": 0,
      "SoftwareVersions": "syngo MR E11",
      "SpacingBetweenSlices": 2.3999999131864,
      "SpecificCharacterSet": "ISO_IR 100",
      "StudyID": "1",
      "StudyTime": "084626.370000",
      "TransmitCoilName": "Body",
      "VariableFlipAngleFlag": "N",
      "WindowCenterWidthExplanation": "Algo1",
      "dBdt": 0.0},
    "slices": {}
  },
  "time": {
    "samples": {
      "AcquisitionNumber": [1, 2, 3, 4, 5, 6, 7, 8, 9, 10, 11, 12, 13, 14, 15, 16, 17, 18, 19, 20, 21, 22, 23, 24, 25, 26, 27, 28, 29, 30, 31, 32, 33, 34, 35, 36, 37, 38, 39, 40, 41, 42, 43, 44, 45, 46, 47, 48, 49, 50, 51, 52, 53, 54, 55, 56, 57, 58, 59, 60, 61, 62, 63, 64, 65, 66, 67, 68, 69, 70, 71, 72, 73, 74, 75, 76, 77, 78, 79, 80, 81, 82, 83, 84, 85, 86, 87, 88, 89, 90, 91, 92, 93, 94, 95, 96, 97, 98, 99, 100, 101, 102, 103, 104, 105, 106, 107, 108, 109, 110, 111, 112, 113, 114, 115, 116, 117, 118, 119, 120, 121, 122, 123, 124, 125],
      "AcquisitionTime": ["091700.407500", "091701.607500", "091702.807500", "091704.007500", "091705.207500", "091706.407500", "091707.607500", "091708.807500", "091710.007500", "091711.207500", "091712.407500", "091713.607500", "091714.807500", "091716.007500", "091717.207500", "091718.407500", "091719.607500", "091720.807500", "091722.007500", "091723.207500", "091724.407500", "091725.607500", "091726.807500", "091728.007500", "091729.207500", "091730.407500", "091731.607500", "091732.807500", "091734.007500", "091735.207500", "091736.407500", "091737.607500", "091738.807500", "091740.007500", "091741.207500", "091742.407500", "091743.607500", "091744.807500", "091746.007500", "091747.207500", "091748.407500", "091749.607500", "091750.807500", "091752.007500", "091753.207500", "091754.407500", "091755.607500", "091756.807500", "091758.007500", "091759.207500", "091800.407500", "091801.607500", "091802.807500", "091804.007500", "091805.207500", "091806.407500", "091807.607500", "091808.807500", "091810.007500", "091811.207500", "091812.407500", "091813.607500", "091814.807500", "091816.007500", "091817.207500", "091818.407500", "091819.607500", "091820.807500", "091822.007500", "091823.207500", "091824.407500", "091825.607500", "091826.807500", "091828.007500", "091829.207500", "091830.407500", "091831.607500", "091832.807500", "091834.007500", "091835.207500", "091836.407500", "091837.607500", "091838.807500", "091840.007500", "091841.207500", "091842.407500", "091843.607500", "091844.807500", "091846.007500", "091847.207500", "091848.407500", "091849.607500", "091850.807500", "091852.007500", "091853.207500", "091854.407500", "091855.607500", "091856.807500", "091858.007500", "091859.207500", "091900.407500", "091901.607500", "091902.807500", "091904.007500", "091905.207500", "091906.407500", "091907.607500", "091908.807500", "091910.007500", "091911.207500", "091912.407500", "091913.607500", "091914.807500", "091916.007500", "091917.207500", "091918.407500", "091919.607500", "091920.807500", "091922.007500", "091923.207500", "091924.407500", "091925.607500", "091926.807500", "091928.007500", "091929.207500"],
      "ContentTime": ["091724.014000", "091724.017000", "091724.020000", "091724.022000", "091724.025000", "091724.028000", "091724.030000", "091724.033000", "091724.043000", "091724.047000", "091724.049000", "091724.052000", "091724.054000", "091724.057000", "091724.060000", "091724.062000", "091724.065000", "091724.067000", "091724.070000", "091804.008000", "091804.011000", "091804.014000", "091804.017000", "091804.027000", "091804.029000", "091804.032000", "091804.034000", "091804.037000", "091804.039000", "091804.042000", "091804.045000", "091804.047000", "091804.050000", "091804.052000", "091804.055000", "091804.058000", "091804.060000", "091804.063000", "091804.065000", "091804.068000", "091804.071000", "091804.073000", "091804.076000", "091804.078000", "091804.081000", "091804.084000", "091804.086000", "091804.089000", "091804.091000", "091804.097000", "091804.099000", "091804.102000", "091844.026000", "091844.029000", "091844.031000", "091844.034000", "091844.036000", "091844.039000", "091844.042000", "091844.044000", "091844.047000", "091844.049000", "091844.052000", "091844.055000", "091844.057000", "091844.060000", "091844.063000", "091844.065000", "091844.068000", "091844.070000", "091844.073000", "091844.075000", "091844.078000", "091844.081000", "091844.083000", "091844.086000", "091844.088000", "091844.091000", "091844.094000", "091844.096000", "091844.099000", "091844.101000", "091844.104000", "091844.107000", "091844.109000", "091924.009000", "091924.017000", "091924.019000", "091924.022000", "091924.024000", "091924.027000", "091924.030000", "091924.040000", "091924.042000", "091924.045000", "091924.048000", "091924.050000", "091924.053000", "091924.055000", "091924.058000", "091924.061000", "091924.063000", "091924.066000", "091924.069000", "091924.071000", "091924.074000", "091924.077000", "091924.079000", "091924.082000", "091924.084000", "091924.087000", "091924.089000", "091924.092000", "091924.094000", "091924.097000", "091924.100000", "091924.102000", "091924.105000", "091924.108000", "091931.211000", "091931.214000", "091931.216000", "091931.219000", "091931.222000", "091931.224000"],
      "InstanceCreationTime": ["091724.014000", "091724.017000", "091724.020000", "091724.022000", "091724.025000", "091724.028000", "091724.030000", "091724.033000", "091724.043000", "091724.047000", "091724.049000", "091724.052000", "091724.054000", "091724.057000", "091724.060000", "091724.062000", "091724.065000", "091724.067000", "091724.070000", "091804.008000", "091804.011000", "091804.014000", "091804.017000", "091804.027000", "091804.029000", "091804.032000", "091804.034000", "091804.037000", "091804.039000", "091804.042000", "091804.045000", "091804.047000", "091804.050000", "091804.052000", "091804.055000", "091804.058000", "091804.060000", "091804.063000", "091804.065000", "091804.068000", "091804.071000", "091804.073000", "091804.076000", "091804.078000", "091804.081000", "091804.084000", "091804.086000", "091804.089000", "091804.091000", "091804.097000", "091804.099000", "091804.102000", "091844.026000", "091844.029000", "091844.031000", "091844.034000", "091844.036000", "091844.039000", "091844.042000", "091844.044000", "091844.047000", "091844.049000", "091844.052000", "091844.055000", "091844.057000", "091844.060000", "091844.063000", "091844.065000", "091844.068000", "091844.070000", "091844.073000", "091844.075000", "091844.078000", "091844.081000", "091844.083000", "091844.086000", "091844.088000", "091844.091000", "091844.094000", "091844.096000", "091844.099000", "091844.101000", "091844.104000", "091844.107000", "091844.109000", "091924.009000", "091924.017000", "091924.019000", "091924.022000", "091924.024000", "091924.027000", "091924.030000", "091924.040000", "091924.042000", "091924.045000", "091924.048000", "091924.050000", "091924.053000", "091924.055000", "091924.058000", "091924.061000", "091924.063000", "091924.066000", "091924.069000", "091924.071000", "091924.074000", "091924.077000", "091924.079000", "091924.082000", "091924.084000", "091924.087000", "091924.089000", "091924.092000", "091924.094000", "091924.097000", "091924.100000", "091924.102000", "091924.105000", "091924.108000", "091931.211000", "091931.214000", "091931.216000", "091931.219000", "091931.222000", "091931.224000"],
      "InstanceNumber": [1, 2, 3, 4, 5, 6, 7, 8, 9, 10, 11, 12, 13, 14, 15, 16, 17, 18, 19, 20, 21, 22, 23, 24, 25, 26, 27, 28, 29, 30, 31, 32, 33, 34, 35, 36, 37, 38, 39, 40, 41, 42, 43, 44, 45, 46, 47, 48, 49, 50, 51, 52, 53, 54, 55, 56, 57, 58, 59, 60, 61, 62, 63, 64, 65, 66, 67, 68, 69, 70, 71, 72, 73, 74, 75, 76, 77, 78, 79, 80, 81, 82, 83, 84, 85, 86, 87, 88, 89, 90, 91, 92, 93, 94, 95, 96, 97, 98, 99, 100, 101, 102, 103, 104, 105, 106, 107, 108, 109, 110, 111, 112, 113, 114, 115, 116, 117, 118, 119, 120, 121, 122, 123, 124, 125],
      "LargestImagePixelValue": [1907, 1865, 1851, 1836, 1836, 1815, 1842, 1821, 1823, 1821, 1829, 1816, 1816, 1827, 1817, 1840, 1821, 1832, 1836, 1833, 1839, 1828, 1841, 1841, 1834, 1836, 1843, 1838, 1844, 1845, 1828, 1834, 1851, 1817, 1842, 1837, 1825, 1821, 1817, 1831, 1824, 1842, 1841, 1835, 1844, 1826, 1854, 1811, 1811, 1835, 1817, 1834, 1816, 1828, 1818, 1825, 1820, 1800, 1826, 1810, 1824, 1822, 1840, 1826, 1836, 1835, 1840, 1823, 1830, 1838, 1836, 1844, 1829, 1836, 1835, 1833, 1830, 1845, 1839, 1847, 1835, 1826, 1834, 1826, 1827, 1820, 1822, 1818, 1818, 1827, 1836, 1814, 1832, 1823, 1828, 1825, 1819, 1835, 1837, 1827, 1829, 1822, 1841, 1836, 1836, 1827, 1823, 1833, 1840, 1835, 1833, 1822, 1832, 1825, 1822, 1836, 1827, 1831, 1841, 1843, 1839, 1853, 1833, 1844, 1827],
      "WindowCenter": [585.0, 583.0, 583.0, 582.0, 581.0, 581.0, 580.0, 580.0, 580.0, 580.0, 580.0, 580.0, 580.0, 580.0, 579.0, 580.0, 580.0, 581.0, 581.0, 580.0, 580.0, 579.0, 578.0, 578.0, 577.0, 578.0, 578.0, 577.0, 577.0, 578.0, 578.0, 579.0, 580.0, 579.0, 580.0, 580.0, 579.0, 578.0, 577.0, 575.0, 575.0, 575.0, 575.0, 575.0, 575.0, 575.0, 577.0, 577.0, 577.0, 578.0, 578.0, 578.0, 578.0, 577.0, 578.0, 578.0, 578.0, 578.0, 578.0, 577.0, 577.0, 576.0, 577.0, 576.0, 577.0, 577.0, 577.0, 577.0, 577.0, 577.0, 577.0, 577.0, 577.0, 578.0, 578.0, 578.0, 577.0, 577.0, 578.0, 578.0, 578.0, 578.0, 579.0, 578.0, 578.0, 578.0, 578.0, 578.0, 578.0, 578.0, 578.0, 578.0, 579.0, 578.0, 577.0, 577.0, 577.0, 577.0, 578.0, 578.0, 577.0, 577.0, 577.0, 576.0, 576.0, 575.0, 576.0, 577.0, 577.0, 577.0, 578.0, 578.0, 578.0, 578.0, 577.0, 577.0, 576.0, 576.0, 576.0, 575.0, 575.0, 575.0, 575.0, 575.0, 575.0],
      "WindowWidth": [1241.0, 1238.0, 1237.0, 1235.0, 1234.0, 1233.0, 1233.0, 1232.0, 1231.0, 1231.0, 1232.0, 1232.0, 1231.0, 1232.0, 1230.0, 1232.0, 1231.0, 1233.0, 1233.0, 1232.0, 1231.0, 1229.0, 1228.0, 1227.0, 1226.0, 1227.0, 1227.0, 1226.0, 1226.0, 1227.0, 1228.0, 1231.0, 1231.0, 1229.0, 1231.0, 1232.0, 1229.0, 1227.0, 1225.0, 1222.0, 1221.0, 1220.0, 1220.0, 1221.0, 1221.0, 1222.0, 1225.0, 1225.0, 1227.0, 1228.0, 1228.0, 1228.0, 1227.0, 1226.0, 1229.0, 1228.0, 1228.0, 1228.0, 1227.0, 1226.0, 1225.0, 1224.0, 1224.0, 1223.0, 1224.0, 1224.0, 1225.0, 1225.0, 1224.0, 1225.0, 1226.0, 1226.0, 1226.0, 1227.0, 1227.0, 1227.0, 1225.0, 1226.0, 1227.0, 1227.0, 1227.0, 1228.0, 1228.0, 1228.0, 1228.0, 1227.0, 1228.0, 1227.0, 1228.0, 1228.0, 1228.0, 1228.0, 1229.0, 1227.0, 1225.0, 1225.0, 1225.0, 1226.0, 1227.0, 1227.0, 1226.0, 1225.0, 1225.0, 1223.0, 1223.0, 1221.0, 1223.0, 1224.0, 1226.0, 1226.0, 1227.0, 1228.0, 1228.0, 1227.0, 1225.0, 1224.0, 1223.0, 1222.0, 1222.0, 1222.0, 1221.0, 1222.0, 1221.0, 1222.0, 1222.0]
    },
    "slices": {}
  }
}