{
  "AcquisitionMatrixPE": 88,
  "AcquisitionNumber": 1,
  "AcquisitionTime": "10:07:43.312500",
  "BandwidthPerPixelPhaseEncode": 19.592,
  "BaseResolution": 88,
  "BodyPartExamined": "BRAIN",
  "ConsistencyInfo": "N4_VE11C_LATEST_20160120",
  "ConversionSoftware": "dcm2niix",
  "ConversionSoftwareVersion": "v1.0.20190902",
  "DerivedVendorReportedEchoSpacing": 0.000580014,
  "DeviceSerialNumber": "67050",
  "DwellTime": 2.6e-06,
  "EchoTime": 0.033,
  "EchoTrainLength": 88,
  "EffectiveEchoSpacing": 0.000580014,
  "FlipAngle": 62,
  "ImageOrientationPatientDICOM": [0.990156, 0.0584972, 0.127156, -0.029906, 0.975916, -0.216086],
  "ImageType": [
    "ORIGINAL",
    "PRIMARY",
    "M",
    "ND",
    "MOSAIC"
],
  "ImagingFrequency": 123.251,
  "InPlanePhaseEncodingDirectionDICOM": "COL",
  "InstitutionAddress": "Olive_Street_60_Providence_RI_US_02912",
  "InstitutionName": "BROWN_UNIVERSITY_MRF",
  "InstitutionalDepartmentName": "Department",
  "MRAcquisitionType": "2D",
  "MagneticFieldStrength": 3,
  "Manufacturer": "Siemens",
  "ManufacturersModelName": "Prisma_fit",
  "Modality": "MR",
  "MultibandAccelerationFactor": 4,
  "PartialFourier": 1,
  "PatientPosition": "HFS",
  "PercentPhaseFOV": 100,
  "PhaseEncodingDirection": "j-",
  "PhaseEncodingSteps": 88,
  "PhaseResolution": 1,
  "PixelBandwidth": 2185,
  "ProcedureStepDescription": "ASHENHAV_1222",
  "ProtocolName": "func-bold_task-RDMcolor_run-05",
  "PulseSequenceDetails": "%SiemensSeq%_ep2d_bold",
  "ReceiveCoilActiveElements": "HC1-7;NC1",
  "ReceiveCoilName": "HeadNeck_64",
  "ReconMatrixPE": 88,
  "RefLinesPE": 8,
  "RepetitionTime": 1.2,
  "SAR": 0.0505992,
  "ScanOptions": "FS",
  "ScanningSequence": "EP",
  "SequenceName": "_epfid2d1_88",
  "SequenceVariant": "SK",
  "SeriesDescription": "func-bold_task-RDMcolor_run-05",
  "SeriesNumber": 16,
  "ShimSetting": [1784, -9082, 4397, 354, -52, -216, -82, 34],
  "SliceThickness": 2.4,
  "SliceTiming": [0.55, 0, 0.63, 0.08, 0.7075, 0.1575, 0.7875, 0.2375, 0.865, 0.315, 0.945, 0.3925, 1.0225, 0.4725, 1.1025, 0.55, 0, 0.63, 0.08, 0.7075, 0.1575, 0.7875, 0.2375, 0.865, 0.315, 0.945, 0.3925, 1.0225, 0.4725, 1.1025, 0.55, 0, 0.63, 0.08, 0.7075, 0.1575, 0.7875, 0.2375, 0.865, 0.315, 0.945, 0.3925, 1.0225, 0.4725, 1.1025, 0.55, 0, 0.63, 0.08, 0.7075, 0.1575, 0.7875, 0.2375, 0.865, 0.315, 0.945, 0.3925, 1.0225, 0.4725, 1.1025],
  "SoftwareVersions": "syngo_MR_E11",
  "SpacingBetweenSlices": 2.4,
  "StationName": "AWP67050",
  "TaskName": "RDMcolor",
  "TotalReadoutTime": 0.0504612,
  "TxRefAmp": 237.486,
  "dcmmeta_affine": [
    [-2.374124526977539, -0.07170654833316803, 0.3281621038913727, 103.75586700439453],
    [-0.14026035368442535, 2.3399808406829834, -0.5043755769729614, -73.49224853515625],
    [0.3048858344554901, 0.5181160569190979, 2.323341131210327, -101.17082214355469],
    [0.0, 0.0, 0.0, 1.0]
],
  "dcmmeta_reorient_transform": [
    [0.0, -1.0, 0.0, 87.0],
    [1.0, 0.0, 0.0, 0.0],
    [0.0, 0.0, 1.0, 0.0],
    [0.0, 0.0, 0.0, 1.0]
],
  "dcmmeta_shape": [88, 88, 60, 392],
  "dcmmeta_slice_dim": 2,
  "dcmmeta_version": 0.6,
  "global": {
    "const": {
      "AcquisitionMatrix": [88, 0, 0, 88],
      "AngioFlag": "N",
      "BitsAllocated": 16,
      "BitsStored": 12,
      "BodyPartExamined": "BRAIN",
      "Columns": 704,
      "DeidentificationMethodCodeSequence": [
        {
          "CodeMeaning": "XNAT DicomEdit 6 Script",
          "CodeValue": "3",
          "CodingSchemeDesignator": "XNAT",
          "CodingSchemeVersion": "1.0"}
],
      "EchoNumbers": 1,
      "EchoTime": 33.0,
      "EchoTrainLength": 88,
      "FlipAngle": 62.0,
      "HighBit": 11,
      "ImageOrientationPatient": [0.99015624180712, 0.05849721020437, 0.12715617644734, -0.0299060486995, 0.9759161475964, -0.216086327915],
      "ImagePositionPatient": [-806.66215490714, -894.00033713072, 9.5801947432128],
      "ImageType": [
        "ORIGINAL",
        "PRIMARY",
        "M",
        "ND",
        "MOSAIC"
],
      "ImagedNucleus": "1H",
      "ImagingFrequency": 123.250688,
      "InPlanePhaseEncodingDirection": "COL",
      "MRAcquisitionType": "2D",
      "MagneticFieldStrength": 3.0,
      "Manufacturer": "SIEMENS",
      "ManufacturerModelName": "Prisma_fit",
      "Modality": "MR",
      "NumberOfAverages": 1.0,
      "NumberOfPhaseEncodingSteps": 88,
      "PercentPhaseFieldOfView": 100.0,
      "PercentSampling": 100.0,
      "PerformedProcedureStepStartTime": "084626.598000",
      "PhotometricInterpretation": "MONOCHROME2",
      "PixelBandwidth": 2185.0,
      "PixelRepresentation": 0,
      "PixelSpacing": [2.3977272510529, 2.3977272510529],
      "ProtocolName": "func-bold_task-RDMcolor_run-05",
      "RepetitionTime": 1200.0,
      "Rows": 704,
      "SAR": 0.05059917590231,
      "SamplesPerPixel": 1,
      "ScanOptions": "FS",
      "ScanningSequence": "EP",
      "SequenceName": "*epfid2d1_88",
      "SequenceVariant": "SK",
      "SeriesDescription": "func-bold_task-RDMcolor_run-05",
      "SeriesNumber": 16,
      "SeriesTime": "100804.010000",
      "SliceLocation": -68.307462997709,
      "SliceThickness": 2.4000000953674,
      "SmallestImagePixelValue": 0,
      "SoftwareVersions": "syngo MR E11",
      "SpacingBetweenSlices": 2.3999999131864,
      "SpecificCharacterSet": "ISO_IR 100",
      "StudyID": "1",
      "StudyTime": "084626.370000",
      "TransmitCoilName": "Body",
      "VariableFlipAngleFlag": "N",
      "WindowCenterWidthExplanation": "Algo1",
      "dBdt": 0.0},
    "slices": {}
  },
  "time": {
    "samples": {
      "AcquisitionNumber": [1, 2, 3, 4, 5, 6, 7, 8, 9, 10, 11, 12, 13, 14, 15, 16, 17, 18, 19, 20, 21, 22, 23, 24, 25, 26, 27, 28, 29, 30, 31, 32, 33, 34, 35, 36, 37, 38, 39, 40, 41, 42, 43, 44, 45, 46, 47, 48, 49, 50, 51, 52, 53, 54, 55, 56, 57, 58, 59, 60, 61, 62, 63, 64, 65, 66, 67, 68, 69, 70, 71, 72, 73, 74, 75, 76, 77, 78, 79, 80, 81, 82, 83, 84, 85, 86, 87, 88, 89, 90, 91, 92, 93, 94, 95, 96, 97, 98, 99, 100, 101, 102, 103, 104, 105, 106, 107, 108, 109, 110, 111, 112, 113, 114, 115, 116, 117, 118, 119, 120, 121, 122, 123, 124, 125, 126, 127, 128, 129, 130, 131, 132, 133, 134, 135, 136, 137, 138, 139, 140, 141, 142, 143, 144, 145, 146, 147, 148, 149, 150, 151, 152, 153, 154, 155, 156, 157, 158, 159, 160, 161, 162, 163, 164, 165, 166, 167, 168, 169, 170, 171, 172, 173, 174, 175, 176, 177, 178, 179, 180, 181, 182, 183, 184, 185, 186, 187, 188, 189, 190, 191, 192, 193, 194, 195, 196, 197, 198, 199, 200, 201, 202, 203, 204, 205, 206, 207, 208, 209, 210, 211, 212, 213, 214, 215, 216, 217, 218, 219, 220, 221, 222, 223, 224, 225, 226, 227, 228, 229, 230, 231, 232, 233, 234, 235, 236, 237, 238, 239, 240, 241, 242, 243, 244, 245, 246, 247, 248, 249, 250, 251, 252, 253, 254, 255, 256, 257, 258, 259, 260, 261, 262, 263, 264, 265, 266, 267, 268, 269, 270, 271, 272, 273, 274, 275, 276, 277, 278, 279, 280, 281, 282, 283, 284, 285, 286, 287, 288, 289, 290, 291, 292, 293, 294, 295, 296, 297, 298, 299, 300, 301, 302, 303, 304, 305, 306, 307, 308, 309, 310, 311, 312, 313, 314, 315, 316, 317, 318, 319, 320, 321, 322, 323, 324, 325, 326, 327, 328, 329, 330, 331, 332, 333, 334, 335, 336, 337, 338, 339, 340, 341, 342, 343, 344, 345, 346, 347, 348, 349, 350, 351, 352, 353, 354, 355, 356, 357, 358, 359, 360, 361, 362, 363, 364, 365, 366, 367, 368, 369, 370, 371, 372, 373, 374, 375, 376, 377, 378, 379, 380, 381, 382, 383, 384, 385, 386, 387, 388, 389, 390, 391, 392],
      "AcquisitionTime": ["100743.312500", "100744.512500", "100745.712500", "100746.912500", "100748.112500", "100749.312500", "100750.512500", "100751.712500", "100752.912500", "100754.112500", "100755.312500", "100756.512500", "100757.712500", "100758.912500", "100800.112500", "100801.312500", "100802.512500", "100803.712500", "100804.912500", "100806.112500", "100807.312500", "100808.512500", "100809.712500", "100810.912500", "100812.112500", "100813.312500", "100814.512500", "100815.712500", "100816.912500", "100818.112500", "100819.312500", "100820.512500", "100821.712500", "100822.912500", "100824.112500", "100825.312500", "100826.512500", "100827.712500", "100828.912500", "100830.112500", "100831.312500", "100832.512500", "100833.712500", "100834.912500", "100836.112500", "100837.312500", "100838.512500", "100839.712500", "100840.912500", "100842.112500", "100843.312500", "100844.512500", "100845.712500", "100846.912500", "100848.112500", "100849.312500", "100850.512500", "100851.712500", "100852.912500", "100854.112500", "100855.312500", "100856.512500", "100857.712500", "100858.912500", "100900.112500", "100901.312500", "100902.512500", "100903.712500", "100904.912500", "100906.112500", "100907.312500", "100908.512500", "100909.712500", "100910.912500", "100912.112500", "100913.312500", "100914.512500", "100915.712500", "100916.912500", "100918.112500", "100919.312500", "100920.512500", "100921.712500", "100922.912500", "100924.112500", "100925.312500", "100926.512500", "100927.712500", "100928.912500", "100930.112500", "100931.312500", "100932.512500", "100933.712500", "100934.912500", "100936.112500", "100937.312500", "100938.512500", "100939.712500", "100940.912500", "100942.112500", "100943.312500", "100944.512500", "100945.712500", "100946.912500", "100948.112500", "100949.312500", "100950.512500", "100951.712500", "100952.912500", "100954.112500", "100955.312500", "100956.512500", "100957.712500", "100958.912500", "101000.112500", "101001.312500", "101002.512500", "101003.712500", "101004.912500", "101006.112500", "101007.312500", "101008.512500", "101009.712500", "101010.912500", "101012.112500", "101013.312500", "101014.512500", "101015.712500", "101016.912500", "101018.112500", "101019.312500", "101020.512500", "101021.712500", "101022.912500", "101024.112500", "101025.312500", "101026.512500", "101027.712500", "101028.912500", "101030.112500", "101031.312500", "101032.512500", "101033.712500", "101034.912500", "101036.112500", "101037.312500", "101038.512500", "101039.712500", "101040.912500", "101042.112500", "101043.312500", "101044.512500", "101045.712500", "101046.912500", "101048.112500", "101049.312500", "101050.512500", "101051.712500", "101052.912500", "101054.112500", "101055.312500", "101056.512500", "101057.712500", "101058.912500", "101100.112500", "101101.312500", "101102.512500", "101103.712500", "101104.912500", "101106.112500", "101107.312500", "101108.512500", "101109.712500", "101110.912500", "101112.112500", "101113.312500", "101114.512500", "101115.712500", "101116.912500", "101118.112500", "101119.312500", "101120.512500", "101121.712500", "101122.912500", "101124.112500", "101125.312500", "101126.512500", "101127.712500", "101128.912500", "101130.112500", "101131.312500", "101132.512500", "101133.712500", "101134.912500", "101136.112500", "101137.312500", "101138.512500", "101139.712500", "101140.912500", "101142.112500", "101143.312500", "101144.512500", "101145.712500", "101146.912500", "101148.112500", "101149.312500", "101150.512500", "101151.712500", "101152.912500", "101154.112500", "101155.312500", "101156.512500", "101157.712500", "101158.912500", "101200.112500", "101201.312500", "101202.512500", "101203.712500", "101204.912500", "101206.112500", "101207.312500", "101208.512500", "101209.712500", "101210.912500", "101212.112500", "101213.312500", "101214.512500", "101215.712500", "101216.912500", "101218.112500", "101219.312500", "101220.512500", "101221.712500", "101222.912500", "101224.112500", "101225.312500", "101226.512500", "101227.712500", "101228.912500", "101230.112500", "101231.312500", "101232.512500", "101233.712500", "101234.912500", "101236.112500", "101237.312500", "101238.512500", "101239.712500", "101240.912500", "101242.112500", "101243.312500", "101244.512500", "101245.712500", "101246.912500", "101248.112500", "101249.312500", "101250.512500", "101251.712500", "101252.912500", "101254.112500", "101255.312500", "101256.512500", "101257.712500", "101258.912500", "101300.112500", "101301.312500", "101302.512500", "101303.712500", "101304.912500", "101306.112500", "101307.312500", "101308.512500", "101309.712500", "101310.912500", "101312.112500", "101313.312500", "101314.512500", "101315.712500", "101316.912500", "101318.112500", "101319.312500", "101320.512500", "101321.712500", "101322.912500", "101324.112500", "101325.312500", "101326.512500", "101327.712500", "101328.912500", "101330.112500", "101331.312500", "101332.512500", "101333.712500", "101334.912500", "101336.112500", "101337.312500", "101338.512500", "101339.712500", "101340.912500", "101342.112500", "101343.312500", "101344.512500", "101345.712500", "101346.912500", "101348.112500", "101349.312500", "101350.512500", "101351.712500", "101352.912500", "101354.112500", "101355.312500", "101356.512500", "101357.712500", "101358.912500", "101400.112500", "101401.312500", "101402.512500", "101403.712500", "101404.912500", "101406.112500", "101407.312500", "101408.512500", "101409.712500", "101410.912500", "101412.112500", "101413.312500", "101414.512500", "101415.712500", "101416.912500", "101418.112500", "101419.312500", "101420.512500", "101421.712500", "101422.912500", "101424.112500", "101425.312500", "101426.512500", "101427.712500", "101428.912500", "101430.112500", "101431.312500", "101432.512500", "101433.712500", "101434.912500", "101436.112500", "101437.312500", "101438.512500", "101439.712500", "101440.912500", "101442.112500", "101443.312500", "101444.512500", "101445.712500", "101446.912500", "101448.112500", "101449.312500", "101450.512500", "101451.712500", "101452.912500", "101454.112500", "101455.312500", "101456.512500", "101457.712500", "101458.912500", "101500.112500", "101501.312500", "101502.512500", "101503.712500", "101504.912500", "101506.112500", "101507.312500", "101508.512500", "101509.712500", "101510.912500", "101512.112500", "101513.312500", "101514.512500", "101515.712500", "101516.912500", "101518.112500", "101519.312500", "101520.512500", "101521.712500", "101522.912500", "101524.112500", "101525.312500", "101526.512500", "101527.712500", "101528.912500", "101530.112500", "101531.312500", "101532.512500"],
      "ContentTime": ["100804.014000", "100804.017000", "100804.020000", "100804.022000", "100804.025000", "100804.033000", "100804.036000", "100804.038000", "100804.045000", "100804.048000", "100804.059000", "100804.062000", "100804.069000", "100804.091000", "100804.093000", "100804.096000", "100844.009000", "100844.012000", "100844.015000", "100844.017000", "100844.020000", "100844.023000", "100844.026000", "100844.028000", "100844.031000", "100844.033000", "100844.036000", "100844.039000", "100844.041000", "100844.044000", "100844.046000", "100844.052000", "100844.054000", "100844.057000", "100844.060000", "100844.062000", "100844.065000", "100844.067000", "100844.070000", "100844.073000", "100844.075000", "100844.078000", "100844.081000", "100844.083000", "100844.086000", "100844.088000", "100844.091000", "100844.094000", "100844.096000", "100844.099000", "100924.009000", "100924.012000", "100924.015000", "100924.017000", "100924.020000", "100924.023000", "100924.025000", "100924.028000", "100924.031000", "100924.033000", "100924.036000", "100924.038000", "100924.041000", "100924.043000", "100924.046000", "100924.049000", "100924.051000", "100924.054000", "100924.057000", "100924.059000", "100924.062000", "100924.064000", "100924.067000", "100924.069000", "100924.072000", "100924.075000", "100924.077000", "100924.080000", "100924.082000", "100924.085000", "100924.087000", "100924.091000", "100924.094000", "101004.009000", "101004.012000", "101004.015000", "101004.018000", "101004.020000", "101004.023000", "101004.026000", "101004.028000", "101004.031000", "101004.034000", "101004.037000", "101004.052000", "101004.054000", "101004.057000", "101004.059000", "101004.062000", "101004.065000", "101004.068000", "101004.070000", "101004.073000", "101004.076000", "101004.078000", "101004.081000", "101004.083000", "101004.086000", "101004.089000", "101004.091000", "101004.094000", "101004.096000", "101004.099000", "101004.102000", "101004.104000", "101004.107000", "101044.010000", "101044.012000", "101044.015000", "101044.018000", "101044.020000", "101044.023000", "101044.026000", "101044.028000", "101044.031000", "101044.033000", "101044.036000", "101044.040000", "101044.042000", "101044.045000", "101044.047000", "101044.050000", "101044.053000", "101044.055000", "101044.058000", "101044.061000", "101044.063000", "101044.066000", "101044.068000", "101044.071000", "101044.074000", "101044.076000", "101044.079000", "101044.082000", "101044.084000", "101044.087000", "101044.089000", "101044.092000", "101044.095000", "101044.097000", "101124.008000", "101124.011000", "101124.014000", "101124.017000", "101124.019000", "101124.022000", "101124.024000", "101124.027000", "101124.030000", "101124.032000", "101124.035000", "101124.038000", "101124.040000", "101124.043000", "101124.045000", "101124.048000", "101124.051000", "101124.053000", "101124.070000", "101124.072000", "101124.075000", "101124.077000", "101124.080000", "101124.083000", "101124.085000", "101124.089000", "101124.092000", "101124.094000", "101124.097000", "101124.100000", "101124.102000", "101124.105000", "101124.107000", "101204.009000", "101204.012000", "101204.015000", "101204.017000", "101204.021000", "101204.024000", "101204.026000", "101204.029000", "101204.032000", "101204.034000", "101204.037000", "101204.039000", "101204.042000", "101204.045000", "101204.047000", "101204.050000", "101204.053000", "101204.055000", "101204.058000", "101204.060000", "101204.063000", "101204.066000", "101204.068000", "101204.071000", "101204.074000", "101204.077000", "101204.081000", "101204.083000", "101204.086000", "101204.088000", "101204.091000", "101204.094000", "101204.096000", "101244.010000", "101244.012000", "101244.015000", "101244.018000", "101244.020000", "101244.023000", "101244.043000", "101244.045000", "101244.048000", "101244.051000", "101244.053000", "101244.056000", "101244.059000", "101244.061000", "101244.064000", "101244.066000", "101244.069000", "101244.072000", "101244.074000", "101244.077000", "101244.079000", "101244.082000", "101244.085000", "101244.087000", "101244.090000", "101244.092000", "101244.095000", "101244.098000", "101244.100000", "101244.103000", "101244.105000", "101244.108000", "101244.111000", "101244.113000", "101324.009000", "101324.012000", "101324.015000", "101324.018000", "101324.020000", "101324.023000", "101324.025000", "101324.028000", "101324.031000", "101324.033000", "101324.036000", "101324.039000", "101324.041000", "101324.044000", "101324.047000", "101324.049000", "101324.052000", "101324.055000", "101324.057000", "101324.060000", "101324.063000", "101324.065000", "101324.068000", "101324.070000", "101324.073000", "101324.076000", "101324.078000", "101324.081000", "101324.084000", "101324.087000", "101324.090000", "101324.093000", "101324.096000", "101404.009000", "101404.012000", "101404.015000", "101404.018000", "101404.020000", "101404.023000", "101404.026000", "101404.028000", "101404.031000", "101404.039000", "101404.042000", "101404.044000", "101404.047000", "101404.049000", "101404.052000", "101404.055000", "101404.058000", "101404.060000", "101404.063000", "101404.066000", "101404.069000", "101404.072000", "101404.075000", "101404.077000", "101404.080000", "101404.083000", "101404.085000", "101404.088000", "101404.090000", "101404.093000", "101404.096000", "101404.098000", "101404.101000", "101444.009000", "101444.012000", "101444.015000", "101444.018000", "101444.020000", "101444.023000", "101444.025000", "101444.028000", "101444.031000", "101444.033000", "101444.036000", "101444.039000", "101444.041000", "101444.044000", "101444.047000", "101444.049000", "101444.052000", "101444.054000", "101444.057000", "101444.060000", "101444.062000", "101444.065000", "101444.068000", "101444.070000", "101444.073000", "101444.075000", "101444.078000", "101444.081000", "101444.083000", "101444.086000", "101444.089000", "101444.091000", "101444.094000", "101444.096000", "101524.010000", "101524.013000", "101524.016000", "101524.019000", "101524.021000", "101524.024000", "101524.027000", "101524.029000", "101524.032000", "101524.034000", "101524.037000", "101524.040000", "101524.042000", "101524.045000", "101524.047000", "101524.050000", "101524.053000", "101524.055000", "101524.058000", "101524.061000", "101524.063000", "101524.066000", "101524.068000", "101524.071000", "101524.074000", "101524.076000", "101524.079000", "101524.081000", "101524.084000", "101524.088000", "101524.091000", "101524.094000", "101524.096000", "101534.120000", "101534.123000", "101534.125000", "101534.128000", "101534.131000", "101534.133000", "101534.136000", "101534.139000", "101534.141000"],
      "InstanceCreationTime": ["100804.014000", "100804.017000", "100804.020000", "100804.022000", "100804.025000", "100804.033000", "100804.036000", "100804.038000", "100804.045000", "100804.048000", "100804.059000", "100804.062000", "100804.069000", "100804.091000", "100804.093000", "100804.096000", "100844.009000", "100844.012000", "100844.015000", "100844.017000", "100844.020000", "100844.023000", "100844.026000", "100844.028000", "100844.031000", "100844.033000", "100844.036000", "100844.039000", "100844.041000", "100844.044000", "100844.046000", "100844.052000", "100844.054000", "100844.057000", "100844.060000", "100844.062000", "100844.065000", "100844.067000", "100844.070000", "100844.073000", "100844.075000", "100844.078000", "100844.081000", "100844.083000", "100844.086000", "100844.088000", "100844.091000", "100844.094000", "100844.096000", "100844.099000", "100924.009000", "100924.012000", "100924.015000", "100924.017000", "100924.020000", "100924.023000", "100924.025000", "100924.028000", "100924.031000", "100924.033000", "100924.036000", "100924.038000", "100924.041000", "100924.043000", "100924.046000", "100924.049000", "100924.051000", "100924.054000", "100924.057000", "100924.059000", "100924.062000", "100924.064000", "100924.067000", "100924.069000", "100924.072000", "100924.075000", "100924.077000", "100924.080000", "100924.082000", "100924.085000", "100924.087000", "100924.091000", "100924.094000", "101004.009000", "101004.012000", "101004.015000", "101004.018000", "101004.020000", "101004.023000", "101004.026000", "101004.028000", "101004.031000", "101004.034000", "101004.037000", "101004.052000", "101004.054000", "101004.057000", "101004.059000", "101004.062000", "101004.065000", "101004.068000", "101004.070000", "101004.073000", "101004.076000", "101004.078000", "101004.081000", "101004.083000", "101004.086000", "101004.089000", "101004.091000", "101004.094000", "101004.096000", "101004.099000", "101004.102000", "101004.104000", "101004.107000", "101044.010000", "101044.012000", "101044.015000", "101044.018000", "101044.020000", "101044.023000", "101044.026000", "101044.028000", "101044.031000", "101044.033000", "101044.036000", "101044.040000", "101044.042000", "101044.045000", "101044.047000", "101044.050000", "101044.053000", "101044.055000", "101044.058000", "101044.061000", "101044.063000", "101044.066000", "101044.068000", "101044.071000", "101044.074000", "101044.076000", "101044.079000", "101044.082000", "101044.084000", "101044.087000", "101044.089000", "101044.092000", "101044.095000", "101044.097000", "101124.008000", "101124.011000", "101124.014000", "101124.017000", "101124.019000", "101124.022000", "101124.024000", "101124.027000", "101124.030000", "101124.032000", "101124.035000", "101124.038000", "101124.040000", "101124.043000", "101124.045000", "101124.048000", "101124.051000", "101124.053000", "101124.070000", "101124.072000", "101124.075000", "101124.077000", "101124.080000", "101124.083000", "101124.085000", "101124.089000", "101124.092000", "101124.094000", "101124.097000", "101124.100000", "101124.102000", "101124.105000", "101124.107000", "101204.009000", "101204.012000", "101204.015000", "101204.017000", "101204.021000", "101204.024000", "101204.026000", "101204.029000", "101204.032000", "101204.034000", "101204.037000", "101204.039000", "101204.042000", "101204.045000", "101204.047000", "101204.050000", "101204.053000", "101204.055000", "101204.058000", "101204.060000", "101204.063000", "101204.066000", "101204.068000", "101204.071000", "101204.074000", "101204.077000", "101204.081000", "101204.083000", "101204.086000", "101204.088000", "101204.091000", "101204.094000", "101204.096000", "101244.010000", "101244.012000", "101244.015000", "101244.018000", "101244.020000", "101244.023000", "101244.043000", "101244.045000", "101244.048000", "101244.051000", "101244.053000", "101244.056000", "101244.059000", "101244.061000", "101244.064000", "101244.066000", "101244.069000", "101244.072000", "101244.074000", "101244.077000", "101244.079000", "101244.082000", "101244.085000", "101244.087000", "101244.090000", "101244.092000", "101244.095000", "101244.098000", "101244.100000", "101244.103000", "101244.105000", "101244.108000", "101244.111000", "101244.113000", "101324.009000", "101324.012000", "101324.015000", "101324.018000", "101324.020000", "101324.023000", "101324.025000", "101324.028000", "101324.031000", "101324.033000", "101324.036000", "101324.039000", "101324.041000", "101324.044000", "101324.047000", "101324.049000", "101324.052000", "101324.055000", "101324.057000", "101324.060000", "101324.063000", "101324.065000", "101324.068000", "101324.070000", "101324.073000", "101324.076000", "101324.078000", "101324.081000", "101324.084000", "101324.087000", "101324.090000", "101324.093000", "101324.096000", "101404.009000", "101404.012000", "101404.015000", "101404.018000", "101404.020000", "101404.023000", "101404.026000", "101404.028000", "101404.031000", "101404.039000", "101404.042000", "101404.044000", "101404.047000", "101404.049000", "101404.052000", "101404.055000", "101404.058000", "101404.060000", "101404.063000", "101404.066000", "101404.069000", "101404.072000", "101404.075000", "101404.077000", "101404.080000", "101404.083000", "101404.085000", "101404.088000", "101404.090000", "101404.093000", "101404.096000", "101404.098000", "101404.101000", "101444.009000", "101444.012000", "101444.015000", "101444.018000", "101444.020000", "101444.023000", "101444.025000", "101444.028000", "101444.031000", "101444.033000", "101444.036000", "101444.039000", "101444.041000", "101444.044000", "101444.047000", "101444.049000", "101444.052000", "101444.054000", "101444.057000", "101444.060000", "101444.062000", "101444.065000", "101444.068000", "101444.070000", "101444.073000", "101444.075000", "101444.078000", "101444.081000", "101444.083000", "101444.086000", "101444.089000", "101444.091000", "101444.094000", "101444.096000", "101524.010000", "101524.013000", "101524.016000", "101524.019000", "101524.021000", "101524.024000", "101524.027000", "101524.029000", "101524.032000", "101524.034000", "101524.037000", "101524.040000", "101524.042000", "101524.045000", "101524.047000", "101524.050000", "101524.053000", "101524.055000", "101524.058000", "101524.061000", "101524.063000", "101524.066000", "101524.068000", "101524.071000", "101524.074000", "101524.076000", "101524.079000", "101524.081000", "101524.084000", "101524.088000", "101524.091000", "101524.094000", "101524.096000", "101534.120000", "101534.123000", "101534.125000", "101534.128000", "101534.131000", "101534.133000", "101534.136000", "101534.139000", "101534.141000"],
      "InstanceNumber": [1, 2, 3, 4, 5, 6, 7, 8, 9, 10, 11, 12, 13, 14, 15, 16, 17, 18, 19, 20, 21, 22, 23, 24, 25, 26, 27, 28, 29, 30, 31, 32, 33, 34, 35, 36, 37, 38, 39, 40, 41, 42, 43, 44, 45, 46, 47, 48, 49, 50, 51, 52, 53, 54, 55, 56, 57, 58, 59, 60, 61, 62, 63, 64, 65, 66, 67, 68, 69, 70, 71, 72, 73, 74, 75, 76, 77, 78, 79, 80, 81, 82, 83, 84, 85, 86, 87, 88, 89, 90, 91, 92, 93, 94, 95, 96, 97, 98, 99, 100, 101, 102, 103, 104, 105, 106, 107, 108, 109, 110, 111, 112, 113, 114, 115, 116, 117, 118, 119, 120, 121, 122, 123, 124, 125, 126, 127, 128, 129, 130, 131, 132, 133, 134, 135, 136, 137, 138, 139, 140, 141, 142, 143, 144, 145, 146, 147, 148, 149, 150, 151, 152, 153, 154, 155, 156, 157, 158, 159, 160, 161, 162, 163, 164, 165, 166, 167, 168, 169, 170, 171, 172, 173, 174, 175, 176, 177, 178, 179, 180, 181, 182, 183, 184, 185, 186, 187, 188, 189, 190, 191, 192, 193, 194, 195, 196, 197, 198, 199, 200, 201, 202, 203, 204, 205, 206, 207, 208, 209, 210, 211, 212, 213, 214, 215, 216, 217, 218, 219, 220, 221, 222, 223, 224, 225, 226, 227, 228, 229, 230, 231, 232, 233, 234, 235, 236, 237, 238, 239, 240, 241, 242, 243, 244, 245, 246, 247, 248, 249, 250, 251, 252, 253, 254, 255, 256, 257, 258, 259, 260, 261, 262, 263, 264, 265, 266, 267, 268, 269, 270, 271, 272, 273, 274, 275, 276, 277, 278, 279, 280, 281, 282, 283, 284, 285, 286, 287, 288, 289, 290, 291, 292, 293, 294, 295, 296, 297, 298, 299, 300, 301, 302, 303, 304, 305, 306, 307, 308, 309, 310, 311, 312, 313, 314, 315, 316, 317, 318, 319, 320, 321, 322, 323, 324, 325, 326, 327, 328, 329, 330, 331, 332, 333, 334, 335, 336, 337, 338, 339, 340, 341, 342, 343, 344, 345, 346, 347, 348, 349, 350, 351, 352, 353, 354, 355, 356, 357, 358, 359, 360, 361, 362, 363, 364, 365, 366, 367, 368, 369, 370, 371, 372, 373, 374, 375, 376, 377, 378, 379, 380, 381, 382, 383, 384, 385, 386, 387, 388, 389, 390, 391, 392],
