{
  "AcquisitionMatrixPE": 88,
  "AcquisitionNumber": 1,
  "AcquisitionTime": "09:20:12.927500",
  "BandwidthPerPixelPhaseEncode": 19.592,
  "BaseResolution": 88,
  "BodyPartExamined": "BRAIN",
  "ConsistencyInfo": "N4_VE11C_LATEST_20160120",
  "ConversionSoftware": "dcm2niix",
  "ConversionSoftwareVersion": "v1.0.20190902",
  "DerivedVendorReportedEchoSpacing": 0.000580014,
  "DeviceSerialNumber": "67050",
  "DwellTime": 2.6e-06,
  "EchoTime": 0.033,
  "EchoTrainLength": 88,
  "EffectiveEchoSpacing": 0.000580014,
  "FlipAngle": 62,
  "ImageOrientationPatientDICOM": [0.990156, 0.0584972, 0.127156, -0.029906, 0.975916, -0.216086],
  "ImageType": [
    "ORIGINAL",
    "PRIMARY",
    "M",
    "ND",
    "MOSAIC"
],
  "ImagingFrequency": 123.251,
  "InPlanePhaseEncodingDirectionDICOM": "COL",
  "InstitutionAddress": "Olive_Street_60_Providence_RI_US_02912",
  "InstitutionName": "BROWN_UNIVERSITY_MRF",
  "InstitutionalDepartmentName": "Department",
  "MRAcquisitionType": "2D",
  "MagneticFieldStrength": 3,
  "Manufacturer": "Siemens",
  "ManufacturersModelName": "Prisma_fit",
  "Modality": "MR",
  "MultibandAccelerationFactor": 4,
  "PartialFourier": 1,
  "PatientPosition": "HFS",
  "PercentPhaseFOV": 100,
  "PhaseEncodingDirection": "j-",
  "PhaseEncodingSteps": 88,
  "PhaseResolution": 1,
  "PixelBandwidth": 2185,
  "ProcedureStepDescription": "ASHENHAV_1222",
  "ProtocolName": "func-bold_task-RDMcolor_run-01",
  "PulseSequenceDetails": "%SiemensSeq%_ep2d_bold",
  "ReceiveCoilActiveElements": "HC1-7;NC1",
  "ReceiveCoilName": "HeadNeck_64",
  "ReconMatrixPE": 88,
  "RefLinesPE": 8,
  "RepetitionTime": 1.2,
  "SAR": 0.0505992,
  "ScanOptions": "FS",
  "ScanningSequence": "EP",
  "SequenceName": "_epfid2d1_88",
  "SequenceVariant": "SK",
  "SeriesDescription": "func-bold_task-RDMcolor_run-01",
  "SeriesNumber": 8,
  "ShimSetting": [1784, -9082, 4397, 354, -52, -216, -82, 34],
  "SliceThickness": 2.4,
  "SliceTiming": [0.55, 0, 0.6275, 0.0775, 0.7075, 0.155, 0.785, 0.235, 0.865, 0.3125, 0.9425, 0.3925, 1.0225, 0.47, 1.1, 0.55, 0, 0.6275, 0.0775, 0.7075, 0.155, 0.785, 0.235, 0.865, 0.3125, 0.9425, 0.3925, 1.0225, 0.47, 1.1, 0.55, 0, 0.6275, 0.0775, 0.7075, 0.155, 0.785, 0.235, 0.865, 0.3125, 0.9425, 0.3925, 1.0225, 0.47, 1.1, 0.55, 0, 0.6275, 0.0775, 0.7075, 0.155, 0.785, 0.235, 0.865, 0.3125, 0.9425, 0.3925, 1.0225, 0.47, 1.1],
  "SoftwareVersions": "syngo_MR_E11",
  "SpacingBetweenSlices": 2.4,
  "StationName": "AWP67050",
  "TaskName": "RDMcolor",
  "TotalReadoutTime": 0.0504612,
  "TxRefAmp": 237.486,
  "dcmmeta_affine": [
    [-2.374124526977539, -0.07170654833316803, 0.3281621038913727, 103.75586700439453],
    [-0.14026035368442535, 2.3399808406829834, -0.5043755769729614, -73.49224853515625],
    [0.3048858344554901, 0.5181160569190979, 2.323341131210327, -101.17082214355469],
    [0.0, 0.0, 0.0, 1.0]
],
  "dcmmeta_reorient_transform": [
    [0.0, -1.0, 0.0, 87.0],
    [1.0, 0.0, 0.0, 0.0],
    [0.0, 0.0, 1.0, 0.0],
    [0.0, 0.0, 0.0, 1.0]
],
  "dcmmeta_shape": [88, 88, 60, 392],
  "dcmmeta_slice_dim": 2,
  "dcmmeta_version": 0.6,
  "global": {
    "const": {
      "AcquisitionMatrix": [88, 0, 0, 88],
      "AngioFlag": "N",
      "BitsAllocated": 16,
      "BitsStored": 12,
      "BodyPartExamined": "BRAIN",
      "Columns": 704,
      "DeidentificationMethodCodeSequence": [
        {
          "CodeMeaning": "XNAT DicomEdit 6 Script",
          "CodeValue": "3",
          "CodingSchemeDesignator": "XNAT",
          "CodingSchemeVersion": "1.0"}
],
      "EchoNumbers": 1,
      "EchoTime": 33.0,
      "EchoTrainLength": 88,
      "FlipAngle": 62.0,
      "HighBit": 11,
      "ImageOrientationPatient": [0.99015624180712, 0.05849721020437, 0.12715617644734, -0.0299060486995, 0.9759161475964, -0.216086327915],
      "ImagePositionPatient": [-806.66215490714, -894.00033713072, 9.5801947432128],
      "ImageType": [
        "ORIGINAL",
        "PRIMARY",
        "M",
        "ND",
        "MOSAIC"
],
      "ImagedNucleus": "1H",
      "ImagingFrequency": 123.250662,
      "InPlanePhaseEncodingDirection": "COL",
      "MRAcquisitionType": "2D",
      "MagneticFieldStrength": 3.0,
      "Manufacturer": "SIEMENS",
      "ManufacturerModelName": "Prisma_fit",
      "Modality": "MR",
      "NumberOfAverages": 1.0,
      "NumberOfPhaseEncodingSteps": 88,
      "PercentPhaseFieldOfView": 100.0,
      "PercentSampling": 100.0,
      "PerformedProcedureStepStartTime": "084626.598000",
      "PhotometricInterpretation": "MONOCHROME2",
      "PixelBandwidth": 2185.0,
      "PixelRepresentation": 0,
      "PixelSpacing": [2.3977272510529, 2.3977272510529],
      "ProtocolName": "func-bold_task-RDMcolor_run-01",
      "RepetitionTime": 1200.0,
      "Rows": 704,
      "SAR": 0.05059917590231,
      "SamplesPerPixel": 1,
      "ScanOptions": "FS",
      "ScanningSequence": "EP",
      "SequenceName": "*epfid2d1_88",
      "SequenceVariant": "SK",
      "SeriesDescription": "func-bold_task-RDMcolor_run-01",
      "SeriesNumber": 8,
      "SeriesTime": "092037.765000",
      "SliceLocation": -68.307462997709,
      "SliceThickness": 2.4000000953674,
      "SmallestImagePixelValue": 0,
      "SoftwareVersions": "syngo MR E11",
      "SpacingBetweenSlices": 2.3999999131864,
      "SpecificCharacterSet": "ISO_IR 100",
      "StudyID": "1",
      "StudyTime": "084626.370000",
      "TransmitCoilName": "Body",
      "VariableFlipAngleFlag": "N",
      "WindowCenterWidthExplanation": "Algo1",
      "dBdt": 0.0},
    "slices": {}
  },
  "time": {
    "samples": {
      "AcquisitionNumber": [1, 2, 3, 4, 5, 6, 7, 8, 9, 10, 11, 12, 13, 14, 15, 16, 17, 18, 19, 20, 21, 22, 23, 24, 25, 26, 27, 28, 29, 30, 31, 32, 33, 34, 35, 36, 37, 38, 39, 40, 41, 42, 43, 44, 45, 46, 47, 48, 49, 50, 51, 52, 53, 54, 55, 56, 57, 58, 59, 60, 61, 62, 63, 64, 65, 66, 67, 68, 69, 70, 71, 72, 73, 74, 75, 76, 77, 78, 79, 80, 81, 82, 83, 84, 85, 86, 87, 88, 89, 90, 91, 92, 93, 94, 95, 96, 97, 98, 99, 100, 101, 102, 103, 104, 105, 106, 107, 108, 109, 110, 111, 112, 113, 114, 115, 116, 117, 118, 119, 120, 121, 122, 123, 124, 125, 126, 127, 128, 129, 130, 131, 132, 133, 134, 135, 136, 137, 138, 139, 140, 141, 142, 143, 144, 145, 146, 147, 148, 149, 150, 151, 152, 153, 154, 155, 156, 157, 158, 159, 160, 161, 162, 163, 164, 165, 166, 167, 168, 169, 170, 171, 172, 173, 174, 175, 176, 177, 178, 179, 180, 181, 182, 183, 184, 185, 186, 187, 188, 189, 190, 191, 192, 193, 194, 195, 196, 197, 198, 199, 200, 201, 202, 203, 204, 205, 206, 207, 208, 209, 210, 211, 212, 213, 214, 215, 216, 217, 218, 219, 220, 221, 222, 223, 224, 225, 226, 227, 228, 229, 230, 231, 232, 233, 234, 235, 236, 237, 238, 239, 240, 241, 242, 243, 244, 245, 246, 247, 248, 249, 250, 251, 252, 253, 254, 255, 256, 257, 258, 259, 260, 261, 262, 263, 264, 265, 266, 267, 268, 269, 270, 271, 272, 273, 274, 275, 276, 277, 278, 279, 280, 281, 282, 283, 284, 285, 286, 287, 288, 289, 290, 291, 292, 293, 294, 295, 296, 297, 298, 299, 300, 301, 302, 303, 304, 305, 306, 307, 308, 309, 310, 311, 312, 313, 314, 315, 316, 317, 318, 319, 320, 321, 322, 323, 324, 325, 326, 327, 328, 329, 330, 331, 332, 333, 334, 335, 336, 337, 338, 339, 340, 341, 342, 343, 344, 345, 346, 347, 348, 349, 350, 351, 352, 353, 354, 355, 356, 357, 358, 359, 360, 361, 362, 363, 364, 365, 366, 367, 368, 369, 370, 371, 372, 373, 374, 375, 376, 377, 378, 379, 380, 381, 382, 383, 384, 385, 386, 387, 388, 389, 390, 391, 392],
      "AcquisitionTime": ["092012.927500", "092014.127500", "092015.327500", "092016.527500", "092017.727500", "092018.927500", "092020.127500", "092021.327500", "092022.527500", "092023.727500", "092024.927500", "092026.127500", "092027.327500", "092028.527500", "092029.727500", "092030.927500", "092032.127500", "092033.327500", "092034.527500", "092035.727500", "092036.927500", "092038.127500", "092039.327500", "092040.527500", "092041.727500", "092042.927500", "092044.127500", "092045.327500", "092046.527500", "092047.727500", "092048.927500", "092050.127500", "092051.327500", "092052.527500", "092053.727500", "092054.927500", "092056.127500", "092057.327500", "092058.527500", "092059.727500", "092100.927500", "092102.127500", "092103.327500", "092104.527500", "092105.727500", "092106.927500", "092108.127500", "092109.327500", "092110.527500", "092111.727500", "092112.927500", "092114.127500", "092115.327500", "092116.527500", "092117.727500", "092118.927500", "092120.127500", "092121.327500", "092122.527500", "092123.727500", "092124.927500", "092126.127500", "092127.327500", "092128.527500", "092129.727500", "092130.927500", "092132.127500", "092133.327500", "092134.527500", "092135.727500", "092136.927500", "092138.127500", "092139.327500", "092140.527500", "092141.727500", "092142.927500", "092144.127500", "092145.327500", "092146.527500", "092147.727500", "092148.927500", "092150.127500", "092151.327500", "092152.527500", "092153.727500", "092154.927500", "092156.127500", "092157.327500", "092158.527500", "092159.727500", "092200.927500", "092202.127500", "092203.327500", "092204.527500", "092205.727500", "092206.927500", "092208.127500", "092209.327500", "092210.527500", "092211.727500", "092212.927500", "092214.127500", "092215.327500", "092216.527500", "092217.727500", "092218.927500", "092220.127500", "092221.327500", "092222.527500", "092223.727500", "092224.927500", "092226.127500", "092227.327500", "092228.527500", "092229.727500", "092230.927500", "092232.127500", "092233.327500", "092234.527500", "092235.727500", "092236.927500", "092238.127500", "092239.327500", "092240.527500", "092241.727500", "092242.927500", "092244.127500", "092245.327500", "092246.527500", "092247.727500", "092248.927500", "092250.127500", "092251.327500", "092252.527500", "092253.727500", "092254.927500", "092256.127500", "092257.327500", "092258.527500", "092259.727500", "092300.927500", "092302.127500", "092303.327500", "092304.527500", "092305.727500", "092306.927500", "092308.127500", "092309.327500", "092310.527500", "092311.727500", "092312.927500", "092314.127500", "092315.327500", "092316.527500", "092317.727500", "092318.927500", "092320.127500", "092321.327500", "092322.527500", "092323.727500", "092324.927500", "092326.127500", "092327.327500", "092328.527500", "092329.727500", "092330.927500", "092332.127500", "092333.327500", "092334.527500", "092335.727500", "092336.927500", "092338.127500", "092339.327500", "092340.527500", "092341.727500", "092342.927500", "092344.127500", "092345.327500", "092346.527500", "092347.727500", "092348.927500", "092350.127500", "092351.327500", "092352.527500", "092353.727500", "092354.927500", "092356.127500", "092357.327500", "092358.527500", "092359.727500", "092400.927500", "092402.127500", "092403.327500", "092404.527500", "092405.727500", "092406.927500", "092408.127500", "092409.327500", "092410.527500", "092411.727500", "092412.927500", "092414.127500", "092415.327500", "092416.527500", "092417.727500", "092418.927500", "092420.127500", "092421.327500", "092422.527500", "092423.727500", "092424.927500", "092426.127500", "092427.327500", "092428.527500", "092429.727500", "092430.927500", "092432.127500", "092433.327500", "092434.527500", "092435.727500", "092436.927500", "092438.127500", "092439.327500", "092440.527500", "092441.727500", "092442.927500", "092444.127500", "092445.327500", "092446.527500", "092447.727500", "092448.927500", "092450.127500", "092451.327500", "092452.527500", "092453.727500", "092454.927500", "092456.127500", "092457.327500", "092458.527500", "092459.727500", "092500.927500", "092502.127500", "092503.327500", "092504.527500", "092505.727500", "092506.927500", "092508.127500", "092509.327500", "092510.527500", "092511.727500", "092512.927500", "092514.127500", "092515.327500", "092516.527500", "092517.727500", "092518.927500", "092520.127500", "092521.327500", "092522.527500", "092523.727500", "092524.927500", "092526.127500", "092527.327500", "092528.527500", "092529.727500", "092530.927500", "092532.127500", "092533.327500", "092534.527500", "092535.727500", "092536.927500", "092538.127500", "092539.327500", "092540.527500", "092541.727500", "092542.927500", "092544.127500", "092545.327500", "092546.527500", "092547.727500", "092548.927500", "092550.127500", "092551.327500", "092552.527500", "092553.727500", "092554.927500", "092556.127500", "092557.327500", "092558.527500", "092559.727500", "092600.927500", "092602.127500", "092603.327500", "092604.527500", "092605.727500", "092606.927500", "092608.127500", "092609.327500", "092610.527500", "092611.727500", "092612.927500", "092614.127500", "092615.327500", "092616.527500", "092617.727500", "092618.927500", "092620.127500", "092621.327500", "092622.527500", "092623.727500", "092624.927500", "092626.127500", "092627.327500", "092628.527500", "092629.727500", "092630.927500", "092632.127500", "092633.327500", "092634.527500", "092635.727500", "092636.927500", "092638.127500", "092639.327500", "092640.527500", "092641.727500", "092642.927500", "092644.127500", "092645.327500", "092646.527500", "092647.727500", "092648.927500", "092650.127500", "092651.327500", "092652.527500", "092653.727500", "092654.927500", "092656.127500", "092657.327500", "092658.527500", "092659.727500", "092700.927500", "092702.127500", "092703.327500", "092704.527500", "092705.727500", "092706.927500", "092708.127500", "092709.327500", "092710.527500", "092711.727500", "092712.927500", "092714.127500", "092715.327500", "092716.527500", "092717.727500", "092718.927500", "092720.127500", "092721.327500", "092722.527500", "092723.727500", "092724.927500", "092726.127500", "092727.327500", "092728.527500", "092729.727500", "092730.927500", "092732.127500", "092733.327500", "092734.527500", "092735.727500", "092736.927500", "092738.127500", "092739.327500", "092740.527500", "092741.727500", "092742.927500", "092744.127500", "092745.327500", "092746.527500", "092747.727500", "092748.927500", "092750.127500", "092751.327500", "092752.527500", "092753.727500", "092754.927500", "092756.127500", "092757.327500", "092758.527500", "092759.727500", "092800.927500", "092802.127500"],
      "ContentTime": ["092037.769000", "092037.772000", "092037.775000", "092037.777000", "092037.780000", "092037.783000", "092037.785000", "092037.788000", "092037.790000", "092037.793000", "092037.795000", "092037.798000", "092037.801000", "092037.808000", "092037.811000", "092037.813000", "092037.816000", "092037.819000", "092037.822000", "092037.824000", "092117.764000", "092117.767000", "092117.770000", "092117.773000", "092117.775000", "092117.778000", "092117.781000", "092117.783000", "092117.786000", "092117.788000", "092117.791000", "092117.794000", "092117.797000", "092117.799000", "092117.802000", "092117.805000", "092117.807000", "092117.810000", "092117.812000", "092117.815000", "092117.818000", "092117.820000", "092117.823000", "092117.825000", "092117.828000", "092117.831000", "092117.833000", "092117.836000", "092117.838000", "092117.841000", "092117.844000", "092117.846000", "092117.849000", "092157.765000", "092157.768000", "092157.771000", "092157.773000", "092157.776000", "092157.779000", "092157.781000", "092157.784000", "092157.786000", "092157.789000", "092157.791000", "092157.794000", "092157.797000", "092157.799000", "092157.802000", "092157.804000", "092157.807000", "092157.810000", "092157.812000", "092157.815000", "092157.817000", "092157.820000", "092157.822000", "092157.825000", "092157.828000", "092157.830000", "092157.833000", "092157.835000", "092157.838000", "092157.841000", "092157.843000", "092157.846000", "092157.848000", "092237.764000", "092237.771000", "092237.774000", "092237.777000", "092237.779000", "092237.782000", "092237.784000", "092237.787000", "092237.790000", "092237.792000", "092237.795000", "092237.797000", "092237.800000", "092237.802000", "092237.805000", "092237.808000", "092237.810000", "092237.813000", "092237.831000", "092237.833000", "092237.836000", "092237.839000", "092237.847000", "092237.849000", "092237.852000", "092237.854000", "092237.857000", "092237.860000", "092237.862000", "092237.865000", "092237.867000", "092237.870000", "092237.873000", "092237.875000", "092317.764000", "092317.767000", "092317.770000", "092317.772000", "092317.775000", "092317.778000", "092317.780000", "092317.783000", "092317.786000", "092317.788000", "092317.791000", "092317.795000", "092317.797000", "092317.800000", "092317.802000", "092317.805000", "092317.808000", "092317.810000", "092317.813000", "092317.815000", "092317.818000", "092317.820000", "092317.823000", "092317.826000", "092317.828000", "092317.831000", "092317.833000", "092317.836000", "092317.838000", "092317.841000", "092317.844000", "092317.846000", "092317.849000", "092357.765000", "092357.768000", "092357.771000", "092357.774000", "092357.776000", "092357.779000", "092357.781000", "092357.784000", "092357.787000", "092357.789000", "092357.792000", "092357.795000", "092357.797000", "092357.800000", "092357.802000", "092357.805000", "092357.807000", "092357.810000", "092357.813000", "092357.816000", "092357.818000", "092357.821000", "092357.823000", "092357.826000", "092357.829000", "092357.831000", "092357.834000", "092357.836000", "092357.839000", "092357.842000", "092357.844000", "092357.847000", "092357.850000", "092437.764000", "092437.767000", "092437.770000", "092437.773000", "092437.775000", "092437.778000", "092437.781000", "092437.783000", "092437.786000", "092437.789000", "092437.791000", "092437.794000", "092437.796000", "092437.799000", "092437.802000", "092437.804000", "092437.807000", "092437.809000", "092437.812000", "092437.815000", "092437.817000", "092437.820000", "092437.822000", "092437.825000", "092437.827000", "092437.830000", "092437.833000", "092437.835000", "092437.838000", "092437.841000", "092437.843000", "092437.846000", "092437.848000", "092437.851000", "092517.765000", "092517.767000", "092517.770000", "092517.773000", "092517.775000", "092517.778000", "092517.781000", "092517.783000", "092517.786000", "092517.788000", "092517.791000", "092517.794000", "092517.797000", "092517.800000", "092517.802000", "092517.805000", "092517.807000", "092517.810000", "092517.813000", "092517.815000", "092517.818000", "092517.820000", "092517.823000", "092517.825000", "092517.828000", "092517.831000", "092517.833000", "092517.836000", "092517.847000", "092517.850000", "092517.853000", "092517.855000", "092517.858000", "092557.765000", "092557.768000", "092557.771000", "092557.774000", "092557.776000", "092557.779000", "092557.782000", "092557.784000", "092557.787000", "092557.789000", "092557.792000", "092557.795000", "092557.797000", "092557.800000", "092557.802000", "092557.805000", "092557.808000", "092557.810000", "092557.813000", "092557.815000", "092557.818000", "092557.821000", "092557.824000", "092557.826000", "092557.829000", "092557.831000", "092557.834000", "092557.836000", "092557.839000", "092557.842000", "092557.844000", "092557.847000", "092557.850000", "092637.764000", "092637.767000", "092637.770000", "092637.773000", "092637.775000", "092637.778000", "092637.780000", "092637.783000", "092637.786000", "092637.788000", "092637.791000", "092637.793000", "092637.796000", "092637.799000", "092637.801000", "092637.820000", "092637.822000", "092637.825000", "092637.827000", "092637.830000", "092637.833000", "092637.836000", "092637.838000", "092637.841000", "092637.843000", "092637.846000", "092637.848000", "092637.851000", "092637.854000", "092637.856000", "092637.859000", "092637.862000", "092637.864000", "092637.867000", "092717.765000", "092717.768000", "092717.770000", "092717.773000", "092717.775000", "092717.778000", "092717.781000", "092717.783000", "092717.786000", "092717.789000", "092717.792000", "092717.795000", "092717.798000", "092717.800000", "092717.803000", "092717.805000", "092717.808000", "092717.811000", "092717.813000", "092717.816000", "092717.819000", "092717.821000", "092717.824000", "092717.826000", "092717.829000", "092717.831000", "092717.834000", "092717.837000", "092717.839000", "092717.842000", "092717.845000", "092717.847000", "092717.850000", "092757.764000", "092757.767000", "092757.770000", "092757.773000", "092757.776000", "092757.779000", "092757.781000", "092757.784000", "092757.787000", "092757.789000", "092757.792000", "092757.795000", "092757.797000", "092757.800000", "092757.803000", "092757.805000", "092757.808000", "092757.810000", "092757.813000", "092757.815000", "092757.818000", "092757.821000", "092757.823000", "092757.826000", "092757.828000", "092757.831000", "092757.833000", "092757.836000", "092757.839000", "092757.841000", "092757.844000", "092757.846000", "092757.849000", "092803.812000", "092803.815000", "092803.818000", "092803.821000", "092803.823000", "092803.826000"],
      "InstanceCreationTime": ["092037.769000", "092037.772000", "092037.775000", "092037.777000", "092037.780000", "092037.783000", "092037.785000", "092037.788000", "092037.790000", "092037.793000", "092037.795000", "092037.798000", "092037.801000", "092037.808000", "092037.811000", "092037.813000", "092037.816000", "092037.819000", "092037.822000", "092037.824000", "092117.764000", "092117.767000", "092117.770000", "092117.773000", "092117.775000", "092117.778000", "092117.781000", "092117.783000", "092117.786000", "092117.788000", "092117.791000", "092117.794000", "092117.797000", "092117.799000", "092117.802000", "092117.805000", "092117.807000", "092117.810000", "092117.812000", "092117.815000", "092117.818000", "092117.820000", "092117.823000", "092117.825000", "092117.828000", "092117.831000", "092117.833000", "092117.836000", "092117.838000", "092117.841000", "092117.844000", "092117.846000", "092117.849000", "092157.765000", "092157.768000", "092157.771000", "092157.773000", "092157.776000", "092157.779000", "092157.781000", "092157.784000", "092157.786000", "092157.789000", "092157.791000", "092157.794000", "092157.797000", "092157.799000", "092157.802000", "092157.804000", "092157.807000", "092157.810000", "092157.812000", "092157.815000", "092157.817000", "092157.820000", "092157.822000", "092157.825000", "092157.828000", "092157.830000", "092157.833000", "092157.835000", "092157.838000", "092157.841000", "092157.843000", "092157.846000", "092157.848000", "092237.764000", "092237.771000", "092237.774000", "092237.777000", "092237.779000", "092237.782000", "092237.784000", "092237.787000", "092237.790000", "092237.792000", "092237.795000", "092237.797000", "092237.800000", "092237.802000", "092237.805000", "092237.808000", "092237.810000", "092237.813000", "092237.831000", "092237.833000", "092237.836000", "092237.839000", "092237.847000", "092237.849000", "092237.852000", "092237.854000", "092237.857000", "092237.860000", "092237.862000", "092237.865000", "092237.867000", "092237.870000", "092237.873000", "092237.875000", "092317.764000", "092317.767000", "092317.770000", "092317.772000", "092317.775000", "092317.778000", "092317.780000", "092317.783000", "092317.786000", "092317.788000", "092317.791000", "092317.795000", "092317.797000", "092317.800000", "092317.802000", "092317.805000", "092317.808000", "092317.810000", "092317.813000", "092317.815000", "092317.818000", "092317.820000", "092317.823000", "092317.826000", "092317.828000", "092317.831000", "092317.833000", "092317.836000", "092317.838000", "092317.841000", "092317.844000", "092317.846000", "092317.849000", "092357.765000", "092357.768000", "092357.771000", "092357.774000", "092357.776000", "092357.779000", "092357.781000", "092357.784000", "092357.787000", "092357.789000", "092357.792000", "092357.795000", "092357.797000", "092357.800000", "092357.802000", "092357.805000", "092357.807000", "092357.810000", "092357.813000", "092357.816000", "092357.818000", "092357.821000", "092357.823000", "092357.826000", "092357.829000", "092357.831000", "092357.834000", "092357.836000", "092357.839000", "092357.842000", "092357.844000", "092357.847000", "092357.850000", "092437.764000", "092437.767000", "092437.770000", "092437.773000", "092437.775000", "092437.778000", "092437.781000", "092437.783000", "092437.786000", "092437.789000", "092437.791000", "092437.794000", "092437.796000", "092437.799000", "092437.802000", "092437.804000", "092437.807000", "092437.809000", "092437.812000", "092437.815000", "092437.817000", "092437.820000", "092437.822000", "092437.825000", "092437.827000", "092437.830000", "092437.833000", "092437.835000", "092437.838000", "092437.841000", "092437.843000", "092437.846000", "092437.848000", "092437.851000", "092517.765000", "092517.767000", "092517.770000", "092517.773000", "092517.775000", "092517.778000", "092517.781000", "092517.783000", "092517.786000", "092517.788000", "092517.791000", "092517.794000", "092517.797000", "092517.800000", "092517.802000", "092517.805000", "092517.807000", "092517.810000", "092517.813000", "092517.815000", "092517.818000", "092517.820000", "092517.823000", "092517.825000", "092517.828000", "092517.831000", "092517.833000", "092517.836000", "092517.847000", "092517.850000", "092517.853000", "092517.855000", "092517.858000", "092557.765000", "092557.768000", "092557.771000", "092557.774000", "092557.776000", "092557.779000", "092557.782000", "092557.784000", "092557.787000", "092557.789000", "092557.792000", "092557.795000", "092557.797000", "092557.800000", "092557.802000", "092557.805000", "092557.808000", "092557.810000", "092557.813000", "092557.815000", "092557.818000", "092557.821000", "092557.824000", "092557.826000", "092557.829000", "092557.831000", "092557.834000", "092557.836000", "092557.839000", "092557.842000", "092557.844000", "092557.847000", "092557.850000", "092637.764000", "092637.767000", "092637.770000", "092637.773000", "092637.775000", "092637.778000", "092637.780000", "092637.783000", "092637.786000", "092637.788000", "092637.791000", "092637.793000", "092637.796000", "092637.799000", "092637.801000", "092637.820000", "092637.822000", "092637.825000", "092637.827000", "092637.830000", "092637.833000", "092637.836000", "092637.838000", "092637.841000", "092637.843000", "092637.846000", "092637.848000", "092637.851000", "092637.854000", "092637.856000", "092637.859000", "092637.862000", "092637.864000", "092637.867000", "092717.765000", "092717.768000", "092717.770000", "092717.773000", "092717.775000", "092717.778000", "092717.781000", "092717.783000", "092717.786000", "092717.789000", "092717.792000", "092717.795000", "092717.798000", "092717.800000", "092717.803000", "092717.805000", "092717.808000", "092717.811000", "092717.813000", "092717.816000", "092717.819000", "092717.821000", "092717.824000", "092717.826000", "092717.829000", "092717.831000", "092717.834000", "092717.837000", "092717.839000", "092717.842000", "092717.845000", "092717.847000", "092717.850000", "092757.764000", "092757.767000", "092757.770000", "092757.773000", "092757.776000", "092757.779000", "092757.781000", "092757.784000", "092757.787000", "092757.789000", "092757.792000", "092757.795000", "092757.797000", "092757.800000", "092757.803000", "092757.805000", "092757.808000", "092757.810000", "092757.813000", "092757.815000", "092757.818000", "092757.821000", "092757.823000", "092757.826000", "092757.828000", "092757.831000", "092757.833000", "092757.836000", "092757.839000", "092757.841000", "092757.844000", "092757.846000", "092757.849000", "092803.812000", "092803.815000", "092803.818000", "092803.821000", "092803.823000", "092803.826000"],
      "InstanceNumber": [1, 2, 3, 4, 5, 6, 7, 8, 9, 10, 11, 12, 13, 14, 15, 16, 17, 18, 19, 20, 21, 22, 23, 24, 25, 26, 27, 28, 29, 30, 31, 32, 33, 34, 35, 36, 37, 38, 39, 40, 41, 42, 43, 44, 45, 46, 47, 48, 49, 50, 51, 52, 53, 54, 55, 56, 57, 58, 59, 60, 61, 62, 63, 64, 65, 66, 67, 68, 69, 70, 71, 72, 73, 74, 75, 76, 77, 78, 79, 80, 81, 82, 83, 84, 85, 86, 87, 88, 89, 90, 91, 92, 93, 94, 95, 96, 97, 98, 99, 100, 101, 102, 103, 104, 105, 106, 107, 108, 109, 110, 111, 112, 113, 114, 115, 116, 117, 118, 119, 120, 121, 122, 123, 124, 125, 126, 127, 128, 129, 130, 131, 132, 133, 134, 135, 136, 137, 138, 139, 140, 141, 142, 143, 144, 145, 146, 147, 148, 149, 150, 151, 152, 153, 154, 155, 156, 157, 158, 159, 160, 161, 162, 163, 164, 165, 166, 167, 168, 169, 170, 171, 172, 173, 174, 175, 176, 177, 178, 179, 180, 181, 182, 183, 184, 185, 186, 187, 188, 189, 190, 191, 192, 193, 194, 195, 196, 197, 198, 199, 200, 201, 202, 203, 204, 205, 206, 207, 208, 209, 210, 211, 212, 213, 214, 215, 216, 217, 218, 219, 220, 221, 222, 223, 224, 225, 226, 227, 228, 229, 230, 231, 232, 233, 234, 235, 236, 237, 238, 239, 240, 241, 242, 243, 244, 245, 246, 247, 248, 249, 250, 251, 252, 253, 254, 255, 256, 257, 258, 259, 260, 261, 262, 263, 264, 265, 266, 267, 268, 269, 270, 271, 272, 273, 274, 275, 276, 277, 278, 279, 280, 281, 282, 283, 284, 285, 286, 287, 288, 289, 290, 291, 292, 293, 294, 295, 296, 297, 298, 299, 300, 301, 302, 303, 304, 305, 306, 307, 308, 309, 310, 311, 312, 313, 314, 315, 316, 317, 318, 319, 320, 321, 322, 323, 324, 325, 326, 327, 328, 329, 330, 331, 332, 333, 334, 335, 336, 337, 338, 339, 340, 341, 342, 343, 344, 345, 346, 347, 348, 349, 350, 351, 352, 353, 354, 355, 356, 357, 358, 359, 360, 361, 362, 363, 364, 365, 366, 367, 368, 369, 370, 371, 372, 373, 374, 375, 376, 377, 378, 379, 380, 381, 382, 383, 384, 385, 386, 387, 388, 389, 390, 391, 392],
