{
  "AcquisitionMatrixPE": 88,
  "AcquisitionNumber": 1,
  "AcquisitionTime": "10:04:24.400000",
  "BandwidthPerPixelPhaseEncode": 19.592,
  "BaseResolution": 88,
  "BodyPartExamined": "BRAIN",
  "ConsistencyInfo": "N4_VE11C_LATEST_20160120",
  "ConversionSoftware": "dcm2niix",
  "ConversionSoftwareVersion": "v1.0.20190902",
  "DerivedVendorReportedEchoSpacing": 0.000580014,
  "DeviceSerialNumber": "67050",
  "DwellTime": 2.6e-06,
  "EchoTime": 0.033,
  "EchoTrainLength": 88,
  "EffectiveEchoSpacing": 0.000580014,
  "FlipAngle": 62,
  "ImageOrientationPatientDICOM": [0.990156, 0.0584972, 0.127156, -0.029906, 0.975916, -0.216086],
  "ImageType": [
    "ORIGINAL",
    "PRIMARY",
    "M",
    "ND",
    "MOSAIC"
],
  "ImagingFrequency": 123.251,
  "InPlanePhaseEncodingDirectionDICOM": "COL",
  "InstitutionAddress": "Olive_Street_60_Providence_RI_US_02912",
  "InstitutionName": "BROWN_UNIVERSITY_MRF",
  "InstitutionalDepartmentName": "Department",
  "MRAcquisitionType": "2D",
  "MagneticFieldStrength": 3,
  "Manufacturer": "Siemens",
  "ManufacturersModelName": "Prisma_fit",
  "Modality": "MR",
  "MultibandAccelerationFactor": 4,
  "PartialFourier": 1,
  "PatientPosition": "HFS",
  "PercentPhaseFOV": 100,
  "PhaseEncodingDirection": "j-",
  "PhaseEncodingSteps": 88,
  "PhaseResolution": 1,
  "PixelBandwidth": 2185,
  "ProcedureStepDescription": "ASHENHAV_1222",
  "ProtocolName": "func-bold_task-RDMmotion_run-05",
  "PulseSequenceDetails": "%SiemensSeq%_ep2d_bold",
  "ReceiveCoilActiveElements": "HC1-7;NC1",
  "ReceiveCoilName": "HeadNeck_64",
  "ReconMatrixPE": 88,
  "RefLinesPE": 8,
  "RepetitionTime": 1.2,
  "SAR": 0.0500856,
  "ScanOptions": "FS",
  "ScanningSequence": "EP",
  "SequenceName": "_epfid2d1_88",
  "SequenceVariant": "SK",
  "SeriesDescription": "func-bold_task-RDMmotion_run-05",
  "SeriesNumber": 15,
  "ShimSetting": [1784, -9082, 4397, 354, -52, -216, -82, 34],
  "SliceThickness": 2.4,
  "SliceTiming": [0.5525, 0, 0.63, 0.08, 0.71, 0.1575, 0.7875, 0.2375, 0.8675, 0.315, 0.945, 0.395, 1.0225, 0.4725, 1.1025, 0.5525, 0, 0.63, 0.08, 0.71, 0.1575, 0.7875, 0.2375, 0.8675, 0.315, 0.945, 0.395, 1.0225, 0.4725, 1.1025, 0.5525, 0, 0.63, 0.08, 0.71, 0.1575, 0.7875, 0.2375, 0.8675, 0.315, 0.945, 0.395, 1.0225, 0.4725, 1.1025, 0.5525, 0, 0.63, 0.08, 0.71, 0.1575, 0.7875, 0.2375, 0.8675, 0.315, 0.945, 0.395, 1.0225, 0.4725, 1.1025],
  "SoftwareVersions": "syngo_MR_E11",
  "SpacingBetweenSlices": 2.4,
  "StationName": "AWP67050",
  "TaskName": "RDMmotion",
  "TotalReadoutTime": 0.0504612,
  "TxRefAmp": 237.486,
  "dcmmeta_affine": [
    [-2.374124526977539, -0.07170654833316803, 0.3281621038913727, 103.75586700439453],
    [-0.14026035368442535, 2.3399808406829834, -0.5043755769729614, -73.49224853515625],
    [0.3048858344554901, 0.5181160569190979, 2.323341131210327, -101.17082214355469],
    [0.0, 0.0, 0.0, 1.0]
],
  "dcmmeta_reorient_transform": [
    [0.0, -1.0, 0.0, 87.0],
    [1.0, 0.0, 0.0, 0.0],
    [0.0, 0.0, 1.0, 0.0],
    [0.0, 0.0, 0.0, 1.0]
],
  "dcmmeta_shape": [88, 88, 60, 125],
  "dcmmeta_slice_dim": 2,
  "dcmmeta_version": 0.6,
  "global": {
    "const": {
      "AcquisitionMatrix": [88, 0, 0, 88],
      "AngioFlag": "N",
      "BitsAllocated": 16,
      "BitsStored": 12,
      "BodyPartExamined": "BRAIN",
      "Columns": 704,
      "DeidentificationMethodCodeSequence": [
        {
          "CodeMeaning": "XNAT DicomEdit 6 Script",
          "CodeValue": "3",
          "CodingSchemeDesignator": "XNAT",
          "CodingSchemeVersion": "1.0"}
],
      "EchoNumbers": 1,
      "EchoTime": 33.0,
      "EchoTrainLength": 88,
      "FlipAngle": 62.0,
      "HighBit": 11,
      "ImageOrientationPatient": [0.99015624180712, 0.05849721020437, 0.12715617644734, -0.0299060486995, 0.9759161475964, -0.216086327915],
      "ImagePositionPatient": [-806.66215490714, -894.00033713072, 9.5801947432128],
      "ImageType": [
        "ORIGINAL",
        "PRIMARY",
        "M",
        "ND",
        "MOSAIC"
],
      "ImagedNucleus": "1H",
      "ImagingFrequency": 123.250687,
      "InPlanePhaseEncodingDirection": "COL",
      "MRAcquisitionType": "2D",
      "MagneticFieldStrength": 3.0,
      "Manufacturer": "SIEMENS",
      "ManufacturerModelName": "Prisma_fit",
      "Modality": "MR",
      "NumberOfAverages": 1.0,
      "NumberOfPhaseEncodingSteps": 88,
      "PercentPhaseFieldOfView": 100.0,
      "PercentSampling": 100.0,
      "PerformedProcedureStepStartTime": "084626.598000",
      "PhotometricInterpretation": "MONOCHROME2",
      "PixelBandwidth": 2185.0,
      "PixelRepresentation": 0,
      "PixelSpacing": [2.3977272510529, 2.3977272510529],
      "ProtocolName": "func-bold_task-RDMmotion_run-05",
      "RepetitionTime": 1200.0,
      "Rows": 704,
      "SAR": 0.05008557343571,
      "SamplesPerPixel": 1,
      "ScanOptions": "FS",
      "ScanningSequence": "EP",
      "SequenceName": "*epfid2d1_88",
      "SequenceVariant": "SK",
      "SeriesDescription": "func-bold_task-RDMmotion_run-05",
      "SeriesNumber": 15,
      "SeriesTime": "100451.917000",
      "SliceLocation": -68.307462997709,
      "SliceThickness": 2.4000000953674,
      "SmallestImagePixelValue": 0,
      "SoftwareVersions": "syngo MR E11",
      "SpacingBetweenSlices": 2.3999999131864,
      "SpecificCharacterSet": "ISO_IR 100",
      "StudyID": "1",
      "StudyTime": "084626.370000",
      "TransmitCoilName": "Body",
      "VariableFlipAngleFlag": "N",
      "WindowCenterWidthExplanation": "Algo1",
      "dBdt": 0.0},
    "slices": {}
  },
  "time": {
    "samples": {
      "AcquisitionNumber": [1, 2, 3, 4, 5, 6, 7, 8, 9, 10, 11, 12, 13, 14, 15, 16, 17, 18, 19, 20, 21, 22, 23, 24, 25, 26, 27, 28, 29, 30, 31, 32, 33, 34, 35, 36, 37, 38, 39, 40, 41, 42, 43, 44, 45, 46, 47, 48, 49, 50, 51, 52, 53, 54, 55, 56, 57, 58, 59, 60, 61, 62, 63, 64, 65, 66, 67, 68, 69, 70, 71, 72, 73, 74, 75, 76, 77, 78, 79, 80, 81, 82, 83, 84, 85, 86, 87, 88, 89, 90, 91, 92, 93, 94, 95, 96, 97, 98, 99, 100, 101, 102, 103, 104, 105, 106, 107, 108, 109, 110, 111, 112, 113, 114, 115, 116, 117, 118, 119, 120, 121, 122, 123, 124, 125],
      "AcquisitionTime": ["100424.400000", "100425.600000", "100426.800000", "100428.000000", "100429.200000", "100430.400000", "100431.600000", "100432.800000", "100434.000000", "100435.200000", "100436.400000", "100437.600000", "100438.800000", "100440.000000", "100441.200000", "100442.400000", "100443.600000", "100444.800000", "100446.000000", "100447.200000", "100448.400000", "100449.600000", "100450.800000", "100452.000000", "100453.200000", "100454.400000", "100455.600000", "100456.800000", "100458.000000", "100459.200000", "100500.400000", "100501.600000", "100502.800000", "100504.000000", "100505.200000", "100506.400000", "100507.600000", "100508.800000", "100510.000000", "100511.200000", "100512.400000", "100513.600000", "100514.800000", "100516.000000", "100517.200000", "100518.400000", "100519.600000", "100520.800000", "100522.000000", "100523.200000", "100524.400000", "100525.600000", "100526.800000", "100528.000000", "100529.200000", "100530.400000", "100531.600000", "100532.800000", "100534.000000", "100535.200000", "100536.400000", "100537.600000", "100538.800000", "100540.000000", "100541.200000", "100542.400000", "100543.600000", "100544.800000", "100546.000000", "100547.200000", "100548.400000", "100549.600000", "100550.800000", "100552.000000", "100553.200000", "100554.400000", "100555.600000", "100556.800000", "100558.000000", "100559.200000", "100600.400000", "100601.600000", "100602.800000", "100604.000000", "100605.200000", "100606.400000", "100607.600000", "100608.800000", "100610.000000", "100611.200000", "100612.400000", "100613.600000", "100614.800000", "100616.000000", "100617.200000", "100618.400000", "100619.600000", "100620.800000", "100622.000000", "100623.200000", "100624.400000", "100625.600000", "100626.800000", "100628.000000", "100629.200000", "100630.400000", "100631.600000", "100632.800000", "100634.000000", "100635.200000", "100636.400000", "100637.600000", "100638.800000", "100640.000000", "100641.200000", "100642.400000", "100643.600000", "100644.800000", "100646.000000", "100647.200000", "100648.400000", "100649.600000", "100650.800000", "100652.000000", "100653.200000"],
      "ContentTime": ["100451.920000", "100451.923000", "100451.926000", "100451.929000", "100451.931000", "100451.934000", "100451.937000", "100451.939000", "100451.949000", "100451.951000", "100451.954000", "100451.957000", "100451.959000", "100451.962000", "100451.965000", "100451.970000", "100451.973000", "100451.976000", "100451.978000", "100451.981000", "100451.983000", "100451.986000", "100531.915000", "100531.918000", "100531.920000", "100531.923000", "100531.925000", "100531.929000", "100531.932000", "100531.935000", "100531.937000", "100531.940000", "100531.942000", "100531.952000", "100531.954000", "100531.957000", "100531.960000", "100531.962000", "100531.965000", "100531.968000", "100531.970000", "100531.973000", "100531.975000", "100531.978000", "100531.981000", "100531.983000", "100531.986000", "100531.989000", "100531.991000", "100531.994000", "100531.996000", "100532.000000", "100532.003000", "100532.005000", "100532.008000", "100611.915000", "100611.918000", "100611.921000", "100611.923000", "100611.926000", "100611.928000", "100611.931000", "100611.934000", "100611.936000", "100611.939000", "100611.942000", "100611.944000", "100611.947000", "100611.949000", "100611.952000", "100611.954000", "100611.957000", "100611.959000", "100611.962000", "100611.965000", "100611.967000", "100611.970000", "100611.973000", "100611.975000", "100611.978000", "100611.980000", "100611.983000", "100611.986000", "100611.988000", "100611.991000", "100611.993000", "100611.996000", "100611.998000", "100612.001000", "100651.916000", "100651.918000", "100651.922000", "100651.924000", "100651.927000", "100651.929000", "100651.932000", "100651.940000", "100651.943000", "100651.946000", "100651.948000", "100651.951000", "100651.953000", "100651.956000", "100651.959000", "100651.961000", "100651.964000", "100651.967000", "100651.969000", "100651.972000", "100651.974000", "100651.977000", "100651.980000", "100651.982000", "100651.985000", "100651.987000", "100651.990000", "100651.992000", "100651.995000", "100651.998000", "100652.001000", "100652.004000", "100652.007000", "100655.157000", "100655.160000", "100655.163000"],
      "InstanceCreationTime": ["100451.920000", "100451.923000", "100451.926000", "100451.929000", "100451.931000", "100451.934000", "100451.937000", "100451.939000", "100451.949000", "100451.951000", "100451.954000", "100451.957000", "100451.959000", "100451.962000", "100451.965000", "100451.970000", "100451.973000", "100451.976000", "100451.978000", "100451.981000", "100451.983000", "100451.986000", "100531.915000", "100531.918000", "100531.920000", "100531.923000", "100531.925000", "100531.929000", "100531.932000", "100531.935000", "100531.937000", "100531.940000", "100531.942000", "100531.952000", "100531.954000", "100531.957000", "100531.960000", "100531.962000", "100531.965000", "100531.968000", "100531.970000", "100531.973000", "100531.975000", "100531.978000", "100531.981000", "100531.983000", "100531.986000", "100531.989000", "100531.991000", "100531.994000", "100531.996000", "100532.000000", "100532.003000", "100532.005000", "100532.008000", "100611.915000", "100611.918000", "100611.921000", "100611.923000", "100611.926000", "100611.928000", "100611.931000", "100611.934000", "100611.936000", "100611.939000", "100611.942000", "100611.944000", "100611.947000", "100611.949000", "100611.952000", "100611.954000", "100611.957000", "100611.959000", "100611.962000", "100611.965000", "100611.967000", "100611.970000", "100611.973000", "100611.975000", "100611.978000", "100611.980000", "100611.983000", "100611.986000", "100611.988000", "100611.991000", "100611.993000", "100611.996000", "100611.998000", "100612.001000", "100651.916000", "100651.918000", "100651.922000", "100651.924000", "100651.927000", "100651.929000", "100651.932000", "100651.940000", "100651.943000", "100651.946000", "100651.948000", "100651.951000", "100651.953000", "100651.956000", "100651.959000", "100651.961000", "100651.964000", "100651.967000", "100651.969000", "100651.972000", "100651.974000", "100651.977000", "100651.980000", "100651.982000", "100651.985000", "100651.987000", "100651.990000", "100651.992000", "100651.995000", "100651.998000", "100652.001000", "100652.004000", "100652.007000", "100655.157000", "100655.160000", "100655.163000"],
      "InstanceNumber": [1, 2, 3, 4, 5, 6, 7, 8, 9, 10, 11, 12, 13, 14, 15, 16, 17, 18, 19, 20, 21, 22, 23, 24, 25, 26, 27, 28, 29, 30, 31, 32, 33, 34, 35, 36, 37, 38, 39, 40, 41, 42, 43, 44, 45, 46, 47, 48, 49, 50, 51, 52, 53, 54, 55, 56, 57, 58, 59, 60, 61, 62, 63, 64, 65, 66, 67, 68, 69, 70, 71, 72, 73, 74, 75, 76, 77, 78, 79, 80, 81, 82, 83, 84, 85, 86, 87, 88, 89, 90, 91, 92, 93, 94, 95, 96, 97, 98, 99, 100, 101, 102, 103, 104, 105, 106, 107, 108, 109, 110, 111, 112, 113, 114, 115, 116, 117, 118, 119, 120, 121, 122, 123, 124, 125],
      "LargestImagePixelValue": [1968, 1895, 1858, 1846, 1845, 1831, 1868, 1857, 1845, 1835, 1857, 1845, 1845, 1860, 1870, 1861, 1867, 1860, 1852, 1847, 1867, 1863, 1859, 1860, 1861, 1870, 1862, 1851, 1849, 1858, 1850, 1850, 1854, 1840, 1862, 1855, 1867, 1857, 1853, 1868, 1850, 1865, 1849, 1831, 1846, 1853, 1836, 1847, 1837, 1848, 1862, 1835, 1850, 1821, 1850, 1855, 1849, 1854, 1870, 1866, 1850, 1863, 1849, 1845, 1852, 1851, 1840, 1843, 1837, 1849, 1830, 1847, 1865, 1850, 1853, 1848, 1850, 1847, 1852, 1831, 1854, 1828, 1837, 1847, 1840, 1856, 1842, 1850, 1847, 1836, 1837, 1841, 1842, 1838, 1837, 1858, 1854, 1839, 1848, 1854, 1826, 1844, 1841, 1845, 1825, 1826, 1838, 1832, 1829, 1822, 1820, 1811, 1815, 1820, 1829, 1834, 1810, 1824, 1811, 1816, 1823, 1754, 1890, 1842, 1787],
      "WindowCenter": [581.0, 579.0, 577.0, 577.0, 577.0, 578.0, 579.0, 578.0, 577.0, 577.0, 575.0, 575.0, 575.0, 574.0, 574.0, 573.0, 574.0, 574.0, 574.0, 574.0, 574.0, 575.0, 575.0, 575.0, 574.0, 575.0, 574.0, 575.0, 574.0, 575.0, 576.0, 576.0, 576.0, 576.0, 575.0, 574.0, 574.0, 573.0, 573.0, 573.0, 574.0, 575.0, 574.0, 575.0, 576.0, 575.0, 575.0, 574.0, 574.0, 575.0, 575.0, 574.0, 575.0, 573.0, 575.0, 576.0, 575.0, 575.0, 574.0, 573.0, 572.0, 572.0, 571.0, 572.0, 572.0, 573.0, 574.0, 575.0, 576.0, 576.0, 576.0, 574.0, 574.0, 572.0, 573.0, 572.0, 572.0, 572.0, 574.0, 574.0, 575.0, 574.0, 574.0, 574.0, 574.0, 573.0, 572.0, 573.0, 573.0, 574.0, 575.0, 576.0, 576.0, 575.0, 574.0, 574.0, 573.0, 572.0, 572.0, 573.0, 572.0, 573.0, 574.0, 574.0, 574.0, 575.0, 575.0, 574.0, 573.0, 573.0, 573.0, 573.0, 574.0, 574.0, 574.0, 573.0, 573.0, 572.0, 572.0, 572.0, 573.0, 564.0, 572.0, 578.0, 575.0],
      "WindowWidth": [1236.0, 1230.0, 1228.0, 1227.0, 1228.0, 1230.0, 1231.0, 1230.0, 1227.0, 1226.0, 1224.0, 1223.0, 1221.0, 1220.0, 1220.0, 1219.0, 1220.0, 1221.0, 1220.0, 1221.0, 1222.0, 1223.0, 1223.0, 1222.0, 1222.0, 1222.0, 1222.0, 1222.0, 1222.0, 1223.0, 1224.0, 1226.0, 1226.0, 1225.0, 1223.0, 1221.0, 1220.0, 1218.0, 1218.0, 1218.0, 1220.0, 1222.0, 1222.0, 1223.0, 1224.0, 1223.0, 1223.0, 1222.0, 1222.0, 1222.0, 1222.0, 1222.0, 1222.0, 1220.0, 1223.0, 1224.0, 1223.0, 1223.0, 1221.0, 1218.0, 1216.0, 1215.0, 1215.0, 1216.0, 1216.0, 1219.0, 1220.0, 1223.0, 1225.0, 1226.0, 1224.0, 1222.0, 1220.0, 1217.0, 1217.0, 1216.0, 1217.0, 1217.0, 1220.0, 1220.0, 1223.0, 1222.0, 1222.0, 1220.0, 1220.0, 1219.0, 1217.0, 1219.0, 1220.0, 1220.0, 1223.0, 1225.0, 1225.0, 1223.0, 1221.0, 1220.0, 1218.0, 1217.0, 1217.0, 1218.0, 1218.0, 1219.0, 1220.0, 1222.0, 1222.0, 1222.0, 1222.0, 1221.0, 1219.0, 1218.0, 1218.0, 1220.0, 1221.0, 1221.0, 1221.0, 1219.0, 1218.0, 1216.0, 1216.0, 1217.0, 1219.0, 1199.0, 1215.0, 1230.0, 1223.0]
    },
    "slices": {}
  }
}