{
  "AcquisitionMatrixPE": 88,
  "AcquisitionNumber": 1,
  "AcquisitionTime": "16:28:2.032500",
  "BandwidthPerPixelPhaseEncode": 19.592,
  "BaseResolution": 88,
  "BodyPartExamined": "BRAIN",
  "ConsistencyInfo": "N4_VE11C_LATEST_20160120",
  "ConversionSoftware": "dcm2niix",
  "ConversionSoftwareVersion": "v1.0.20190902",
  "DerivedVendorReportedEchoSpacing": 0.000580014,
  "DeviceSerialNumber": "67050",
  "DwellTime": 2.6e-06,
  "EchoTime": 0.033,
  "EchoTrainLength": 88,
  "EffectiveEchoSpacing": 0.000580014,
  "FlipAngle": 62,
  "ImageOrientationPatientDICOM": [0.999597, -0.0169675, 0.0227395, 0.0181461, 0.998447, -0.0526698],
  "ImageType": [
    "ORIGINAL",
    "PRIMARY",
    "M",
    "ND",
    "MOSAIC"
],
  "ImagingFrequency": 123.251,
  "InPlanePhaseEncodingDirectionDICOM": "COL",
  "InstitutionAddress": "Olive_Street_60_Providence_RI_US_02912",
  "InstitutionName": "BROWN_UNIVERSITY_MRF",
  "InstitutionalDepartmentName": "Department",
  "MRAcquisitionType": "2D",
  "MagneticFieldStrength": 3,
  "Manufacturer": "Siemens",
  "ManufacturersModelName": "Prisma_fit",
  "Modality": "MR",
  "MultibandAccelerationFactor": 4,
  "PartialFourier": 1,
  "PatientPosition": "HFS",
  "PercentPhaseFOV": 100,
  "PhaseEncodingDirection": "j-",
  "PhaseEncodingSteps": 88,
  "PhaseResolution": 1,
  "PixelBandwidth": 2185,
  "ProcedureStepDescription": "ASHENHAV_1222",
  "ProtocolName": "func-bold_task-RDMmotion_run-01",
  "PulseSequenceDetails": "%SiemensSeq%_ep2d_bold",
  "ReceiveCoilActiveElements": "HC1-7",
  "ReceiveCoilName": "HeadNeck_64",
  "ReconMatrixPE": 88,
  "RefLinesPE": 8,
  "RepetitionTime": 1.2,
  "SAR": 0.0639281,
  "ScanOptions": "FS",
  "ScanningSequence": "EP",
  "SequenceName": "_epfid2d1_88",
  "SequenceVariant": "SK",
  "SeriesDescription": "func-bold_task-RDMmotion_run-01",
  "SeriesNumber": 7,
  "ShimSetting": [1755, -9095, 4424, 486, -83, -65, -86, -12],
  "SliceThickness": 2.4,
  "SliceTiming": [0.55, 0, 0.63, 0.08, 0.7075, 0.1575, 0.7875, 0.2375, 0.865, 0.315, 0.945, 0.395, 1.0225, 0.4725, 1.1025, 0.55, 0, 0.63, 0.08, 0.7075, 0.1575, 0.7875, 0.2375, 0.865, 0.315, 0.945, 0.395, 1.0225, 0.4725, 1.1025, 0.55, 0, 0.63, 0.08, 0.7075, 0.1575, 0.7875, 0.2375, 0.865, 0.315, 0.945, 0.395, 1.0225, 0.4725, 1.1025, 0.55, 0, 0.63, 0.08, 0.7075, 0.1575, 0.7875, 0.2375, 0.865, 0.315, 0.945, 0.395, 1.0225, 0.4725, 1.1025],
  "SoftwareVersions": "syngo_MR_E11",
  "SpacingBetweenSlices": 2.4,
  "StationName": "AWP67050",
  "TaskName": "RDMmotion",
  "TotalReadoutTime": 0.0504612,
  "TxRefAmp": 250.311,
  "dcmmeta_affine": [
    [-2.396761894226074, 0.04350942373275757, 0.05234532058238983, 104.64691162109375],
    [0.040683358907699585, 2.3940038681030273, -0.127346932888031, -89.98493194580078],
    [0.054523203521966934, 0.1262877881526947, 2.396047353744507, -76.7020492553711],
    [0.0, 0.0, 0.0, 1.0]
],
  "dcmmeta_reorient_transform": [
    [0.0, -1.0, 0.0, 87.0],
    [1.0, 0.0, 0.0, 0.0],
    [0.0, 0.0, 1.0, 0.0],
    [0.0, 0.0, 0.0, 1.0]
],
  "dcmmeta_shape": [88, 88, 60, 125],
  "dcmmeta_slice_dim": 2,
  "dcmmeta_version": 0.6,
  "global": {
    "const": {
      "AcquisitionMatrix": [88, 0, 0, 88],
      "AngioFlag": "N",
      "BitsAllocated": 16,
      "BitsStored": 12,
      "BodyPartExamined": "BRAIN",
      "Columns": 704,
      "DeidentificationMethodCodeSequence": [
        {
          "CodeMeaning": "XNAT DicomEdit 6 Script",
          "CodeValue": "3",
          "CodingSchemeDesignator": "XNAT",
          "CodingSchemeVersion": "1.0"}
],
      "EchoNumbers": 1,
      "EchoTime": 33.0,
      "EchoTrainLength": 88,
      "FlipAngle": 62.0,
      "HighBit": 11,
      "ImageOrientationPatient": [0.99959742827093, -0.0169674670896, 0.02273953505933, 0.01814610997047, 0.99844710018445, -0.0526697904514],
      "ImagePositionPatient": [-860.03582705944, -843.11609917729, -43.61151482393],
      "ImageType": [
        "ORIGINAL",
        "PRIMARY",
        "M",
        "ND",
        "MOSAIC"
],
      "ImagedNucleus": "1H",
      "ImagingFrequency": 123.250749,
      "InPlanePhaseEncodingDirection": "COL",
      "MRAcquisitionType": "2D",
      "MagneticFieldStrength": 3.0,
      "Manufacturer": "SIEMENS",
      "ManufacturerModelName": "Prisma_fit",
      "Modality": "MR",
      "NumberOfAverages": 1.0,
      "NumberOfPhaseEncodingSteps": 88,
      "PercentPhaseFieldOfView": 100.0,
      "PercentSampling": 100.0,
      "PerformedProcedureStepStartTime": "162113.275000",
      "PhotometricInterpretation": "MONOCHROME2",
      "PixelBandwidth": 2185.0,
      "PixelRepresentation": 0,
      "PixelSpacing": [2.3977272510529, 2.3977272510529],
      "ProtocolName": "func-bold_task-RDMmotion_run-01",
      "RepetitionTime": 1200.0,
      "Rows": 704,
      "SAR": 0.06392812537158,
      "SamplesPerPixel": 1,
      "ScanOptions": "FS",
      "ScanningSequence": "EP",
      "SequenceName": "*epfid2d1_88",
      "SequenceVariant": "SK",
      "SeriesDescription": "func-bold_task-RDMmotion_run-01",
      "SeriesNumber": 7,
      "SeriesTime": "162834.988000",
      "SliceLocation": -69.518604214194,
      "SliceThickness": 2.4000000953674,
      "SmallestImagePixelValue": 0,
      "SoftwareVersions": "syngo MR E11",
      "SpacingBetweenSlices": 2.3999999880093,
      "SpecificCharacterSet": "ISO_IR 100",
      "StudyID": "1",
      "StudyTime": "162113.200000",
      "TransmitCoilName": "Body",
      "VariableFlipAngleFlag": "N",
      "WindowCenterWidthExplanation": "Algo1",
      "dBdt": 0.0},
    "slices": {}
  },
  "time": {
    "samples": {
      "AcquisitionNumber": [1, 2, 3, 4, 5, 6, 7, 8, 9, 10, 11, 12, 13, 14, 15, 16, 17, 18, 19, 20, 21, 22, 23, 24, 25, 26, 27, 28, 29, 30, 31, 32, 33, 34, 35, 36, 37, 38, 39, 40, 41, 42, 43, 44, 45, 46, 47, 48, 49, 50, 51, 52, 53, 54, 55, 56, 57, 58, 59, 60, 61, 62, 63, 64, 65, 66, 67, 68, 69, 70, 71, 72, 73, 74, 75, 76, 77, 78, 79, 80, 81, 82, 83, 84, 85, 86, 87, 88, 89, 90, 91, 92, 93, 94, 95, 96, 97, 98, 99, 100, 101, 102, 103, 104, 105, 106, 107, 108, 109, 110, 111, 112, 113, 114, 115, 116, 117, 118, 119, 120, 121, 122, 123, 124, 125],
      "AcquisitionTime": ["162802.032500", "162803.232500", "162804.432500", "162805.632500", "162806.832500", "162808.032500", "162809.232500", "162810.432500", "162811.632500", "162812.832500", "162814.032500", "162815.232500", "162816.432500", "162817.632500", "162818.832500", "162820.032500", "162821.232500", "162822.432500", "162823.632500", "162824.832500", "162826.032500", "162827.232500", "162828.432500", "162829.632500", "162830.832500", "162832.032500", "162833.232500", "162834.432500", "162835.632500", "162836.832500", "162838.032500", "162839.232500", "162840.432500", "162841.632500", "162842.832500", "162844.032500", "162845.232500", "162846.432500", "162847.632500", "162848.832500", "162850.032500", "162851.232500", "162852.432500", "162853.632500", "162854.832500", "162856.032500", "162857.232500", "162858.432500", "162859.632500", "162900.832500", "162902.032500", "162903.232500", "162904.432500", "162905.632500", "162906.832500", "162908.032500", "162909.232500", "162910.432500", "162911.632500", "162912.832500", "162914.032500", "162915.232500", "162916.432500", "162917.632500", "162918.832500", "162920.032500", "162921.232500", "162922.432500", "162923.632500", "162924.832500", "162926.032500", "162927.232500", "162928.432500", "162929.632500", "162930.832500", "162932.032500", "162933.232500", "162934.432500", "162935.632500", "162936.832500", "162938.032500", "162939.232500", "162940.432500", "162941.632500", "162942.832500", "162944.032500", "162945.232500", "162946.432500", "162947.632500", "162948.832500", "162950.032500", "162951.232500", "162952.432500", "162953.632500", "162954.832500", "162956.032500", "162957.232500", "162958.432500", "162959.632500", "163000.832500", "163002.032500", "163003.232500", "163004.432500", "163005.632500", "163006.832500", "163008.032500", "163009.232500", "163010.432500", "163011.632500", "163012.832500", "163014.032500", "163015.232500", "163016.432500", "163017.632500", "163018.832500", "163020.032500", "163021.232500", "163022.432500", "163023.632500", "163024.832500", "163026.032500", "163027.232500", "163028.432500", "163029.632500", "163030.832500"],
      "ContentTime": ["162834.991000", "162835.002000", "162835.004000", "162835.007000", "162835.009000", "162835.012000", "162835.015000", "162835.017000", "162835.020000", "162835.023000", "162835.025000", "162835.028000", "162835.030000", "162835.033000", "162835.035000", "162835.038000", "162835.040000", "162835.043000", "162835.045000", "162835.048000", "162835.055000", "162835.058000", "162835.060000", "162835.063000", "162835.065000", "162835.068000", "162835.071000", "162914.986000", "162914.989000", "162914.992000", "162914.994000", "162914.997000", "162915.000000", "162915.003000", "162915.006000", "162915.008000", "162915.011000", "162915.013000", "162915.016000", "162915.019000", "162915.021000", "162915.024000", "162915.026000", "162915.029000", "162915.031000", "162915.034000", "162915.037000", "162915.039000", "162915.042000", "162915.044000", "162915.047000", "162915.049000", "162915.052000", "162915.054000", "162915.057000", "162915.060000", "162915.062000", "162915.065000", "162915.067000", "162915.070000", "162954.987000", "162954.989000", "162954.992000", "162954.994000", "162954.997000", "162955.001000", "162955.003000", "162955.006000", "162955.008000", "162955.011000", "162955.013000", "162955.016000", "162955.018000", "162955.021000", "162955.023000", "162955.026000", "162955.028000", "162955.031000", "162955.048000", "162955.051000", "162955.054000", "162955.056000", "162955.059000", "162955.062000", "162955.065000", "162955.068000", "162955.071000", "162955.074000", "162955.093000", "162955.096000", "162955.098000", "162955.101000", "162955.103000", "163032.324000", "163032.327000", "163032.330000", "163032.333000", "163032.335000", "163032.338000", "163032.341000", "163032.344000", "163032.346000", "163032.349000", "163032.352000", "163032.355000", "163032.357000", "163032.360000", "163032.362000", "163032.365000", "163032.368000", "163032.371000", "163032.373000", "163032.376000", "163032.378000", "163032.381000", "163032.384000", "163032.387000", "163032.389000", "163032.392000", "163032.395000", "163032.397000", "163032.400000", "163032.403000", "163032.406000", "163032.408000"],
      "InstanceCreationTime": ["162834.991000", "162835.002000", "162835.004000", "162835.007000", "162835.009000", "162835.012000", "162835.015000", "162835.017000", "162835.020000", "162835.023000", "162835.025000", "162835.028000", "162835.030000", "162835.033000", "162835.035000", "162835.038000", "162835.040000", "162835.043000", "162835.045000", "162835.048000", "162835.055000", "162835.058000", "162835.060000", "162835.063000", "162835.065000", "162835.068000", "162835.071000", "162914.986000", "162914.989000", "162914.992000", "162914.994000", "162914.997000", "162915.000000", "162915.003000", "162915.006000", "162915.008000", "162915.011000", "162915.013000", "162915.016000", "162915.019000", "162915.021000", "162915.024000", "162915.026000", "162915.029000", "162915.031000", "162915.034000", "162915.037000", "162915.039000", "162915.042000", "162915.044000", "162915.047000", "162915.049000", "162915.052000", "162915.054000", "162915.057000", "162915.060000", "162915.062000", "162915.065000", "162915.067000", "162915.070000", "162954.987000", "162954.989000", "162954.992000", "162954.994000", "162954.997000", "162955.001000", "162955.003000", "162955.006000", "162955.008000", "162955.011000", "162955.013000", "162955.016000", "162955.018000", "162955.021000", "162955.023000", "162955.026000", "162955.028000", "162955.031000", "162955.048000", "162955.051000", "162955.054000", "162955.056000", "162955.059000", "162955.062000", "162955.065000", "162955.068000", "162955.071000", "162955.074000", "162955.093000", "162955.096000", "162955.098000", "162955.101000", "162955.103000", "163032.324000", "163032.327000", "163032.330000", "163032.333000", "163032.335000", "163032.338000", "163032.341000", "163032.344000", "163032.346000", "163032.349000", "163032.352000", "163032.355000", "163032.357000", "163032.360000", "163032.362000", "163032.365000", "163032.368000", "163032.371000", "163032.373000", "163032.376000", "163032.378000", "163032.381000", "163032.384000", "163032.387000", "163032.389000", "163032.392000", "163032.395000", "163032.397000", "163032.400000", "163032.403000", "163032.406000", "163032.408000"],
      "InstanceNumber": [1, 2, 3, 4, 5, 6, 7, 8, 9, 10, 11, 12, 13, 14, 15, 16, 17, 18, 19, 20, 21, 22, 23, 24, 25, 26, 27, 28, 29, 30, 31, 32, 33, 34, 35, 36, 37, 38, 39, 40, 41, 42, 43, 44, 45, 46, 47, 48, 49, 50, 51, 52, 53, 54, 55, 56, 57, 58, 59, 60, 61, 62, 63, 64, 65, 66, 67, 68, 69, 70, 71, 72, 73, 74, 75, 76, 77, 78, 79, 80, 81, 82, 83, 84, 85, 86, 87, 88, 89, 90, 91, 92, 93, 94, 95, 96, 97, 98, 99, 100, 101, 102, 103, 104, 105, 106, 107, 108, 109, 110, 111, 112, 113, 114, 115, 116, 117, 118, 119, 120, 121, 122, 123, 124, 125],
      "LargestImagePixelValue": [2141, 2097, 2048, 2034, 2042, 2028, 2025, 2033, 2030, 2020, 2008, 2022, 2032, 2024, 2015, 2013, 2016, 2024, 2024, 1999, 2012, 1999, 2020, 2019, 2019, 2017, 2008, 2030, 2008, 2035, 2023, 2010, 2031, 2027, 2027, 2011, 2026, 2021, 2070, 2020, 2053, 2022, 2022, 2031, 2031, 2054, 2046, 2056, 2053, 2049, 2033, 2041, 2039, 2043, 2035, 2039, 2046, 2021, 2086, 2010, 2063, 2027, 2043, 2032, 2042, 2022, 2029, 2018, 2030, 2021, 2031, 2018, 2027, 2021, 2018, 2034, 2032, 2022, 2024, 2031, 2026, 2033, 2009, 2025, 2015, 2037, 2037, 2014, 2032, 2032, 2051, 2005, 2025, 2024, 2023, 2025, 2027, 2029, 2016, 2038, 2005, 2032, 2013, 2027, 2029, 2018, 2014, 2021, 2030, 2005, 2044, 2020, 2031, 2018, 2014, 2016, 2025, 2041, 2016, 2034, 2020, 2020, 2033, 2006, 2017],
      "WindowCenter": [625.0, 621.0, 620.0, 619.0, 619.0, 618.0, 618.0, 618.0, 618.0, 618.0, 618.0, 618.0, 618.0, 619.0, 619.0, 620.0, 620.0, 620.0, 620.0, 619.0, 619.0, 619.0, 619.0, 619.0, 619.0, 619.0, 619.0, 619.0, 618.0, 618.0, 618.0, 618.0, 619.0, 619.0, 620.0, 619.0, 620.0, 619.0, 619.0, 618.0, 619.0, 618.0, 618.0, 619.0, 618.0, 618.0, 618.0, 618.0, 617.0, 617.0, 617.0, 616.0, 616.0, 616.0, 617.0, 617.0, 617.0, 617.0, 618.0, 616.0, 616.0, 616.0, 616.0, 616.0, 616.0, 616.0, 616.0, 616.0, 617.0, 617.0, 618.0, 617.0, 616.0, 616.0, 615.0, 616.0, 616.0, 616.0, 616.0, 617.0, 617.0, 617.0, 617.0, 617.0, 617.0, 616.0, 616.0, 615.0, 616.0, 616.0, 616.0, 616.0, 617.0, 617.0, 617.0, 617.0, 617.0, 616.0, 616.0, 617.0, 616.0, 617.0, 617.0, 617.0, 617.0, 617.0, 617.0, 617.0, 617.0, 616.0, 617.0, 617.0, 617.0, 617.0, 617.0, 617.0, 617.0, 617.0, 617.0, 616.0, 616.0, 617.0, 617.0, 617.0, 617.0],
      "WindowWidth": [1327.0, 1318.0, 1314.0, 1313.0, 1312.0, 1310.0, 1310.0, 1311.0, 1311.0, 1310.0, 1310.0, 1311.0, 1311.0, 1311.0, 1312.0, 1314.0, 1313.0, 1314.0, 1313.0, 1312.0, 1312.0, 1312.0, 1311.0, 1311.0, 1312.0, 1312.0, 1311.0, 1312.0, 1310.0, 1310.0, 1310.0, 1310.0, 1312.0, 1312.0, 1313.0, 1313.0, 1313.0, 1311.0, 1312.0, 1310.0, 1311.0, 1310.0, 1311.0, 1311.0, 1310.0, 1310.0, 1309.0, 1308.0, 1308.0, 1306.0, 1307.0, 1306.0, 1306.0, 1306.0, 1307.0, 1307.0, 1308.0, 1308.0, 1309.0, 1306.0, 1306.0, 1305.0, 1305.0, 1305.0, 1305.0, 1305.0, 1305.0, 1306.0, 1307.0, 1308.0, 1309.0, 1307.0, 1306.0, 1305.0, 1304.0, 1305.0, 1305.0, 1305.0, 1306.0, 1307.0, 1307.0, 1308.0, 1307.0, 1307.0, 1307.0, 1306.0, 1306.0, 1304.0, 1306.0, 1305.0, 1306.0, 1305.0, 1307.0, 1307.0, 1307.0, 1307.0, 1307.0, 1306.0, 1306.0, 1307.0, 1306.0, 1308.0, 1307.0, 1307.0, 1307.0, 1307.0, 1308.0, 1307.0, 1307.0, 1306.0, 1308.0, 1308.0, 1308.0, 1308.0, 1308.0, 1308.0, 1307.0, 1307.0, 1306.0, 1306.0, 1306.0, 1307.0, 1308.0, 1307.0, 1308.0]
    },
    "slices": {}
  }
}