{
  "AcquisitionMatrixPE": 88,
  "AcquisitionNumber": 1,
  "AcquisitionTime": "16:43:10.050000",
  "BandwidthPerPixelPhaseEncode": 19.592,
  "BaseResolution": 88,
  "BodyPartExamined": "BRAIN",
  "ConsistencyInfo": "N4_VE11C_LATEST_20160120",
  "ConversionSoftware": "dcm2niix",
  "ConversionSoftwareVersion": "v1.0.20190902",
  "DerivedVendorReportedEchoSpacing": 0.000580014,
  "DeviceSerialNumber": "67050",
  "DwellTime": 2.6e-06,
  "EchoTime": 0.033,
  "EchoTrainLength": 88,
  "EffectiveEchoSpacing": 0.000580014,
  "FlipAngle": 62,
  "ImageOrientationPatientDICOM": [0.999597, -0.0169675, 0.0227395, 0.0181461, 0.998447, -0.0526698],
  "ImageType": [
    "ORIGINAL",
    "PRIMARY",
    "M",
    "ND",
    "MOSAIC"
],
  "ImagingFrequency": 123.251,
  "InPlanePhaseEncodingDirectionDICOM": "COL",
  "InstitutionAddress": "Olive_Street_60_Providence_RI_US_02912",
  "InstitutionName": "BROWN_UNIVERSITY_MRF",
  "InstitutionalDepartmentName": "Department",
  "MRAcquisitionType": "2D",
  "MagneticFieldStrength": 3,
  "Manufacturer": "Siemens",
  "ManufacturersModelName": "Prisma_fit",
  "Modality": "MR",
  "MultibandAccelerationFactor": 4,
  "PartialFourier": 1,
  "PatientPosition": "HFS",
  "PercentPhaseFOV": 100,
  "PhaseEncodingDirection": "j-",
  "PhaseEncodingSteps": 88,
  "PhaseResolution": 1,
  "PixelBandwidth": 2185,
  "ProcedureStepDescription": "ASHENHAV_1222",
  "ProtocolName": "func-bold_task-RDMcolor_run-02",
  "PulseSequenceDetails": "%SiemensSeq%_ep2d_bold",
  "ReceiveCoilActiveElements": "HC1-7",
  "ReceiveCoilName": "HeadNeck_64",
  "ReconMatrixPE": 88,
  "RefLinesPE": 8,
  "RepetitionTime": 1.2,
  "SAR": 0.0645837,
  "ScanOptions": "FS",
  "ScanningSequence": "EP",
  "SequenceName": "_epfid2d1_88",
  "SequenceVariant": "SK",
  "SeriesDescription": "func-bold_task-RDMcolor_run-02",
  "SeriesNumber": 10,
  "ShimSetting": [1755, -9095, 4424, 486, -83, -65, -86, -12],
  "SliceThickness": 2.4,
  "SliceTiming": [0.55, 0, 0.63, 0.08, 0.7075, 0.1575, 0.7875, 0.235, 0.865, 0.315, 0.945, 0.3925, 1.0225, 0.4725, 1.1025, 0.55, 0, 0.63, 0.08, 0.7075, 0.1575, 0.7875, 0.235, 0.865, 0.315, 0.945, 0.3925, 1.0225, 0.4725, 1.1025, 0.55, 0, 0.63, 0.08, 0.7075, 0.1575, 0.7875, 0.235, 0.865, 0.315, 0.945, 0.3925, 1.0225, 0.4725, 1.1025, 0.55, 0, 0.63, 0.08, 0.7075, 0.1575, 0.7875, 0.235, 0.865, 0.315, 0.945, 0.3925, 1.0225, 0.4725, 1.1025],
  "SoftwareVersions": "syngo_MR_E11",
  "SpacingBetweenSlices": 2.4,
  "StationName": "AWP67050",
  "TaskName": "RDMcolor",
  "TotalReadoutTime": 0.0504612,
  "TxRefAmp": 250.311,
  "dcmmeta_affine": [
    [-2.396761894226074, 0.04350942373275757, 0.05234532058238983, 104.64691162109375],
    [0.040683358907699585, 2.3940038681030273, -0.127346932888031, -89.98493194580078],
    [0.054523203521966934, 0.1262877881526947, 2.396047353744507, -76.7020492553711],
    [0.0, 0.0, 0.0, 1.0]
],
  "dcmmeta_reorient_transform": [
    [0.0, -1.0, 0.0, 87.0],
    [1.0, 0.0, 0.0, 0.0],
    [0.0, 0.0, 1.0, 0.0],
    [0.0, 0.0, 0.0, 1.0]
],
  "dcmmeta_shape": [88, 88, 60, 392],
  "dcmmeta_slice_dim": 2,
  "dcmmeta_version": 0.6,
  "global": {
    "const": {
      "AcquisitionMatrix": [88, 0, 0, 88],
      "AngioFlag": "N",
      "BitsAllocated": 16,
      "BitsStored": 12,
      "BodyPartExamined": "BRAIN",
      "Columns": 704,
      "DeidentificationMethodCodeSequence": [
        {
          "CodeMeaning": "XNAT DicomEdit 6 Script",
          "CodeValue": "3",
          "CodingSchemeDesignator": "XNAT",
          "CodingSchemeVersion": "1.0"}
],
      "EchoNumbers": 1,
      "EchoTime": 33.0,
      "EchoTrainLength": 88,
      "FlipAngle": 62.0,
      "HighBit": 11,
      "ImageOrientationPatient": [0.99959742827093, -0.0169674670896, 0.02273953505933, 0.01814610997047, 0.99844710018445, -0.0526697904514],
      "ImagePositionPatient": [-860.03582705944, -843.11609917729, -43.61151482393],
      "ImageType": [
        "ORIGINAL",
        "PRIMARY",
        "M",
        "ND",
        "MOSAIC"
],
      "ImagedNucleus": "1H",
      "ImagingFrequency": 123.250751,
      "InPlanePhaseEncodingDirection": "COL",
      "MRAcquisitionType": "2D",
      "MagneticFieldStrength": 3.0,
      "Manufacturer": "SIEMENS",
      "ManufacturerModelName": "Prisma_fit",
      "Modality": "MR",
      "NumberOfAverages": 1.0,
      "NumberOfPhaseEncodingSteps": 88,
      "PercentPhaseFieldOfView": 100.0,
      "PercentSampling": 100.0,
      "PerformedProcedureStepStartTime": "162113.275000",
      "PhotometricInterpretation": "MONOCHROME2",
      "PixelBandwidth": 2185.0,
      "PixelRepresentation": 0,
      "PixelSpacing": [2.3977272510529, 2.3977272510529],
      "ProtocolName": "func-bold_task-RDMcolor_run-02",
      "RepetitionTime": 1200.0,
      "Rows": 704,
      "SAR": 0.06458367004092,
      "SamplesPerPixel": 1,
      "ScanOptions": "FS",
      "ScanningSequence": "EP",
      "SequenceName": "*epfid2d1_88",
      "SequenceVariant": "SK",
      "SeriesDescription": "func-bold_task-RDMcolor_run-02",
      "SeriesNumber": 10,
      "SeriesTime": "164334.988000",
      "SliceLocation": -69.518604214194,
      "SliceThickness": 2.4000000953674,
      "SmallestImagePixelValue": 0,
      "SoftwareVersions": "syngo MR E11",
      "SpacingBetweenSlices": 2.3999999880093,
      "SpecificCharacterSet": "ISO_IR 100",
      "StudyID": "1",
      "StudyTime": "162113.200000",
      "TransmitCoilName": "Body",
      "VariableFlipAngleFlag": "N",
      "WindowCenterWidthExplanation": "Algo1",
      "dBdt": 0.0},
    "slices": {}
  },
  "time": {
    "samples": {
      "AcquisitionNumber": [1, 2, 3, 4, 5, 6, 7, 8, 9, 10, 11, 12, 13, 14, 15, 16, 17, 18, 19, 20, 21, 22, 23, 24, 25, 26, 27, 28, 29, 30, 31, 32, 33, 34, 35, 36, 37, 38, 39, 40, 41, 42, 43, 44, 45, 46, 47, 48, 49, 50, 51, 52, 53, 54, 55, 56, 57, 58, 59, 60, 61, 62, 63, 64, 65, 66, 67, 68, 69, 70, 71, 72, 73, 74, 75, 76, 77, 78, 79, 80, 81, 82, 83, 84, 85, 86, 87, 88, 89, 90, 91, 92, 93, 94, 95, 96, 97, 98, 99, 100, 101, 102, 103, 104, 105, 106, 107, 108, 109, 110, 111, 112, 113, 114, 115, 116, 117, 118, 119, 120, 121, 122, 123, 124, 125, 126, 127, 128, 129, 130, 131, 132, 133, 134, 135, 136, 137, 138, 139, 140, 141, 142, 143, 144, 145, 146, 147, 148, 149, 150, 151, 152, 153, 154, 155, 156, 157, 158, 159, 160, 161, 162, 163, 164, 165, 166, 167, 168, 169, 170, 171, 172, 173, 174, 175, 176, 177, 178, 179, 180, 181, 182, 183, 184, 185, 186, 187, 188, 189, 190, 191, 192, 193, 194, 195, 196, 197, 198, 199, 200, 201, 202, 203, 204, 205, 206, 207, 208, 209, 210, 211, 212, 213, 214, 215, 216, 217, 218, 219, 220, 221, 222, 223, 224, 225, 226, 227, 228, 229, 230, 231, 232, 233, 234, 235, 236, 237, 238, 239, 240, 241, 242, 243, 244, 245, 246, 247, 248, 249, 250, 251, 252, 253, 254, 255, 256, 257, 258, 259, 260, 261, 262, 263, 264, 265, 266, 267, 268, 269, 270, 271, 272, 273, 274, 275, 276, 277, 278, 279, 280, 281, 282, 283, 284, 285, 286, 287, 288, 289, 290, 291, 292, 293, 294, 295, 296, 297, 298, 299, 300, 301, 302, 303, 304, 305, 306, 307, 308, 309, 310, 311, 312, 313, 314, 315, 316, 317, 318, 319, 320, 321, 322, 323, 324, 325, 326, 327, 328, 329, 330, 331, 332, 333, 334, 335, 336, 337, 338, 339, 340, 341, 342, 343, 344, 345, 346, 347, 348, 349, 350, 351, 352, 353, 354, 355, 356, 357, 358, 359, 360, 361, 362, 363, 364, 365, 366, 367, 368, 369, 370, 371, 372, 373, 374, 375, 376, 377, 378, 379, 380, 381, 382, 383, 384, 385, 386, 387, 388, 389, 390, 391, 392],
      "AcquisitionTime": ["164310.050000", "164311.250000", "164312.450000", "164313.650000", "164314.850000", "164316.050000", "164317.250000", "164318.450000", "164319.650000", "164320.850000", "164322.050000", "164323.250000", "164324.450000", "164325.650000", "164326.850000", "164328.050000", "164329.250000", "164330.450000", "164331.650000", "164332.850000", "164334.050000", "164335.250000", "164336.450000", "164337.650000", "164338.850000", "164340.050000", "164341.250000", "164342.450000", "164343.650000", "164344.850000", "164346.050000", "164347.250000", "164348.450000", "164349.650000", "164350.850000", "164352.050000", "164353.250000", "164354.450000", "164355.650000", "164356.850000", "164358.050000", "164359.250000", "164400.450000", "164401.650000", "164402.850000", "164404.050000", "164405.250000", "164406.450000", "164407.650000", "164408.850000", "164410.050000", "164411.250000", "164412.450000", "164413.650000", "164414.850000", "164416.050000", "164417.250000", "164418.450000", "164419.650000", "164420.850000", "164422.050000", "164423.250000", "164424.450000", "164425.650000", "164426.850000", "164428.050000", "164429.250000", "164430.450000", "164431.650000", "164432.850000", "164434.050000", "164435.250000", "164436.450000", "164437.650000", "164438.850000", "164440.050000", "164441.250000", "164442.450000", "164443.650000", "164444.850000", "164446.050000", "164447.250000", "164448.450000", "164449.650000", "164450.850000", "164452.050000", "164453.250000", "164454.450000", "164455.650000", "164456.850000", "164458.050000", "164459.250000", "164500.450000", "164501.650000", "164502.850000", "164504.050000", "164505.250000", "164506.450000", "164507.650000", "164508.850000", "164510.050000", "164511.250000", "164512.450000", "164513.650000", "164514.850000", "164516.050000", "164517.250000", "164518.450000", "164519.650000", "164520.850000", "164522.050000", "164523.250000", "164524.450000", "164525.650000", "164526.850000", "164528.050000", "164529.250000", "164530.450000", "164531.650000", "164532.850000", "164534.050000", "164535.250000", "164536.450000", "164537.650000", "164538.850000", "164540.050000", "164541.250000", "164542.450000", "164543.650000", "164544.850000", "164546.050000", "164547.250000", "164548.450000", "164549.650000", "164550.850000", "164552.050000", "164553.250000", "164554.450000", "164555.650000", "164556.850000", "164558.050000", "164559.250000", "164600.450000", "164601.650000", "164602.850000", "164604.050000", "164605.250000", "164606.450000", "164607.650000", "164608.850000", "164610.050000", "164611.250000", "164612.450000", "164613.650000", "164614.850000", "164616.050000", "164617.250000", "164618.450000", "164619.650000", "164620.850000", "164622.050000", "164623.250000", "164624.450000", "164625.650000", "164626.850000", "164628.050000", "164629.250000", "164630.450000", "164631.650000", "164632.850000", "164634.050000", "164635.250000", "164636.450000", "164637.650000", "164638.850000", "164640.050000", "164641.250000", "164642.450000", "164643.650000", "164644.850000", "164646.050000", "164647.250000", "164648.450000", "164649.650000", "164650.850000", "164652.050000", "164653.250000", "164654.450000", "164655.650000", "164656.850000", "164658.050000", "164659.250000", "164700.450000", "164701.650000", "164702.850000", "164704.050000", "164705.250000", "164706.450000", "164707.650000", "164708.850000", "164710.050000", "164711.250000", "164712.450000", "164713.650000", "164714.850000", "164716.050000", "164717.250000", "164718.450000", "164719.650000", "164720.850000", "164722.050000", "164723.250000", "164724.450000", "164725.650000", "164726.850000", "164728.050000", "164729.250000", "164730.450000", "164731.650000", "164732.850000", "164734.050000", "164735.250000", "164736.450000", "164737.650000", "164738.850000", "164740.050000", "164741.250000", "164742.450000", "164743.650000", "164744.850000", "164746.050000", "164747.250000", "164748.450000", "164749.650000", "164750.850000", "164752.050000", "164753.250000", "164754.450000", "164755.650000", "164756.850000", "164758.050000", "164759.250000", "164800.450000", "164801.650000", "164802.850000", "164804.050000", "164805.250000", "164806.450000", "164807.650000", "164808.850000", "164810.050000", "164811.250000", "164812.450000", "164813.650000", "164814.850000", "164816.050000", "164817.250000", "164818.450000", "164819.650000", "164820.850000", "164822.050000", "164823.250000", "164824.450000", "164825.650000", "164826.850000", "164828.050000", "164829.250000", "164830.450000", "164831.650000", "164832.850000", "164834.050000", "164835.250000", "164836.450000", "164837.650000", "164838.850000", "164840.050000", "164841.250000", "164842.450000", "164843.650000", "164844.850000", "164846.050000", "164847.250000", "164848.450000", "164849.650000", "164850.850000", "164852.050000", "164853.250000", "164854.450000", "164855.650000", "164856.850000", "164858.050000", "164859.250000", "164900.450000", "164901.650000", "164902.850000", "164904.050000", "164905.250000", "164906.450000", "164907.650000", "164908.850000", "164910.050000", "164911.250000", "164912.450000", "164913.650000", "164914.850000", "164916.050000", "164917.250000", "164918.450000", "164919.650000", "164920.850000", "164922.050000", "164923.250000", "164924.450000", "164925.650000", "164926.850000", "164928.050000", "164929.250000", "164930.450000", "164931.650000", "164932.850000", "164934.050000", "164935.250000", "164936.450000", "164937.650000", "164938.850000", "164940.050000", "164941.250000", "164942.450000", "164943.650000", "164944.850000", "164946.050000", "164947.250000", "164948.450000", "164949.650000", "164950.850000", "164952.050000", "164953.250000", "164954.450000", "164955.650000", "164956.850000", "164958.050000", "164959.250000", "165000.450000", "165001.650000", "165002.850000", "165004.050000", "165005.250000", "165006.450000", "165007.650000", "165008.850000", "165010.050000", "165011.250000", "165012.450000", "165013.650000", "165014.850000", "165016.050000", "165017.250000", "165018.450000", "165019.650000", "165020.850000", "165022.050000", "165023.250000", "165024.450000", "165025.650000", "165026.850000", "165028.050000", "165029.250000", "165030.450000", "165031.650000", "165032.850000", "165034.050000", "165035.250000", "165036.450000", "165037.650000", "165038.850000", "165040.050000", "165041.250000", "165042.450000", "165043.650000", "165044.850000", "165046.050000", "165047.250000", "165048.450000", "165049.650000", "165050.850000", "165052.050000", "165053.250000", "165054.450000", "165055.650000", "165056.850000", "165058.050000", "165059.250000"],
      "ContentTime": ["164334.991000", "164334.994000", "164334.997000", "164335.000000", "164335.003000", "164335.005000", "164335.008000", "164335.011000", "164335.018000", "164335.020000", "164335.023000", "164335.025000", "164335.028000", "164335.031000", "164335.033000", "164335.036000", "164335.038000", "164335.041000", "164335.043000", "164335.046000", "164414.987000", "164414.991000", "164414.993000", "164414.996000", "164414.999000", "164415.001000", "164415.004000", "164415.006000", "164415.009000", "164415.011000", "164415.014000", "164415.016000", "164415.019000", "164415.021000", "164415.024000", "164415.027000", "164415.029000", "164415.032000", "164415.034000", "164415.037000", "164415.039000", "164415.042000", "164415.044000", "164415.047000", "164415.050000", "164415.052000", "164415.055000", "164415.057000", "164415.060000", "164415.063000", "164415.065000", "164415.068000", "164415.070000", "164454.987000", "164454.989000", "164454.992000", "164454.995000", "164454.997000", "164455.001000", "164455.003000", "164455.006000", "164455.008000", "164455.011000", "164455.013000", "164455.016000", "164455.019000", "164455.021000", "164455.024000", "164455.026000", "164455.029000", "164455.031000", "164455.034000", "164455.036000", "164455.039000", "164455.041000", "164455.044000", "164455.047000", "164455.049000", "164455.052000", "164455.054000", "164455.057000", "164455.060000", "164455.062000", "164455.065000", "164455.067000", "164455.070000", "164455.072000", "164534.986000", "164534.989000", "164534.992000", "164534.994000", "164534.997000", "164535.001000", "164535.003000", "164535.006000", "164535.008000", "164535.011000", "164535.013000", "164535.016000", "164535.018000", "164535.021000", "164535.024000", "164535.026000", "164535.029000", "164535.031000", "164535.034000", "164535.037000", "164535.039000", "164535.042000", "164535.044000", "164535.047000", "164535.049000", "164535.052000", "164535.054000", "164535.057000", "164535.059000", "164535.062000", "164535.065000", "164535.067000", "164535.070000", "164614.988000", "164614.991000", "164614.993000", "164614.996000", "164614.998000", "164615.002000", "164615.004000", "164615.007000", "164615.010000", "164615.012000", "164615.015000", "164615.017000", "164615.020000", "164615.023000", "164615.025000", "164615.028000", "164615.030000", "164615.033000", "164615.035000", "164615.038000", "164615.040000", "164615.043000", "164615.046000", "164615.048000", "164615.051000", "164615.054000", "164615.056000", "164615.059000", "164615.061000", "164615.064000", "164615.067000", "164615.069000", "164615.072000", "164654.987000", "164654.989000", "164654.992000", "164654.995000", "164654.997000", "164655.001000", "164655.003000", "164655.006000", "164655.008000", "164655.011000", "164655.014000", "164655.016000", "164655.019000", "164655.021000", "164655.024000", "164655.026000", "164655.029000", "164655.031000", "164655.034000", "164655.037000", "164655.039000", "164655.048000", "164655.050000", "164655.053000", "164655.055000", "164655.058000", "164655.061000", "164655.063000", "164655.066000", "164655.068000", "164655.081000", "164655.084000", "164655.086000", "164655.089000", "164734.986000", "164734.989000", "164734.992000", "164734.994000", "164734.997000", "164735.001000", "164735.003000", "164735.006000", "164735.008000", "164735.011000", "164735.014000", "164735.016000", "164735.019000", "164735.022000", "164735.024000", "164735.027000", "164735.029000", "164735.032000", "164735.034000", "164735.037000", "164735.039000", "164735.042000", "164735.045000", "164735.047000", "164735.050000", "164735.052000", "164735.055000", "164735.057000", "164735.060000", "164735.063000", "164735.065000", "164735.068000", "164735.070000", "164814.988000", "164814.990000", "164814.993000", "164814.996000", "164814.998000", "164815.002000", "164815.004000", "164815.007000", "164815.009000", "164815.012000", "164815.015000", "164815.017000", "164815.020000", "164815.022000", "164815.025000", "164815.028000", "164815.030000", "164815.033000", "164815.035000", "164815.038000", "164815.040000", "164815.043000", "164815.046000", "164815.048000", "164815.051000", "164815.053000", "164815.056000", "164815.059000", "164815.061000", "164815.064000", "164815.067000", "164815.069000", "164815.072000", "164854.987000", "164854.989000", "164854.992000", "164854.994000", "164854.997000", "164855.000000", "164855.003000", "164855.005000", "164855.008000", "164855.011000", "164855.013000", "164855.016000", "164855.018000", "164855.021000", "164855.024000", "164855.026000", "164855.029000", "164855.031000", "164855.034000", "164855.036000", "164855.039000", "164855.042000", "164855.045000", "164855.047000", "164855.050000", "164855.052000", "164855.055000", "164855.057000", "164855.060000", "164855.063000", "164855.065000", "164855.068000", "164855.071000", "164855.073000", "164934.987000", "164934.989000", "164934.992000", "164934.995000", "164934.997000", "164935.001000", "164935.003000", "164935.006000", "164935.008000", "164935.014000", "164935.017000", "164935.020000", "164935.022000", "164935.025000", "164935.027000", "164935.030000", "164935.033000", "164935.035000", "164935.038000", "164935.040000", "164935.043000", "164935.045000", "164935.048000", "164935.051000", "164935.053000", "164935.056000", "164935.058000", "164935.061000", "164935.063000", "164935.066000", "164935.069000", "164935.071000", "164935.074000", "165014.989000", "165014.991000", "165014.994000", "165014.996000", "165015.000000", "165015.003000", "165015.005000", "165015.008000", "165015.011000", "165015.013000", "165015.016000", "165015.019000", "165015.021000", "165015.024000", "165015.026000", "165015.029000", "165015.032000", "165015.034000", "165015.037000", "165015.039000", "165015.042000", "165015.045000", "165015.047000", "165015.050000", "165015.053000", "165015.055000", "165015.058000", "165015.060000", "165015.063000", "165015.066000", "165015.068000", "165015.071000", "165015.074000", "165054.987000", "165054.989000", "165054.992000", "165054.995000", "165054.997000", "165055.001000", "165055.003000", "165055.006000", "165055.009000", "165055.011000", "165055.014000", "165055.016000", "165055.019000", "165055.022000", "165055.042000", "165055.050000", "165055.052000", "165055.055000", "165055.057000", "165055.060000", "165055.062000", "165055.065000", "165055.067000", "165055.070000", "165055.073000", "165055.075000", "165055.078000", "165055.080000", "165055.083000", "165055.085000", "165055.088000", "165055.091000", "165055.093000", "165055.096000", "165101.017000", "165101.019000", "165101.022000", "165101.025000", "165101.027000"],
      "InstanceCreationTime": ["164334.991000", "164334.994000", "164334.997000", "164335.000000", "164335.003000", "164335.005000", "164335.008000", "164335.011000", "164335.018000", "164335.020000", "164335.023000", "164335.025000", "164335.028000", "164335.031000", "164335.033000", "164335.036000", "164335.038000", "164335.041000", "164335.043000", "164335.046000", "164414.987000", "164414.991000", "164414.993000", "164414.996000", "164414.999000", "164415.001000", "164415.004000", "164415.006000", "164415.009000", "164415.011000", "164415.014000", "164415.016000", "164415.019000", "164415.021000", "164415.024000", "164415.027000", "164415.029000", "164415.032000", "164415.034000", "164415.037000", "164415.039000", "164415.042000", "164415.044000", "164415.047000", "164415.050000", "164415.052000", "164415.055000", "164415.057000", "164415.060000", "164415.063000", "164415.065000", "164415.068000", "164415.070000", "164454.987000", "164454.989000", "164454.992000", "164454.995000", "164454.997000", "164455.001000", "164455.003000", "164455.006000", "164455.008000", "164455.011000", "164455.013000", "164455.016000", "164455.019000", "164455.021000", "164455.024000", "164455.026000", "164455.029000", "164455.031000", "164455.034000", "164455.036000", "164455.039000", "164455.041000", "164455.044000", "164455.047000", "164455.049000", "164455.052000", "164455.054000", "164455.057000", "164455.060000", "164455.062000", "164455.065000", "164455.067000", "164455.070000", "164455.072000", "164534.986000", "164534.989000", "164534.992000", "164534.994000", "164534.997000", "164535.001000", "164535.003000", "164535.006000", "164535.008000", "164535.011000", "164535.013000", "164535.016000", "164535.018000", "164535.021000", "164535.024000", "164535.026000", "164535.029000", "164535.031000", "164535.034000", "164535.037000", "164535.039000", "164535.042000", "164535.044000", "164535.047000", "164535.049000", "164535.052000", "164535.054000", "164535.057000", "164535.059000", "164535.062000", "164535.065000", "164535.067000", "164535.070000", "164614.988000", "164614.991000", "164614.993000", "164614.996000", "164614.998000", "164615.002000", "164615.004000", "164615.007000", "164615.010000", "164615.012000", "164615.015000", "164615.017000", "164615.020000", "164615.023000", "164615.025000", "164615.028000", "164615.030000", "164615.033000", "164615.035000", "164615.038000", "164615.040000", "164615.043000", "164615.046000", "164615.048000", "164615.051000", "164615.054000", "164615.056000", "164615.059000", "164615.061000", "164615.064000", "164615.067000", "164615.069000", "164615.072000", "164654.987000", "164654.989000", "164654.992000", "164654.995000", "164654.997000", "164655.001000", "164655.003000", "164655.006000", "164655.008000", "164655.011000", "164655.014000", "164655.016000", "164655.019000", "164655.021000", "164655.024000", "164655.026000", "164655.029000", "164655.031000", "164655.034000", "164655.037000", "164655.039000", "164655.048000", "164655.050000", "164655.053000", "164655.055000", "164655.058000", "164655.061000", "164655.063000", "164655.066000", "164655.068000", "164655.081000", "164655.084000", "164655.086000", "164655.089000", "164734.986000", "164734.989000", "164734.992000", "164734.994000", "164734.997000", "164735.001000", "164735.003000", "164735.006000", "164735.008000", "164735.011000", "164735.014000", "164735.016000", "164735.019000", "164735.022000", "164735.024000", "164735.027000", "164735.029000", "164735.032000", "164735.034000", "164735.037000", "164735.039000", "164735.042000", "164735.045000", "164735.047000", "164735.050000", "164735.052000", "164735.055000", "164735.057000", "164735.060000", "164735.063000", "164735.065000", "164735.068000", "164735.070000", "164814.988000", "164814.990000", "164814.993000", "164814.996000", "164814.998000", "164815.002000", "164815.004000", "164815.007000", "164815.009000", "164815.012000", "164815.015000", "164815.017000", "164815.020000", "164815.022000", "164815.025000", "164815.028000", "164815.030000", "164815.033000", "164815.035000", "164815.038000", "164815.040000", "164815.043000", "164815.046000", "164815.048000", "164815.051000", "164815.053000", "164815.056000", "164815.059000", "164815.061000", "164815.064000", "164815.067000", "164815.069000", "164815.072000", "164854.987000", "164854.989000", "164854.992000", "164854.994000", "164854.997000", "164855.000000", "164855.003000", "164855.005000", "164855.008000", "164855.011000", "164855.013000", "164855.016000", "164855.018000", "164855.021000", "164855.024000", "164855.026000", "164855.029000", "164855.031000", "164855.034000", "164855.036000", "164855.039000", "164855.042000", "164855.045000", "164855.047000", "164855.050000", "164855.052000", "164855.055000", "164855.057000", "164855.060000", "164855.063000", "164855.065000", "164855.068000", "164855.071000", "164855.073000", "164934.987000", "164934.989000", "164934.992000", "164934.995000", "164934.997000", "164935.001000", "164935.003000", "164935.006000", "164935.008000", "164935.014000", "164935.017000", "164935.020000", "164935.022000", "164935.025000", "164935.027000", "164935.030000", "164935.033000", "164935.035000", "164935.038000", "164935.040000", "164935.043000", "164935.045000", "164935.048000", "164935.051000", "164935.053000", "164935.056000", "164935.058000", "164935.061000", "164935.063000", "164935.066000", "164935.069000", "164935.071000", "164935.074000", "165014.989000", "165014.991000", "165014.994000", "165014.996000", "165015.000000", "165015.003000", "165015.005000", "165015.008000", "165015.011000", "165015.013000", "165015.016000", "165015.019000", "165015.021000", "165015.024000", "165015.026000", "165015.029000", "165015.032000", "165015.034000", "165015.037000", "165015.039000", "165015.042000", "165015.045000", "165015.047000", "165015.050000", "165015.053000", "165015.055000", "165015.058000", "165015.060000", "165015.063000", "165015.066000", "165015.068000", "165015.071000", "165015.074000", "165054.987000", "165054.989000", "165054.992000", "165054.995000", "165054.997000", "165055.001000", "165055.003000", "165055.006000", "165055.009000", "165055.011000", "165055.014000", "165055.016000", "165055.019000", "165055.022000", "165055.042000", "165055.050000", "165055.052000", "165055.055000", "165055.057000", "165055.060000", "165055.062000", "165055.065000", "165055.067000", "165055.070000", "165055.073000", "165055.075000", "165055.078000", "165055.080000", "165055.083000", "165055.085000", "165055.088000", "165055.091000", "165055.093000", "165055.096000", "165101.017000", "165101.019000", "165101.022000", "165101.025000", "165101.027000"],
      "InstanceNumber": [1, 2, 3, 4, 5, 6, 7, 8, 9, 10, 11, 12, 13, 14, 15, 16, 17, 18, 19, 20, 21, 22, 23, 24, 25, 26, 27, 28, 29, 30, 31, 32, 33, 34, 35, 36, 37, 38, 39, 40, 41, 42, 43, 44, 45, 46, 47, 48, 49, 50, 51, 52, 53, 54, 55, 56, 57, 58, 59, 60, 61, 62, 63, 64, 65, 66, 67, 68, 69, 70, 71, 72, 73, 74, 75, 76, 77, 78, 79, 80, 81, 82, 83, 84, 85, 86, 87, 88, 89, 90, 91, 92, 93, 94, 95, 96, 97, 98, 99, 100, 101, 102, 103, 104, 105, 106, 107, 108, 109, 110, 111, 112, 113, 114, 115, 116, 117, 118, 119, 120, 121, 122, 123, 124, 125, 126, 127, 128, 129, 130, 131, 132, 133, 134, 135, 136, 137, 138, 139, 140, 141, 142, 143, 144, 145, 146, 147, 148, 149, 150, 151, 152, 153, 154, 155, 156, 157, 158, 159, 160, 161, 162, 163, 164, 165, 166, 167, 168, 169, 170, 171, 172, 173, 174, 175, 176, 177, 178, 179, 180, 181, 182, 183, 184, 185, 186, 187, 188, 189, 190, 191, 192, 193, 194, 195, 196, 197, 198, 199, 200, 201, 202, 203, 204, 205, 206, 207, 208, 209, 210, 211, 212, 213, 214, 215, 216, 217, 218, 219, 220, 221, 222, 223, 224, 225, 226, 227, 228, 229, 230, 231, 232, 233, 234, 235, 236, 237, 238, 239, 240, 241, 242, 243, 244, 245, 246, 247, 248, 249, 250, 251, 252, 253, 254, 255, 256, 257, 258, 259, 260, 261, 262, 263, 264, 265, 266, 267, 268, 269, 270, 271, 272, 273, 274, 275, 276, 277, 278, 279, 280, 281, 282, 283, 284, 285, 286, 287, 288, 289, 290, 291, 292, 293, 294, 295, 296, 297, 298, 299, 300, 301, 302, 303, 304, 305, 306, 307, 308, 309, 310, 311, 312, 313, 314, 315, 316, 317, 318, 319, 320, 321, 322, 323, 324, 325, 326, 327, 328, 329, 330, 331, 332, 333, 334, 335, 336, 337, 338, 339, 340, 341, 342, 343, 344, 345, 346, 347, 348, 349, 350, 351, 352, 353, 354, 355, 356, 357, 358, 359, 360, 361, 362, 363, 364, 365, 366, 367, 368, 369, 370, 371, 372, 373, 374, 375, 376, 377, 378, 379, 380, 381, 382, 383, 384, 385, 386, 387, 388, 389, 390, 391, 392],
