{
  "AcquisitionMatrixPE": 88,
  "AcquisitionNumber": 1,
  "AcquisitionTime": "17:16:16.862500",
  "BandwidthPerPixelPhaseEncode": 19.592,
  "BaseResolution": 88,
  "BodyPartExamined": "BRAIN",
  "ConsistencyInfo": "N4_VE11C_LATEST_20160120",
  "ConversionSoftware": "dcm2niix",
  "ConversionSoftwareVersion": "v1.0.20190902",
  "DerivedVendorReportedEchoSpacing": 0.000580014,
  "DeviceSerialNumber": "67050",
  "DwellTime": 2.6e-06,
  "EchoTime": 0.033,
  "EchoTrainLength": 88,
  "EffectiveEchoSpacing": 0.000580014,
  "FlipAngle": 62,
  "ImageOrientationPatientDICOM": [0.999597, -0.0169675, 0.0227395, 0.0181461, 0.998447, -0.0526698],
  "ImageType": [
    "ORIGINAL",
    "PRIMARY",
    "M",
    "ND",
    "MOSAIC"
],
  "ImagingFrequency": 123.251,
  "InPlanePhaseEncodingDirectionDICOM": "COL",
  "InstitutionAddress": "Olive_Street_60_Providence_RI_US_02912",
  "InstitutionName": "BROWN_UNIVERSITY_MRF",
  "InstitutionalDepartmentName": "Department",
  "MRAcquisitionType": "2D",
  "MagneticFieldStrength": 3,
  "Manufacturer": "Siemens",
  "ManufacturersModelName": "Prisma_fit",
  "Modality": "MR",
  "MultibandAccelerationFactor": 4,
  "PartialFourier": 1,
  "PatientPosition": "HFS",
  "PercentPhaseFOV": 100,
  "PhaseEncodingDirection": "j-",
  "PhaseEncodingSteps": 88,
  "PhaseResolution": 1,
  "PixelBandwidth": 2185,
  "ProcedureStepDescription": "ASHENHAV_1222",
  "ProtocolName": "func-bold_task-RDMmotion_run-05",
  "PulseSequenceDetails": "%SiemensSeq%_ep2d_bold",
  "ReceiveCoilActiveElements": "HC1-7",
  "ReceiveCoilName": "HeadNeck_64",
  "ReconMatrixPE": 88,
  "RefLinesPE": 8,
  "RepetitionTime": 1.2,
  "SAR": 0.0639281,
  "ScanOptions": "FS",
  "ScanningSequence": "EP",
  "SequenceName": "_epfid2d1_88",
  "SequenceVariant": "SK",
  "SeriesDescription": "func-bold_task-RDMmotion_run-05",
  "SeriesNumber": 15,
  "ShimSetting": [1755, -9095, 4424, 486, -83, -65, -86, -12],
  "SliceThickness": 2.4,
  "SliceTiming": [0.55, 0, 0.63, 0.08, 0.7075, 0.1575, 0.7875, 0.2375, 0.865, 0.315, 0.945, 0.395, 1.0225, 0.4725, 1.1025, 0.55, 0, 0.63, 0.08, 0.7075, 0.1575, 0.7875, 0.2375, 0.865, 0.315, 0.945, 0.395, 1.0225, 0.4725, 1.1025, 0.55, 0, 0.63, 0.08, 0.7075, 0.1575, 0.7875, 0.2375, 0.865, 0.315, 0.945, 0.395, 1.0225, 0.4725, 1.1025, 0.55, 0, 0.63, 0.08, 0.7075, 0.1575, 0.7875, 0.2375, 0.865, 0.315, 0.945, 0.395, 1.0225, 0.4725, 1.1025],
  "SoftwareVersions": "syngo_MR_E11",
  "SpacingBetweenSlices": 2.4,
  "StationName": "AWP67050",
  "TaskName": "RDMmotion",
  "TotalReadoutTime": 0.0504612,
  "TxRefAmp": 250.311,
  "dcmmeta_affine": [
    [-2.396761894226074, 0.04350942373275757, 0.05234532058238983, 104.64691162109375],
    [0.040683358907699585, 2.3940038681030273, -0.127346932888031, -89.98493194580078],
    [0.054523203521966934, 0.1262877881526947, 2.396047353744507, -76.7020492553711],
    [0.0, 0.0, 0.0, 1.0]
],
  "dcmmeta_reorient_transform": [
    [0.0, -1.0, 0.0, 87.0],
    [1.0, 0.0, 0.0, 0.0],
    [0.0, 0.0, 1.0, 0.0],
    [0.0, 0.0, 0.0, 1.0]
],
  "dcmmeta_shape": [88, 88, 60, 125],
  "dcmmeta_slice_dim": 2,
  "dcmmeta_version": 0.6,
  "global": {
    "const": {
      "AcquisitionMatrix": [88, 0, 0, 88],
      "AngioFlag": "N",
      "BitsAllocated": 16,
      "BitsStored": 12,
      "BodyPartExamined": "BRAIN",
      "Columns": 704,
      "DeidentificationMethodCodeSequence": [
        {
          "CodeMeaning": "XNAT DicomEdit 6 Script",
          "CodeValue": "3",
          "CodingSchemeDesignator": "XNAT",
          "CodingSchemeVersion": "1.0"}
],
      "EchoNumbers": 1,
      "EchoTime": 33.0,
      "EchoTrainLength": 88,
      "FlipAngle": 62.0,
      "HighBit": 11,
      "ImageOrientationPatient": [0.99959742827093, -0.0169674670896, 0.02273953505933, 0.01814610997047, 0.99844710018445, -0.0526697904514],
      "ImagePositionPatient": [-860.03582705944, -843.11609917729, -43.61151482393],
      "ImageType": [
        "ORIGINAL",
        "PRIMARY",
        "M",
        "ND",
        "MOSAIC"
],
      "ImagedNucleus": "1H",
      "ImagingFrequency": 123.250757,
      "InPlanePhaseEncodingDirection": "COL",
      "MRAcquisitionType": "2D",
      "MagneticFieldStrength": 3.0,
      "Manufacturer": "SIEMENS",
      "ManufacturerModelName": "Prisma_fit",
      "Modality": "MR",
      "NumberOfAverages": 1.0,
      "NumberOfPhaseEncodingSteps": 88,
      "PercentPhaseFieldOfView": 100.0,
      "PercentSampling": 100.0,
      "PerformedProcedureStepStartTime": "162113.275000",
      "PhotometricInterpretation": "MONOCHROME2",
      "PixelBandwidth": 2185.0,
      "PixelRepresentation": 0,
      "PixelSpacing": [2.3977272510529, 2.3977272510529],
      "ProtocolName": "func-bold_task-RDMmotion_run-05",
      "RepetitionTime": 1200.0,
      "Rows": 704,
      "SAR": 0.06392812537158,
      "SamplesPerPixel": 1,
      "ScanOptions": "FS",
      "ScanningSequence": "EP",
      "SequenceName": "*epfid2d1_88",
      "SequenceVariant": "SK",
      "SeriesDescription": "func-bold_task-RDMmotion_run-05",
      "SeriesNumber": 15,
      "SeriesTime": "171649.044000",
      "SliceLocation": -69.518604214194,
      "SliceThickness": 2.4000000953674,
      "SmallestImagePixelValue": 0,
      "SoftwareVersions": "syngo MR E11",
      "SpacingBetweenSlices": 2.3999999880093,
      "SpecificCharacterSet": "ISO_IR 100",
      "StudyID": "1",
      "StudyTime": "162113.200000",
      "TransmitCoilName": "Body",
      "VariableFlipAngleFlag": "N",
      "WindowCenterWidthExplanation": "Algo1",
      "dBdt": 0.0},
    "slices": {}
  },
  "time": {
    "samples": {
      "AcquisitionNumber": [1, 2, 3, 4, 5, 6, 7, 8, 9, 10, 11, 12, 13, 14, 15, 16, 17, 18, 19, 20, 21, 22, 23, 24, 25, 26, 27, 28, 29, 30, 31, 32, 33, 34, 35, 36, 37, 38, 39, 40, 41, 42, 43, 44, 45, 46, 47, 48, 49, 50, 51, 52, 53, 54, 55, 56, 57, 58, 59, 60, 61, 62, 63, 64, 65, 66, 67, 68, 69, 70, 71, 72, 73, 74, 75, 76, 77, 78, 79, 80, 81, 82, 83, 84, 85, 86, 87, 88, 89, 90, 91, 92, 93, 94, 95, 96, 97, 98, 99, 100, 101, 102, 103, 104, 105, 106, 107, 108, 109, 110, 111, 112, 113, 114, 115, 116, 117, 118, 119, 120, 121, 122, 123, 124, 125],
      "AcquisitionTime": ["171616.862500", "171618.062500", "171619.262500", "171620.462500", "171621.662500", "171622.862500", "171624.062500", "171625.262500", "171626.462500", "171627.662500", "171628.862500", "171630.062500", "171631.262500", "171632.462500", "171633.662500", "171634.862500", "171636.062500", "171637.262500", "171638.462500", "171639.662500", "171640.862500", "171642.062500", "171643.262500", "171644.462500", "171645.662500", "171646.862500", "171648.062500", "171649.262500", "171650.462500", "171651.662500", "171652.862500", "171654.062500", "171655.262500", "171656.462500", "171657.662500", "171658.862500", "171700.062500", "171701.262500", "171702.462500", "171703.662500", "171704.862500", "171706.062500", "171707.262500", "171708.462500", "171709.662500", "171710.862500", "171712.062500", "171713.262500", "171714.462500", "171715.662500", "171716.862500", "171718.062500", "171719.262500", "171720.462500", "171721.662500", "171722.862500", "171724.062500", "171725.262500", "171726.462500", "171727.662500", "171728.862500", "171730.062500", "171731.262500", "171732.462500", "171733.662500", "171734.862500", "171736.062500", "171737.262500", "171738.462500", "171739.662500", "171740.862500", "171742.062500", "171743.262500", "171744.462500", "171745.662500", "171746.862500", "171748.062500", "171749.262500", "171750.462500", "171751.662500", "171752.862500", "171754.062500", "171755.262500", "171756.462500", "171757.662500", "171758.862500", "171800.062500", "171801.262500", "171802.462500", "171803.662500", "171804.862500", "171806.062500", "171807.262500", "171808.462500", "171809.662500", "171810.862500", "171812.062500", "171813.262500", "171814.462500", "171815.662500", "171816.862500", "171818.062500", "171819.262500", "171820.462500", "171821.662500", "171822.862500", "171824.062500", "171825.262500", "171826.462500", "171827.662500", "171828.862500", "171830.062500", "171831.262500", "171832.462500", "171833.662500", "171834.862500", "171836.062500", "171837.262500", "171838.462500", "171839.662500", "171840.862500", "171842.062500", "171843.262500", "171844.462500", "171845.662500"],
      "ContentTime": ["171649.047000", "171649.050000", "171649.053000", "171649.064000", "171649.066000", "171649.069000", "171649.074000", "171649.077000", "171649.085000", "171649.087000", "171649.090000", "171649.093000", "171649.095000", "171649.124000", "171649.126000", "171649.129000", "171649.132000", "171649.134000", "171649.137000", "171649.139000", "171649.142000", "171649.145000", "171649.147000", "171649.150000", "171649.152000", "171649.155000", "171729.043000", "171729.045000", "171729.048000", "171729.050000", "171729.053000", "171729.056000", "171729.058000", "171729.061000", "171729.064000", "171729.066000", "171729.069000", "171729.071000", "171729.074000", "171729.076000", "171729.079000", "171729.081000", "171729.084000", "171729.087000", "171729.089000", "171729.094000", "171729.097000", "171729.099000", "171729.102000", "171729.104000", "171729.107000", "171729.110000", "171729.112000", "171729.115000", "171729.117000", "171729.120000", "171729.123000", "171729.125000", "171729.128000", "171729.130000", "171809.043000", "171809.045000", "171809.048000", "171809.051000", "171809.053000", "171809.056000", "171809.058000", "171809.061000", "171809.064000", "171809.066000", "171809.069000", "171809.071000", "171809.074000", "171809.077000", "171809.079000", "171809.082000", "171809.084000", "171809.087000", "171809.089000", "171809.092000", "171809.095000", "171809.097000", "171809.100000", "171809.102000", "171809.105000", "171809.107000", "171809.110000", "171809.113000", "171809.115000", "171809.118000", "171809.120000", "171809.123000", "171809.126000", "171846.941000", "171846.944000", "171846.947000", "171846.949000", "171846.952000", "171846.955000", "171846.958000", "171846.960000", "171846.963000", "171846.966000", "171846.969000", "171846.971000", "171846.974000", "171846.977000", "171846.979000", "171846.982000", "171846.985000", "171846.987000", "171846.990000", "171846.993000", "171846.995000", "171846.998000", "171847.002000", "171847.004000", "171847.007000", "171847.009000", "171847.012000", "171847.015000", "171847.017000", "171847.020000", "171847.022000", "171847.025000"],
      "InstanceCreationTime": ["171649.047000", "171649.050000", "171649.053000", "171649.064000", "171649.066000", "171649.069000", "171649.074000", "171649.077000", "171649.085000", "171649.087000", "171649.090000", "171649.093000", "171649.095000", "171649.124000", "171649.126000", "171649.129000", "171649.132000", "171649.134000", "171649.137000", "171649.139000", "171649.142000", "171649.145000", "171649.147000", "171649.150000", "171649.152000", "171649.155000", "171729.043000", "171729.045000", "171729.048000", "171729.050000", "171729.053000", "171729.056000", "171729.058000", "171729.061000", "171729.064000", "171729.066000", "171729.069000", "171729.071000", "171729.074000", "171729.076000", "171729.079000", "171729.081000", "171729.084000", "171729.087000", "171729.089000", "171729.094000", "171729.097000", "171729.099000", "171729.102000", "171729.104000", "171729.107000", "171729.110000", "171729.112000", "171729.115000", "171729.117000", "171729.120000", "171729.123000", "171729.125000", "171729.128000", "171729.130000", "171809.043000", "171809.045000", "171809.048000", "171809.051000", "171809.053000", "171809.056000", "171809.058000", "171809.061000", "171809.064000", "171809.066000", "171809.069000", "171809.071000", "171809.074000", "171809.077000", "171809.079000", "171809.082000", "171809.084000", "171809.087000", "171809.089000", "171809.092000", "171809.095000", "171809.097000", "171809.100000", "171809.102000", "171809.105000", "171809.107000", "171809.110000", "171809.113000", "171809.115000", "171809.118000", "171809.120000", "171809.123000", "171809.126000", "171846.941000", "171846.944000", "171846.947000", "171846.949000", "171846.952000", "171846.955000", "171846.958000", "171846.960000", "171846.963000", "171846.966000", "171846.969000", "171846.971000", "171846.974000", "171846.977000", "171846.979000", "171846.982000", "171846.985000", "171846.987000", "171846.990000", "171846.993000", "171846.995000", "171846.998000", "171847.002000", "171847.004000", "171847.007000", "171847.009000", "171847.012000", "171847.015000", "171847.017000", "171847.020000", "171847.022000", "171847.025000"],
      "InstanceNumber": [1, 2, 3, 4, 5, 6, 7, 8, 9, 10, 11, 12, 13, 14, 15, 16, 17, 18, 19, 20, 21, 22, 23, 24, 25, 26, 27, 28, 29, 30, 31, 32, 33, 34, 35, 36, 37, 38, 39, 40, 41, 42, 43, 44, 45, 46, 47, 48, 49, 50, 51, 52, 53, 54, 55, 56, 57, 58, 59, 60, 61, 62, 63, 64, 65, 66, 67, 68, 69, 70, 71, 72, 73, 74, 75, 76, 77, 78, 79, 80, 81, 82, 83, 84, 85, 86, 87, 88, 89, 90, 91, 92, 93, 94, 95, 96, 97, 98, 99, 100, 101, 102, 103, 104, 105, 106, 107, 108, 109, 110, 111, 112, 113, 114, 115, 116, 117, 118, 119, 120, 121, 122, 123, 124, 125],
      "LargestImagePixelValue": [2252, 2164, 2114, 2083, 2058, 2061, 2094, 2102, 2051, 2047, 2052, 2056, 2072, 2081, 2096, 2129, 2045, 2050, 2097, 2045, 2077, 2070, 2040, 2056, 2098, 2129, 2040, 2045, 2101, 2031, 2049, 2089, 2042, 2047, 2054, 2037, 2101, 2039, 2036, 2052, 2028, 2034, 2059, 2011, 2043, 2073, 2025, 2029, 2137, 2032, 2041, 2063, 2052, 2058, 2041, 2036, 2043, 2062, 2042, 2099, 2024, 2110, 2027, 2030, 2109, 2012, 2047, 2065, 2036, 2032, 2098, 2036, 2083, 2049, 2043, 2055, 2043, 2011, 2046, 2024, 2043, 2032, 2041, 2037, 2024, 2030, 2066, 2041, 2057, 2018, 2015, 2072, 2103, 2106, 2062, 2060, 2043, 2101, 2075, 2039, 2091, 2057, 2057, 2122, 2090, 2014, 2015, 2088, 2048, 2024, 2036, 2027, 2022, 2027, 2023, 2017, 2041, 2100, 2057, 2012, 2022, 2019, 2020, 2040, 2033],
      "WindowCenter": [623.0, 619.0, 618.0, 616.0, 615.0, 614.0, 614.0, 614.0, 613.0, 611.0, 612.0, 612.0, 614.0, 614.0, 614.0, 614.0, 613.0, 613.0, 614.0, 613.0, 614.0, 615.0, 614.0, 614.0, 615.0, 615.0, 615.0, 614.0, 615.0, 615.0, 616.0, 617.0, 617.0, 617.0, 616.0, 616.0, 617.0, 616.0, 616.0, 617.0, 617.0, 618.0, 618.0, 617.0, 616.0, 616.0, 615.0, 615.0, 617.0, 616.0, 616.0, 616.0, 617.0, 617.0, 618.0, 618.0, 618.0, 619.0, 618.0, 619.0, 618.0, 619.0, 619.0, 619.0, 619.0, 617.0, 616.0, 617.0, 616.0, 617.0, 619.0, 618.0, 618.0, 618.0, 617.0, 617.0, 616.0, 615.0, 615.0, 614.0, 614.0, 615.0, 616.0, 616.0, 617.0, 617.0, 618.0, 617.0, 617.0, 616.0, 616.0, 617.0, 617.0, 616.0, 615.0, 614.0, 614.0, 614.0, 614.0, 614.0, 616.0, 616.0, 617.0, 618.0, 618.0, 616.0, 616.0, 617.0, 617.0, 616.0, 616.0, 616.0, 617.0, 617.0, 617.0, 617.0, 618.0, 618.0, 616.0, 615.0, 615.0, 615.0, 614.0, 614.0, 613.0],
      "WindowWidth": [1323.0, 1313.0, 1309.0, 1305.0, 1302.0, 1301.0, 1300.0, 1301.0, 1297.0, 1293.0, 1295.0, 1296.0, 1300.0, 1300.0, 1301.0, 1301.0, 1298.0, 1299.0, 1300.0, 1299.0, 1301.0, 1301.0, 1301.0, 1301.0, 1302.0, 1303.0, 1301.0, 1301.0, 1303.0, 1303.0, 1305.0, 1308.0, 1306.0, 1307.0, 1306.0, 1305.0, 1306.0, 1305.0, 1305.0, 1307.0, 1308.0, 1309.0, 1308.0, 1306.0, 1305.0, 1305.0, 1302.0, 1303.0, 1307.0, 1304.0, 1304.0, 1305.0, 1306.0, 1307.0, 1308.0, 1310.0, 1310.0, 1311.0, 1310.0, 1311.0, 1310.0, 1312.0, 1311.0, 1311.0, 1311.0, 1307.0, 1306.0, 1306.0, 1305.0, 1306.0, 1310.0, 1309.0, 1310.0, 1308.0, 1307.0, 1306.0, 1304.0, 1302.0, 1302.0, 1300.0, 1300.0, 1302.0, 1305.0, 1306.0, 1306.0, 1307.0, 1308.0, 1307.0, 1307.0, 1305.0, 1305.0, 1306.0, 1305.0, 1304.0, 1301.0, 1300.0, 1299.0, 1300.0, 1300.0, 1300.0, 1303.0, 1305.0, 1307.0, 1309.0, 1307.0, 1305.0, 1305.0, 1307.0, 1306.0, 1305.0, 1306.0, 1306.0, 1306.0, 1307.0, 1307.0, 1308.0, 1310.0, 1309.0, 1305.0, 1303.0, 1303.0, 1302.0, 1301.0, 1299.0, 1297.0]
    },
    "slices": {}
  }
}