{
  "AcquisitionMatrixPE": 88,
  "AcquisitionNumber": 1,
  "AcquisitionTime": "16:39:44.325000",
  "BandwidthPerPixelPhaseEncode": 19.592,
  "BaseResolution": 88,
  "BodyPartExamined": "BRAIN",
  "ConsistencyInfo": "N4_VE11C_LATEST_20160120",
  "ConversionSoftware": "dcm2niix",
  "ConversionSoftwareVersion": "v1.0.20190902",
  "DerivedVendorReportedEchoSpacing": 0.000580014,
  "DeviceSerialNumber": "67050",
  "DwellTime": 2.6e-06,
  "EchoTime": 0.033,
  "EchoTrainLength": 88,
  "EffectiveEchoSpacing": 0.000580014,
  "FlipAngle": 62,
  "ImageOrientationPatientDICOM": [0.999597, -0.0169675, 0.0227395, 0.0181461, 0.998447, -0.0526698],
  "ImageType": [
    "ORIGINAL",
    "PRIMARY",
    "M",
    "ND",
    "MOSAIC"
],
  "ImagingFrequency": 123.251,
  "InPlanePhaseEncodingDirectionDICOM": "COL",
  "InstitutionAddress": "Olive_Street_60_Providence_RI_US_02912",
  "InstitutionName": "BROWN_UNIVERSITY_MRF",
  "InstitutionalDepartmentName": "Department",
  "MRAcquisitionType": "2D",
  "MagneticFieldStrength": 3,
  "Manufacturer": "Siemens",
  "ManufacturersModelName": "Prisma_fit",
  "Modality": "MR",
  "MultibandAccelerationFactor": 4,
  "PartialFourier": 1,
  "PatientPosition": "HFS",
  "PercentPhaseFOV": 100,
  "PhaseEncodingDirection": "j-",
  "PhaseEncodingSteps": 88,
  "PhaseResolution": 1,
  "PixelBandwidth": 2185,
  "ProcedureStepDescription": "ASHENHAV_1222",
  "ProtocolName": "func-bold_task-RDMmotion_run-02",
  "PulseSequenceDetails": "%SiemensSeq%_ep2d_bold",
  "ReceiveCoilActiveElements": "HC1-7",
  "ReceiveCoilName": "HeadNeck_64",
  "ReconMatrixPE": 88,
  "RefLinesPE": 8,
  "RepetitionTime": 1.2,
  "SAR": 0.0639281,
  "ScanOptions": "FS",
  "ScanningSequence": "EP",
  "SequenceName": "_epfid2d1_88",
  "SequenceVariant": "SK",
  "SeriesDescription": "func-bold_task-RDMmotion_run-02",
  "SeriesNumber": 9,
  "ShimSetting": [1755, -9095, 4424, 486, -83, -65, -86, -12],
  "SliceThickness": 2.4,
  "SliceTiming": [0.5525, 0, 0.63, 0.08, 0.71, 0.1575, 0.7875, 0.2375, 0.865, 0.315, 0.945, 0.395, 1.0225, 0.4725, 1.1025, 0.5525, 0, 0.63, 0.08, 0.71, 0.1575, 0.7875, 0.2375, 0.865, 0.315, 0.945, 0.395, 1.0225, 0.4725, 1.1025, 0.5525, 0, 0.63, 0.08, 0.71, 0.1575, 0.7875, 0.2375, 0.865, 0.315, 0.945, 0.395, 1.0225, 0.4725, 1.1025, 0.5525, 0, 0.63, 0.08, 0.71, 0.1575, 0.7875, 0.2375, 0.865, 0.315, 0.945, 0.395, 1.0225, 0.4725, 1.1025],
  "SoftwareVersions": "syngo_MR_E11",
  "SpacingBetweenSlices": 2.4,
  "StationName": "AWP67050",
  "TaskName": "RDMmotion",
  "TotalReadoutTime": 0.0504612,
  "TxRefAmp": 250.311,
  "dcmmeta_affine": [
    [-2.396761894226074, 0.04350942373275757, 0.05234532058238983, 104.64691162109375],
    [0.040683358907699585, 2.3940038681030273, -0.127346932888031, -89.98493194580078],
    [0.054523203521966934, 0.1262877881526947, 2.396047353744507, -76.7020492553711],
    [0.0, 0.0, 0.0, 1.0]
],
  "dcmmeta_reorient_transform": [
    [0.0, -1.0, 0.0, 87.0],
    [1.0, 0.0, 0.0, 0.0],
    [0.0, 0.0, 1.0, 0.0],
    [0.0, 0.0, 0.0, 1.0]
],
  "dcmmeta_shape": [88, 88, 60, 125],
  "dcmmeta_slice_dim": 2,
  "dcmmeta_version": 0.6,
  "global": {
    "const": {
      "AcquisitionMatrix": [88, 0, 0, 88],
      "AngioFlag": "N",
      "BitsAllocated": 16,
      "BitsStored": 12,
      "BodyPartExamined": "BRAIN",
      "Columns": 704,
      "DeidentificationMethodCodeSequence": [
        {
          "CodeMeaning": "XNAT DicomEdit 6 Script",
          "CodeValue": "3",
          "CodingSchemeDesignator": "XNAT",
          "CodingSchemeVersion": "1.0"}
],
      "EchoNumbers": 1,
      "EchoTime": 33.0,
      "EchoTrainLength": 88,
      "FlipAngle": 62.0,
      "HighBit": 11,
      "ImageOrientationPatient": [0.99959742827093, -0.0169674670896, 0.02273953505933, 0.01814610997047, 0.99844710018445, -0.0526697904514],
      "ImagePositionPatient": [-860.03582705944, -843.11609917729, -43.61151482393],
      "ImageType": [
        "ORIGINAL",
        "PRIMARY",
        "M",
        "ND",
        "MOSAIC"
],
      "ImagedNucleus": "1H",
      "ImagingFrequency": 123.250751,
      "InPlanePhaseEncodingDirection": "COL",
      "MRAcquisitionType": "2D",
      "MagneticFieldStrength": 3.0,
      "Manufacturer": "SIEMENS",
      "ManufacturerModelName": "Prisma_fit",
      "Modality": "MR",
      "NumberOfAverages": 1.0,
      "NumberOfPhaseEncodingSteps": 88,
      "PercentPhaseFieldOfView": 100.0,
      "PercentSampling": 100.0,
      "PerformedProcedureStepStartTime": "162113.275000",
      "PhotometricInterpretation": "MONOCHROME2",
      "PixelBandwidth": 2185.0,
      "PixelRepresentation": 0,
      "PixelSpacing": [2.3977272510529, 2.3977272510529],
      "ProtocolName": "func-bold_task-RDMmotion_run-02",
      "RepetitionTime": 1200.0,
      "Rows": 704,
      "SAR": 0.06392812537158,
      "SamplesPerPixel": 1,
      "ScanOptions": "FS",
      "ScanningSequence": "EP",
      "SequenceName": "*epfid2d1_88",
      "SequenceVariant": "SK",
      "SeriesDescription": "func-bold_task-RDMmotion_run-02",
      "SeriesNumber": 9,
      "SeriesTime": "164009.043000",
      "SliceLocation": -69.518604214194,
      "SliceThickness": 2.4000000953674,
      "SmallestImagePixelValue": 0,
      "SoftwareVersions": "syngo MR E11",
      "SpacingBetweenSlices": 2.3999999880093,
      "SpecificCharacterSet": "ISO_IR 100",
      "StudyID": "1",
      "StudyTime": "162113.200000",
      "TransmitCoilName": "Body",
      "VariableFlipAngleFlag": "N",
      "WindowCenterWidthExplanation": "Algo1",
      "dBdt": 0.0},
    "slices": {}
  },
  "time": {
    "samples": {
      "AcquisitionNumber": [1, 2, 3, 4, 5, 6, 7, 8, 9, 10, 11, 12, 13, 14, 15, 16, 17, 18, 19, 20, 21, 22, 23, 24, 25, 26, 27, 28, 29, 30, 31, 32, 33, 34, 35, 36, 37, 38, 39, 40, 41, 42, 43, 44, 45, 46, 47, 48, 49, 50, 51, 52, 53, 54, 55, 56, 57, 58, 59, 60, 61, 62, 63, 64, 65, 66, 67, 68, 69, 70, 71, 72, 73, 74, 75, 76, 77, 78, 79, 80, 81, 82, 83, 84, 85, 86, 87, 88, 89, 90, 91, 92, 93, 94, 95, 96, 97, 98, 99, 100, 101, 102, 103, 104, 105, 106, 107, 108, 109, 110, 111, 112, 113, 114, 115, 116, 117, 118, 119, 120, 121, 122, 123, 124, 125],
      "AcquisitionTime": ["163944.325000", "163945.525000", "163946.725000", "163947.925000", "163949.125000", "163950.325000", "163951.525000", "163952.725000", "163953.925000", "163955.125000", "163956.325000", "163957.525000", "163958.725000", "163959.925000", "164001.125000", "164002.325000", "164003.525000", "164004.725000", "164005.925000", "164007.125000", "164008.325000", "164009.525000", "164010.725000", "164011.925000", "164013.125000", "164014.325000", "164015.525000", "164016.725000", "164017.925000", "164019.125000", "164020.325000", "164021.525000", "164022.725000", "164023.925000", "164025.125000", "164026.325000", "164027.525000", "164028.725000", "164029.925000", "164031.125000", "164032.325000", "164033.525000", "164034.725000", "164035.925000", "164037.125000", "164038.325000", "164039.525000", "164040.725000", "164041.925000", "164043.125000", "164044.325000", "164045.525000", "164046.725000", "164047.925000", "164049.125000", "164050.325000", "164051.525000", "164052.725000", "164053.925000", "164055.125000", "164056.325000", "164057.525000", "164058.725000", "164059.925000", "164101.125000", "164102.325000", "164103.525000", "164104.725000", "164105.925000", "164107.125000", "164108.325000", "164109.525000", "164110.725000", "164111.925000", "164113.125000", "164114.325000", "164115.525000", "164116.725000", "164117.925000", "164119.125000", "164120.325000", "164121.525000", "164122.725000", "164123.925000", "164125.125000", "164126.325000", "164127.525000", "164128.725000", "164129.925000", "164131.125000", "164132.325000", "164133.525000", "164134.725000", "164135.925000", "164137.125000", "164138.325000", "164139.525000", "164140.725000", "164141.925000", "164143.125000", "164144.325000", "164145.525000", "164146.725000", "164147.925000", "164149.125000", "164150.325000", "164151.525000", "164152.725000", "164153.925000", "164155.125000", "164156.325000", "164157.525000", "164158.725000", "164159.925000", "164201.125000", "164202.325000", "164203.525000", "164204.725000", "164205.925000", "164207.125000", "164208.325000", "164209.525000", "164210.725000", "164211.925000", "164213.125000"],
      "ContentTime": ["164009.047000", "164009.050000", "164009.053000", "164009.055000", "164009.058000", "164009.060000", "164009.063000", "164009.074000", "164009.077000", "164009.079000", "164009.089000", "164009.091000", "164009.094000", "164009.097000", "164009.103000", "164009.106000", "164009.109000", "164009.111000", "164009.114000", "164009.116000", "164049.042000", "164049.045000", "164049.048000", "164049.056000", "164049.059000", "164049.061000", "164049.064000", "164049.081000", "164049.084000", "164049.087000", "164049.089000", "164049.092000", "164049.094000", "164049.097000", "164049.099000", "164049.102000", "164049.105000", "164049.107000", "164049.110000", "164049.113000", "164049.115000", "164049.118000", "164049.120000", "164049.123000", "164049.126000", "164049.128000", "164049.131000", "164049.134000", "164049.136000", "164049.139000", "164049.141000", "164049.144000", "164049.146000", "164049.149000", "164129.043000", "164129.045000", "164129.048000", "164129.051000", "164129.054000", "164129.056000", "164129.059000", "164129.061000", "164129.064000", "164129.066000", "164129.069000", "164129.072000", "164129.074000", "164129.077000", "164129.079000", "164129.082000", "164129.085000", "164129.087000", "164129.090000", "164129.092000", "164129.095000", "164129.097000", "164129.100000", "164129.103000", "164129.105000", "164129.108000", "164129.111000", "164129.113000", "164129.121000", "164129.123000", "164129.126000", "164129.129000", "164129.131000", "164149.043000", "164149.045000", "164149.048000", "164149.051000", "164149.053000", "164149.056000", "164149.059000", "164149.061000", "164149.064000", "164149.067000", "164149.069000", "164149.072000", "164149.074000", "164149.077000", "164149.079000", "164149.082000", "164149.085000", "164214.232000", "164214.235000", "164214.237000", "164214.240000", "164214.243000", "164214.246000", "164214.249000", "164214.251000", "164214.254000", "164214.257000", "164214.260000", "164214.262000", "164214.265000", "164214.282000", "164214.285000", "164214.288000", "164214.297000", "164214.300000", "164214.303000", "164214.306000", "164214.309000"],
      "InstanceCreationTime": ["164009.047000", "164009.050000", "164009.053000", "164009.055000", "164009.058000", "164009.060000", "164009.063000", "164009.074000", "164009.077000", "164009.079000", "164009.089000", "164009.091000", "164009.094000", "164009.097000", "164009.103000", "164009.106000", "164009.109000", "164009.111000", "164009.114000", "164009.116000", "164049.042000", "164049.045000", "164049.048000", "164049.056000", "164049.059000", "164049.061000", "164049.064000", "164049.081000", "164049.084000", "164049.087000", "164049.089000", "164049.092000", "164049.094000", "164049.097000", "164049.099000", "164049.102000", "164049.105000", "164049.107000", "164049.110000", "164049.113000", "164049.115000", "164049.118000", "164049.120000", "164049.123000", "164049.126000", "164049.128000", "164049.131000", "164049.134000", "164049.136000", "164049.139000", "164049.141000", "164049.144000", "164049.146000", "164049.149000", "164129.043000", "164129.045000", "164129.048000", "164129.051000", "164129.054000", "164129.056000", "164129.059000", "164129.061000", "164129.064000", "164129.066000", "164129.069000", "164129.072000", "164129.074000", "164129.077000", "164129.079000", "164129.082000", "164129.085000", "164129.087000", "164129.090000", "164129.092000", "164129.095000", "164129.097000", "164129.100000", "164129.103000", "164129.105000", "164129.108000", "164129.111000", "164129.113000", "164129.121000", "164129.123000", "164129.126000", "164129.129000", "164129.131000", "164149.043000", "164149.045000", "164149.048000", "164149.051000", "164149.053000", "164149.056000", "164149.059000", "164149.061000", "164149.064000", "164149.067000", "164149.069000", "164149.072000", "164149.074000", "164149.077000", "164149.079000", "164149.082000", "164149.085000", "164214.232000", "164214.235000", "164214.237000", "164214.240000", "164214.243000", "164214.246000", "164214.249000", "164214.251000", "164214.254000", "164214.257000", "164214.260000", "164214.262000", "164214.265000", "164214.282000", "164214.285000", "164214.288000", "164214.297000", "164214.300000", "164214.303000", "164214.306000", "164214.309000"],
      "InstanceNumber": [1, 2, 3, 4, 5, 6, 7, 8, 9, 10, 11, 12, 13, 14, 15, 16, 17, 18, 19, 20, 21, 22, 23, 24, 25, 26, 27, 28, 29, 30, 31, 32, 33, 34, 35, 36, 37, 38, 39, 40, 41, 42, 43, 44, 45, 46, 47, 48, 49, 50, 51, 52, 53, 54, 55, 56, 57, 58, 59, 60, 61, 62, 63, 64, 65, 66, 67, 68, 69, 70, 71, 72, 73, 74, 75, 76, 77, 78, 79, 80, 81, 82, 83, 84, 85, 86, 87, 88, 89, 90, 91, 92, 93, 94, 95, 96, 97, 98, 99, 100, 101, 102, 103, 104, 105, 106, 107, 108, 109, 110, 111, 112, 113, 114, 115, 116, 117, 118, 119, 120, 121, 122, 123, 124, 125],
      "LargestImagePixelValue": [2132, 2056, 2056, 2009, 2012, 2018, 1996, 2032, 1994, 2008, 1999, 2014, 1994, 2008, 2031, 1990, 2001, 2000, 2005, 1992, 2023, 1996, 2006, 2014, 2006, 2074, 2010, 2041, 1999, 2014, 2062, 2010, 2041, 2015, 2033, 2026, 2017, 2068, 2075, 2007, 2005, 2023, 2034, 2017, 2016, 2013, 2018, 2033, 2032, 2043, 2048, 2026, 2023, 2027, 2011, 2077, 2015, 2014, 2001, 2051, 2010, 2040, 2040, 2037, 2034, 2032, 2011, 2024, 2003, 2037, 2042, 2047, 2032, 2038, 2045, 2039, 2041, 2040, 2033, 2027, 2038, 2028, 2121, 2003, 2031, 2061, 2059, 2007, 2039, 2015, 2011, 2003, 2034, 2036, 2009, 2100, 2072, 2070, 2065, 2012, 2028, 2006, 2004, 2019, 2023, 2021, 2089, 2001, 2066, 2128, 2109, 2003, 2044, 2091, 2007, 2026, 2017, 2003, 2033, 2033, 2009, 2035, 2021, 2023, 2020],
      "WindowCenter": [621.0, 618.0, 618.0, 617.0, 617.0, 617.0, 616.0, 617.0, 615.0, 614.0, 614.0, 615.0, 615.0, 615.0, 615.0, 615.0, 614.0, 614.0, 614.0, 614.0, 615.0, 615.0, 615.0, 615.0, 615.0, 616.0, 615.0, 615.0, 615.0, 616.0, 616.0, 615.0, 615.0, 615.0, 616.0, 616.0, 616.0, 617.0, 618.0, 617.0, 616.0, 616.0, 616.0, 615.0, 614.0, 614.0, 614.0, 614.0, 615.0, 615.0, 615.0, 615.0, 615.0, 616.0, 617.0, 618.0, 617.0, 616.0, 615.0, 615.0, 614.0, 614.0, 614.0, 614.0, 615.0, 616.0, 615.0, 614.0, 613.0, 614.0, 614.0, 614.0, 613.0, 612.0, 612.0, 612.0, 613.0, 613.0, 613.0, 613.0, 613.0, 614.0, 619.0, 618.0, 618.0, 618.0, 617.0, 616.0, 616.0, 616.0, 617.0, 617.0, 617.0, 616.0, 616.0, 617.0, 617.0, 616.0, 615.0, 615.0, 615.0, 615.0, 615.0, 616.0, 616.0, 617.0, 619.0, 618.0, 619.0, 620.0, 619.0, 617.0, 617.0, 618.0, 617.0, 617.0, 615.0, 614.0, 614.0, 614.0, 613.0, 614.0, 613.0, 613.0, 614.0],
      "WindowWidth": [1319.0, 1311.0, 1310.0, 1309.0, 1309.0, 1308.0, 1307.0, 1307.0, 1304.0, 1302.0, 1302.0, 1304.0, 1303.0, 1303.0, 1304.0, 1303.0, 1302.0, 1302.0, 1301.0, 1302.0, 1303.0, 1303.0, 1303.0, 1304.0, 1303.0, 1305.0, 1304.0, 1304.0, 1304.0, 1305.0, 1306.0, 1304.0, 1304.0, 1304.0, 1306.0, 1306.0, 1307.0, 1308.0, 1309.0, 1307.0, 1306.0, 1306.0, 1305.0, 1303.0, 1301.0, 1300.0, 1301.0, 1302.0, 1303.0, 1303.0, 1303.0, 1302.0, 1303.0, 1305.0, 1307.0, 1309.0, 1308.0, 1305.0, 1303.0, 1304.0, 1302.0, 1302.0, 1302.0, 1302.0, 1303.0, 1305.0, 1304.0, 1302.0, 1300.0, 1300.0, 1300.0, 1300.0, 1299.0, 1297.0, 1297.0, 1297.0, 1298.0, 1299.0, 1299.0, 1299.0, 1300.0, 1302.0, 1310.0, 1310.0, 1310.0, 1309.0, 1307.0, 1304.0, 1304.0, 1306.0, 1307.0, 1306.0, 1307.0, 1306.0, 1306.0, 1308.0, 1306.0, 1305.0, 1304.0, 1303.0, 1303.0, 1303.0, 1303.0, 1304.0, 1306.0, 1308.0, 1311.0, 1310.0, 1311.0, 1313.0, 1311.0, 1308.0, 1308.0, 1310.0, 1308.0, 1307.0, 1304.0, 1301.0, 1300.0, 1300.0, 1299.0, 1300.0, 1299.0, 1298.0, 1301.0]
    },
    "slices": {}
  }
}