{
  "AcquisitionMatrixPE": 88,
  "AcquisitionNumber": 1,
  "AcquisitionTime": "16:31:10.517500",
  "BandwidthPerPixelPhaseEncode": 19.592,
  "BaseResolution": 88,
  "BodyPartExamined": "BRAIN",
  "ConsistencyInfo": "N4_VE11C_LATEST_20160120",
  "ConversionSoftware": "dcm2niix",
  "ConversionSoftwareVersion": "v1.0.20190902",
  "DerivedVendorReportedEchoSpacing": 0.000580014,
  "DeviceSerialNumber": "67050",
  "DwellTime": 2.6e-06,
  "EchoTime": 0.033,
  "EchoTrainLength": 88,
  "EffectiveEchoSpacing": 0.000580014,
  "FlipAngle": 62,
  "ImageOrientationPatientDICOM": [0.999597, -0.0169675, 0.0227395, 0.0181461, 0.998447, -0.0526698],
  "ImageType": [
    "ORIGINAL",
    "PRIMARY",
    "M",
    "ND",
    "MOSAIC"
],
  "ImagingFrequency": 123.251,
  "InPlanePhaseEncodingDirectionDICOM": "COL",
  "InstitutionAddress": "Olive_Street_60_Providence_RI_US_02912",
  "InstitutionName": "BROWN_UNIVERSITY_MRF",
  "InstitutionalDepartmentName": "Department",
  "MRAcquisitionType": "2D",
  "MagneticFieldStrength": 3,
  "Manufacturer": "Siemens",
  "ManufacturersModelName": "Prisma_fit",
  "Modality": "MR",
  "MultibandAccelerationFactor": 4,
  "PartialFourier": 1,
  "PatientPosition": "HFS",
  "PercentPhaseFOV": 100,
  "PhaseEncodingDirection": "j-",
  "PhaseEncodingSteps": 88,
  "PhaseResolution": 1,
  "PixelBandwidth": 2185,
  "ProcedureStepDescription": "ASHENHAV_1222",
  "ProtocolName": "func-bold_task-RDMcolor_run-01",
  "PulseSequenceDetails": "%SiemensSeq%_ep2d_bold",
  "ReceiveCoilActiveElements": "HC1-7",
  "ReceiveCoilName": "HeadNeck_64",
  "ReconMatrixPE": 88,
  "RefLinesPE": 8,
  "RepetitionTime": 1.2,
  "SAR": 0.0645837,
  "ScanOptions": "FS",
  "ScanningSequence": "EP",
  "SequenceName": "_epfid2d1_88",
  "SequenceVariant": "SK",
  "SeriesDescription": "func-bold_task-RDMcolor_run-01",
  "SeriesNumber": 8,
  "ShimSetting": [1755, -9095, 4424, 486, -83, -65, -86, -12],
  "SliceThickness": 2.4,
  "SliceTiming": [0.55, 0, 0.6275, 0.0775, 0.7075, 0.1575, 0.785, 0.235, 0.865, 0.3125, 0.9425, 0.3925, 1.0225, 0.47, 1.1, 0.55, 0, 0.6275, 0.0775, 0.7075, 0.1575, 0.785, 0.235, 0.865, 0.3125, 0.9425, 0.3925, 1.0225, 0.47, 1.1, 0.55, 0, 0.6275, 0.0775, 0.7075, 0.1575, 0.785, 0.235, 0.865, 0.3125, 0.9425, 0.3925, 1.0225, 0.47, 1.1, 0.55, 0, 0.6275, 0.0775, 0.7075, 0.1575, 0.785, 0.235, 0.865, 0.3125, 0.9425, 0.3925, 1.0225, 0.47, 1.1],
  "SoftwareVersions": "syngo_MR_E11",
  "SpacingBetweenSlices": 2.4,
  "StationName": "AWP67050",
  "TaskName": "RDMcolor",
  "TotalReadoutTime": 0.0504612,
  "TxRefAmp": 250.311,
  "dcmmeta_affine": [
    [-2.396761894226074, 0.04350942373275757, 0.05234532058238983, 104.64691162109375],
    [0.040683358907699585, 2.3940038681030273, -0.127346932888031, -89.98493194580078],
    [0.054523203521966934, 0.1262877881526947, 2.396047353744507, -76.7020492553711],
    [0.0, 0.0, 0.0, 1.0]
],
  "dcmmeta_reorient_transform": [
    [0.0, -1.0, 0.0, 87.0],
    [1.0, 0.0, 0.0, 0.0],
    [0.0, 0.0, 1.0, 0.0],
    [0.0, 0.0, 0.0, 1.0]
],
  "dcmmeta_shape": [88, 88, 60, 392],
  "dcmmeta_slice_dim": 2,
  "dcmmeta_version": 0.6,
  "global": {
    "const": {
      "AcquisitionMatrix": [88, 0, 0, 88],
      "AngioFlag": "N",
      "BitsAllocated": 16,
      "BitsStored": 12,
      "BodyPartExamined": "BRAIN",
      "Columns": 704,
      "DeidentificationMethodCodeSequence": [
        {
          "CodeMeaning": "XNAT DicomEdit 6 Script",
          "CodeValue": "3",
          "CodingSchemeDesignator": "XNAT",
          "CodingSchemeVersion": "1.0"}
],
      "EchoNumbers": 1,
      "EchoTime": 33.0,
      "EchoTrainLength": 88,
      "FlipAngle": 62.0,
      "HighBit": 11,
      "ImageOrientationPatient": [0.99959742827093, -0.0169674670896, 0.02273953505933, 0.01814610997047, 0.99844710018445, -0.0526697904514],
      "ImagePositionPatient": [-860.03582705944, -843.11609917729, -43.61151482393],
      "ImageType": [
        "ORIGINAL",
        "PRIMARY",
        "M",
        "ND",
        "MOSAIC"
],
      "ImagedNucleus": "1H",
      "ImagingFrequency": 123.250749,
      "InPlanePhaseEncodingDirection": "COL",
      "MRAcquisitionType": "2D",
      "MagneticFieldStrength": 3.0,
      "Manufacturer": "SIEMENS",
      "ManufacturerModelName": "Prisma_fit",
      "Modality": "MR",
      "NumberOfAverages": 1.0,
      "NumberOfPhaseEncodingSteps": 88,
      "PercentPhaseFieldOfView": 100.0,
      "PercentSampling": 100.0,
      "PerformedProcedureStepStartTime": "162113.275000",
      "PhotometricInterpretation": "MONOCHROME2",
      "PixelBandwidth": 2185.0,
      "PixelRepresentation": 0,
      "PixelSpacing": [2.3977272510529, 2.3977272510529],
      "ProtocolName": "func-bold_task-RDMcolor_run-01",
      "RepetitionTime": 1200.0,
      "Rows": 704,
      "SAR": 0.06458367004092,
      "SamplesPerPixel": 1,
      "ScanOptions": "FS",
      "ScanningSequence": "EP",
      "SequenceName": "*epfid2d1_88",
      "SequenceVariant": "SK",
      "SeriesDescription": "func-bold_task-RDMcolor_run-01",
      "SeriesNumber": 8,
      "SeriesTime": "163131.369000",
      "SliceLocation": -69.518604214194,
      "SliceThickness": 2.4000000953674,
      "SmallestImagePixelValue": 0,
      "SoftwareVersions": "syngo MR E11",
      "SpacingBetweenSlices": 2.3999999880093,
      "SpecificCharacterSet": "ISO_IR 100",
      "StudyID": "1",
      "StudyTime": "162113.200000",
      "TransmitCoilName": "Body",
      "VariableFlipAngleFlag": "N",
      "WindowCenterWidthExplanation": "Algo1",
      "dBdt": 0.0},
    "slices": {}
  },
  "time": {
    "samples": {
      "AcquisitionNumber": [1, 2, 3, 4, 5, 6, 7, 8, 9, 10, 11, 12, 13, 14, 15, 16, 17, 18, 19, 20, 21, 22, 23, 24, 25, 26, 27, 28, 29, 30, 31, 32, 33, 34, 35, 36, 37, 38, 39, 40, 41, 42, 43, 44, 45, 46, 47, 48, 49, 50, 51, 52, 53, 54, 55, 56, 57, 58, 59, 60, 61, 62, 63, 64, 65, 66, 67, 68, 69, 70, 71, 72, 73, 74, 75, 76, 77, 78, 79, 80, 81, 82, 83, 84, 85, 86, 87, 88, 89, 90, 91, 92, 93, 94, 95, 96, 97, 98, 99, 100, 101, 102, 103, 104, 105, 106, 107, 108, 109, 110, 111, 112, 113, 114, 115, 116, 117, 118, 119, 120, 121, 122, 123, 124, 125, 126, 127, 128, 129, 130, 131, 132, 133, 134, 135, 136, 137, 138, 139, 140, 141, 142, 143, 144, 145, 146, 147, 148, 149, 150, 151, 152, 153, 154, 155, 156, 157, 158, 159, 160, 161, 162, 163, 164, 165, 166, 167, 168, 169, 170, 171, 172, 173, 174, 175, 176, 177, 178, 179, 180, 181, 182, 183, 184, 185, 186, 187, 188, 189, 190, 191, 192, 193, 194, 195, 196, 197, 198, 199, 200, 201, 202, 203, 204, 205, 206, 207, 208, 209, 210, 211, 212, 213, 214, 215, 216, 217, 218, 219, 220, 221, 222, 223, 224, 225, 226, 227, 228, 229, 230, 231, 232, 233, 234, 235, 236, 237, 238, 239, 240, 241, 242, 243, 244, 245, 246, 247, 248, 249, 250, 251, 252, 253, 254, 255, 256, 257, 258, 259, 260, 261, 262, 263, 264, 265, 266, 267, 268, 269, 270, 271, 272, 273, 274, 275, 276, 277, 278, 279, 280, 281, 282, 283, 284, 285, 286, 287, 288, 289, 290, 291, 292, 293, 294, 295, 296, 297, 298, 299, 300, 301, 302, 303, 304, 305, 306, 307, 308, 309, 310, 311, 312, 313, 314, 315, 316, 317, 318, 319, 320, 321, 322, 323, 324, 325, 326, 327, 328, 329, 330, 331, 332, 333, 334, 335, 336, 337, 338, 339, 340, 341, 342, 343, 344, 345, 346, 347, 348, 349, 350, 351, 352, 353, 354, 355, 356, 357, 358, 359, 360, 361, 362, 363, 364, 365, 366, 367, 368, 369, 370, 371, 372, 373, 374, 375, 376, 377, 378, 379, 380, 381, 382, 383, 384, 385, 386, 387, 388, 389, 390, 391, 392],
      "AcquisitionTime": ["163110.517500", "163111.717500", "163112.917500", "163114.117500", "163115.317500", "163116.517500", "163117.717500", "163118.917500", "163120.117500", "163121.317500", "163122.517500", "163123.717500", "163124.917500", "163126.117500", "163127.317500", "163128.517500", "163129.717500", "163130.917500", "163132.117500", "163133.317500", "163134.517500", "163135.717500", "163136.917500", "163138.117500", "163139.317500", "163140.517500", "163141.717500", "163142.917500", "163144.117500", "163145.317500", "163146.517500", "163147.717500", "163148.917500", "163150.117500", "163151.317500", "163152.517500", "163153.717500", "163154.917500", "163156.117500", "163157.317500", "163158.517500", "163159.717500", "163200.917500", "163202.117500", "163203.317500", "163204.517500", "163205.717500", "163206.917500", "163208.117500", "163209.317500", "163210.517500", "163211.717500", "163212.917500", "163214.117500", "163215.317500", "163216.517500", "163217.717500", "163218.917500", "163220.117500", "163221.317500", "163222.517500", "163223.717500", "163224.917500", "163226.117500", "163227.317500", "163228.517500", "163229.717500", "163230.917500", "163232.117500", "163233.317500", "163234.517500", "163235.717500", "163236.917500", "163238.117500", "163239.317500", "163240.517500", "163241.717500", "163242.917500", "163244.117500", "163245.317500", "163246.517500", "163247.717500", "163248.917500", "163250.117500", "163251.317500", "163252.517500", "163253.717500", "163254.917500", "163256.117500", "163257.317500", "163258.517500", "163259.717500", "163300.917500", "163302.117500", "163303.317500", "163304.517500", "163305.717500", "163306.917500", "163308.117500", "163309.317500", "163310.517500", "163311.717500", "163312.917500", "163314.117500", "163315.317500", "163316.517500", "163317.717500", "163318.917500", "163320.117500", "163321.317500", "163322.517500", "163323.717500", "163324.917500", "163326.117500", "163327.317500", "163328.517500", "163329.717500", "163330.917500", "163332.117500", "163333.317500", "163334.517500", "163335.717500", "163336.917500", "163338.117500", "163339.317500", "163340.517500", "163341.717500", "163342.917500", "163344.117500", "163345.317500", "163346.517500", "163347.717500", "163348.917500", "163350.117500", "163351.317500", "163352.517500", "163353.717500", "163354.917500", "163356.117500", "163357.317500", "163358.517500", "163359.717500", "163400.917500", "163402.117500", "163403.317500", "163404.517500", "163405.717500", "163406.917500", "163408.117500", "163409.317500", "163410.517500", "163411.717500", "163412.917500", "163414.117500", "163415.317500", "163416.517500", "163417.717500", "163418.917500", "163420.117500", "163421.317500", "163422.517500", "163423.717500", "163424.917500", "163426.117500", "163427.317500", "163428.517500", "163429.717500", "163430.917500", "163432.117500", "163433.317500", "163434.517500", "163435.717500", "163436.917500", "163438.117500", "163439.317500", "163440.517500", "163441.717500", "163442.917500", "163444.117500", "163445.317500", "163446.517500", "163447.717500", "163448.917500", "163450.117500", "163451.317500", "163452.517500", "163453.717500", "163454.917500", "163456.117500", "163457.317500", "163458.517500", "163459.717500", "163500.917500", "163502.117500", "163503.317500", "163504.517500", "163505.717500", "163506.917500", "163508.117500", "163509.317500", "163510.517500", "163511.717500", "163512.917500", "163514.117500", "163515.317500", "163516.517500", "163517.717500", "163518.917500", "163520.117500", "163521.317500", "163522.517500", "163523.717500", "163524.917500", "163526.117500", "163527.317500", "163528.517500", "163529.717500", "163530.917500", "163532.117500", "163533.317500", "163534.517500", "163535.717500", "163536.917500", "163538.117500", "163539.317500", "163540.517500", "163541.717500", "163542.917500", "163544.117500", "163545.317500", "163546.517500", "163547.717500", "163548.917500", "163550.117500", "163551.317500", "163552.517500", "163553.717500", "163554.917500", "163556.117500", "163557.317500", "163558.517500", "163559.717500", "163600.917500", "163602.117500", "163603.317500", "163604.517500", "163605.717500", "163606.917500", "163608.117500", "163609.317500", "163610.517500", "163611.717500", "163612.917500", "163614.117500", "163615.317500", "163616.517500", "163617.717500", "163618.917500", "163620.117500", "163621.317500", "163622.517500", "163623.717500", "163624.917500", "163626.117500", "163627.317500", "163628.517500", "163629.717500", "163630.917500", "163632.117500", "163633.317500", "163634.517500", "163635.717500", "163636.917500", "163638.117500", "163639.317500", "163640.517500", "163641.717500", "163642.917500", "163644.117500", "163645.317500", "163646.517500", "163647.717500", "163648.917500", "163650.117500", "163651.317500", "163652.517500", "163653.717500", "163654.917500", "163656.117500", "163657.317500", "163658.517500", "163659.717500", "163700.917500", "163702.117500", "163703.317500", "163704.517500", "163705.717500", "163706.917500", "163708.117500", "163709.317500", "163710.517500", "163711.717500", "163712.917500", "163714.117500", "163715.317500", "163716.517500", "163717.717500", "163718.917500", "163720.117500", "163721.317500", "163722.517500", "163723.717500", "163724.917500", "163726.117500", "163727.317500", "163728.517500", "163729.717500", "163730.917500", "163732.117500", "163733.317500", "163734.517500", "163735.717500", "163736.917500", "163738.117500", "163739.317500", "163740.517500", "163741.717500", "163742.917500", "163744.117500", "163745.317500", "163746.517500", "163747.717500", "163748.917500", "163750.117500", "163751.317500", "163752.517500", "163753.717500", "163754.917500", "163756.117500", "163757.317500", "163758.517500", "163759.717500", "163800.917500", "163802.117500", "163803.317500", "163804.517500", "163805.717500", "163806.917500", "163808.117500", "163809.317500", "163810.517500", "163811.717500", "163812.917500", "163814.117500", "163815.317500", "163816.517500", "163817.717500", "163818.917500", "163820.117500", "163821.317500", "163822.517500", "163823.717500", "163824.917500", "163826.117500", "163827.317500", "163828.517500", "163829.717500", "163830.917500", "163832.117500", "163833.317500", "163834.517500", "163835.717500", "163836.917500", "163838.117500", "163839.317500", "163840.517500", "163841.717500", "163842.917500", "163844.117500", "163845.317500", "163846.517500", "163847.717500", "163848.917500", "163850.117500", "163851.317500", "163852.517500", "163853.717500", "163854.917500", "163856.117500", "163857.317500", "163858.517500", "163859.717500"],
      "ContentTime": ["163131.373000", "163131.376000", "163131.379000", "163131.381000", "163131.384000", "163131.386000", "163131.389000", "163131.392000", "163131.394000", "163131.397000", "163131.399000", "163131.402000", "163131.412000", "163131.414000", "163131.417000", "163131.419000", "163211.368000", "163211.371000", "163211.374000", "163211.376000", "163211.379000", "163211.382000", "163211.384000", "163211.394000", "163211.396000", "163211.399000", "163211.401000", "163211.404000", "163211.406000", "163211.409000", "163211.411000", "163211.414000", "163211.416000", "163211.419000", "163211.421000", "163211.424000", "163211.426000", "163211.429000", "163211.432000", "163211.434000", "163211.437000", "163211.439000", "163211.442000", "163211.444000", "163211.447000", "163211.450000", "163211.452000", "163211.455000", "163211.457000", "163211.460000", "163251.367000", "163251.382000", "163251.385000", "163251.387000", "163251.390000", "163251.392000", "163251.395000", "163251.398000", "163251.400000", "163251.403000", "163251.405000", "163251.408000", "163251.410000", "163251.413000", "163251.416000", "163251.418000", "163251.421000", "163251.423000", "163251.426000", "163251.428000", "163251.431000", "163251.434000", "163251.436000", "163251.439000", "163251.442000", "163251.445000", "163251.447000", "163251.450000", "163251.453000", "163251.455000", "163251.458000", "163251.460000", "163251.463000", "163331.369000", "163331.371000", "163331.374000", "163331.377000", "163331.379000", "163331.382000", "163331.385000", "163331.387000", "163331.390000", "163331.392000", "163331.395000", "163331.397000", "163331.400000", "163331.402000", "163331.405000", "163331.408000", "163331.410000", "163331.413000", "163331.415000", "163331.418000", "163331.420000", "163331.423000", "163331.426000", "163331.428000", "163331.431000", "163331.433000", "163331.436000", "163331.438000", "163331.441000", "163331.443000", "163331.446000", "163331.448000", "163331.451000", "163411.368000", "163411.371000", "163411.374000", "163411.376000", "163411.379000", "163411.382000", "163411.384000", "163411.387000", "163411.389000", "163411.392000", "163411.394000", "163411.397000", "163411.399000", "163411.402000", "163411.404000", "163411.427000", "163411.430000", "163411.432000", "163411.435000", "163411.437000", "163411.440000", "163411.442000", "163411.445000", "163411.447000", "163411.450000", "163411.452000", "163411.455000", "163411.457000", "163411.460000", "163411.463000", "163411.465000", "163411.468000", "163411.470000", "163411.473000", "163451.368000", "163451.371000", "163451.374000", "163451.376000", "163451.379000", "163451.382000", "163451.384000", "163451.387000", "163451.389000", "163451.392000", "163451.395000", "163451.397000", "163451.400000", "163451.402000", "163451.405000", "163451.407000", "163451.410000", "163451.412000", "163451.415000", "163451.418000", "163451.420000", "163451.423000", "163451.425000", "163451.428000", "163451.431000", "163451.433000", "163451.436000", "163451.439000", "163451.442000", "163451.444000", "163451.447000", "163451.449000", "163451.452000", "163531.369000", "163531.372000", "163531.374000", "163531.377000", "163531.379000", "163531.382000", "163531.384000", "163531.387000", "163531.389000", "163531.392000", "163531.395000", "163531.397000", "163531.400000", "163531.402000", "163531.405000", "163531.407000", "163531.410000", "163531.413000", "163531.415000", "163531.418000", "163531.420000", "163531.423000", "163531.425000", "163531.428000", "163531.431000", "163531.433000", "163531.436000", "163531.438000", "163531.441000", "163531.443000", "163531.446000", "163531.449000", "163531.451000", "163611.369000", "163611.371000", "163611.374000", "163611.376000", "163611.379000", "163611.382000", "163611.384000", "163611.387000", "163611.390000", "163611.392000", "163611.395000", "163611.397000", "163611.400000", "163611.402000", "163611.405000", "163611.407000", "163611.410000", "163611.412000", "163611.415000", "163611.418000", "163611.420000", "163611.423000", "163611.425000", "163611.428000", "163611.430000", "163611.433000", "163611.436000", "163611.438000", "163611.441000", "163611.443000", "163611.446000", "163611.448000", "163611.451000", "163611.454000", "163651.368000", "163651.371000", "163651.374000", "163651.376000", "163651.379000", "163651.382000", "163651.384000", "163651.387000", "163651.389000", "163651.392000", "163651.395000", "163651.397000", "163651.400000", "163651.402000", "163651.405000", "163651.407000", "163651.410000", "163651.413000", "163651.415000", "163651.418000", "163651.421000", "163651.423000", "163651.426000", "163651.428000", "163651.431000", "163651.433000", "163651.436000", "163651.439000", "163651.442000", "163651.444000", "163651.447000", "163651.449000", "163651.452000", "163731.368000", "163731.371000", "163731.373000", "163731.376000", "163731.378000", "163731.381000", "163731.383000", "163731.386000", "163731.388000", "163731.391000", "163731.394000", "163731.396000", "163731.399000", "163731.401000", "163731.404000", "163731.407000", "163731.409000", "163731.412000", "163731.414000", "163731.417000", "163731.419000", "163731.422000", "163731.425000", "163731.427000", "163731.430000", "163731.432000", "163731.435000", "163731.438000", "163731.440000", "163731.443000", "163731.445000", "163731.448000", "163731.450000", "163811.369000", "163811.371000", "163811.374000", "163811.376000", "163811.379000", "163811.381000", "163811.384000", "163811.387000", "163811.389000", "163811.392000", "163811.394000", "163811.414000", "163811.417000", "163811.419000", "163811.426000", "163811.429000", "163811.432000", "163811.434000", "163811.437000", "163811.439000", "163811.442000", "163811.444000", "163811.447000", "163811.449000", "163811.452000", "163811.455000", "163811.457000", "163811.460000", "163811.462000", "163811.465000", "163811.467000", "163811.470000", "163811.472000", "163811.475000", "163851.368000", "163851.372000", "163851.374000", "163851.377000", "163851.379000", "163851.382000", "163851.385000", "163851.387000", "163851.390000", "163851.393000", "163851.395000", "163851.398000", "163851.400000", "163851.403000", "163851.406000", "163851.408000", "163851.411000", "163851.413000", "163851.416000", "163851.418000", "163851.421000", "163851.424000", "163851.426000", "163851.429000", "163851.431000", "163851.434000", "163851.437000", "163851.440000", "163851.442000", "163851.445000", "163851.448000", "163851.450000", "163851.453000", "163901.591000", "163901.594000", "163901.596000", "163901.599000", "163901.602000", "163901.605000", "163901.607000", "163901.610000", "163901.613000"],
      "InstanceCreationTime": ["163131.373000", "163131.376000", "163131.379000", "163131.381000", "163131.384000", "163131.386000", "163131.389000", "163131.392000", "163131.394000", "163131.397000", "163131.399000", "163131.402000", "163131.412000", "163131.414000", "163131.417000", "163131.419000", "163211.368000", "163211.371000", "163211.374000", "163211.376000", "163211.379000", "163211.382000", "163211.384000", "163211.394000", "163211.396000", "163211.399000", "163211.401000", "163211.404000", "163211.406000", "163211.409000", "163211.411000", "163211.414000", "163211.416000", "163211.419000", "163211.421000", "163211.424000", "163211.426000", "163211.429000", "163211.432000", "163211.434000", "163211.437000", "163211.439000", "163211.442000", "163211.444000", "163211.447000", "163211.450000", "163211.452000", "163211.455000", "163211.457000", "163211.460000", "163251.367000", "163251.382000", "163251.385000", "163251.387000", "163251.390000", "163251.392000", "163251.395000", "163251.398000", "163251.400000", "163251.403000", "163251.405000", "163251.408000", "163251.410000", "163251.413000", "163251.416000", "163251.418000", "163251.421000", "163251.423000", "163251.426000", "163251.428000", "163251.431000", "163251.434000", "163251.436000", "163251.439000", "163251.442000", "163251.445000", "163251.447000", "163251.450000", "163251.453000", "163251.455000", "163251.458000", "163251.460000", "163251.463000", "163331.369000", "163331.371000", "163331.374000", "163331.377000", "163331.379000", "163331.382000", "163331.385000", "163331.387000", "163331.390000", "163331.392000", "163331.395000", "163331.397000", "163331.400000", "163331.402000", "163331.405000", "163331.408000", "163331.410000", "163331.413000", "163331.415000", "163331.418000", "163331.420000", "163331.423000", "163331.426000", "163331.428000", "163331.431000", "163331.433000", "163331.436000", "163331.438000", "163331.441000", "163331.443000", "163331.446000", "163331.448000", "163331.451000", "163411.368000", "163411.371000", "163411.374000", "163411.376000", "163411.379000", "163411.382000", "163411.384000", "163411.387000", "163411.389000", "163411.392000", "163411.394000", "163411.397000", "163411.399000", "163411.402000", "163411.404000", "163411.427000", "163411.430000", "163411.432000", "163411.435000", "163411.437000", "163411.440000", "163411.442000", "163411.445000", "163411.447000", "163411.450000", "163411.452000", "163411.455000", "163411.457000", "163411.460000", "163411.463000", "163411.465000", "163411.468000", "163411.470000", "163411.473000", "163451.368000", "163451.371000", "163451.374000", "163451.376000", "163451.379000", "163451.382000", "163451.384000", "163451.387000", "163451.389000", "163451.392000", "163451.395000", "163451.397000", "163451.400000", "163451.402000", "163451.405000", "163451.407000", "163451.410000", "163451.412000", "163451.415000", "163451.418000", "163451.420000", "163451.423000", "163451.425000", "163451.428000", "163451.431000", "163451.433000", "163451.436000", "163451.439000", "163451.442000", "163451.444000", "163451.447000", "163451.449000", "163451.452000", "163531.369000", "163531.372000", "163531.374000", "163531.377000", "163531.379000", "163531.382000", "163531.384000", "163531.387000", "163531.389000", "163531.392000", "163531.395000", "163531.397000", "163531.400000", "163531.402000", "163531.405000", "163531.407000", "163531.410000", "163531.413000", "163531.415000", "163531.418000", "163531.420000", "163531.423000", "163531.425000", "163531.428000", "163531.431000", "163531.433000", "163531.436000", "163531.438000", "163531.441000", "163531.443000", "163531.446000", "163531.449000", "163531.451000", "163611.369000", "163611.371000", "163611.374000", "163611.376000", "163611.379000", "163611.382000", "163611.384000", "163611.387000", "163611.390000", "163611.392000", "163611.395000", "163611.397000", "163611.400000", "163611.402000", "163611.405000", "163611.407000", "163611.410000", "163611.412000", "163611.415000", "163611.418000", "163611.420000", "163611.423000", "163611.425000", "163611.428000", "163611.430000", "163611.433000", "163611.436000", "163611.438000", "163611.441000", "163611.443000", "163611.446000", "163611.448000", "163611.451000", "163611.454000", "163651.368000", "163651.371000", "163651.374000", "163651.376000", "163651.379000", "163651.382000", "163651.384000", "163651.387000", "163651.389000", "163651.392000", "163651.395000", "163651.397000", "163651.400000", "163651.402000", "163651.405000", "163651.407000", "163651.410000", "163651.413000", "163651.415000", "163651.418000", "163651.421000", "163651.423000", "163651.426000", "163651.428000", "163651.431000", "163651.433000", "163651.436000", "163651.439000", "163651.442000", "163651.444000", "163651.447000", "163651.449000", "163651.452000", "163731.368000", "163731.371000", "163731.373000", "163731.376000", "163731.378000", "163731.381000", "163731.383000", "163731.386000", "163731.388000", "163731.391000", "163731.394000", "163731.396000", "163731.399000", "163731.401000", "163731.404000", "163731.407000", "163731.409000", "163731.412000", "163731.414000", "163731.417000", "163731.419000", "163731.422000", "163731.425000", "163731.427000", "163731.430000", "163731.432000", "163731.435000", "163731.438000", "163731.440000", "163731.443000", "163731.445000", "163731.448000", "163731.450000", "163811.369000", "163811.371000", "163811.374000", "163811.376000", "163811.379000", "163811.381000", "163811.384000", "163811.387000", "163811.389000", "163811.392000", "163811.394000", "163811.414000", "163811.417000", "163811.419000", "163811.426000", "163811.429000", "163811.432000", "163811.434000", "163811.437000", "163811.439000", "163811.442000", "163811.444000", "163811.447000", "163811.449000", "163811.452000", "163811.455000", "163811.457000", "163811.460000", "163811.462000", "163811.465000", "163811.467000", "163811.470000", "163811.472000", "163811.475000", "163851.368000", "163851.372000", "163851.374000", "163851.377000", "163851.379000", "163851.382000", "163851.385000", "163851.387000", "163851.390000", "163851.393000", "163851.395000", "163851.398000", "163851.400000", "163851.403000", "163851.406000", "163851.408000", "163851.411000", "163851.413000", "163851.416000", "163851.418000", "163851.421000", "163851.424000", "163851.426000", "163851.429000", "163851.431000", "163851.434000", "163851.437000", "163851.440000", "163851.442000", "163851.445000", "163851.448000", "163851.450000", "163851.453000", "163901.591000", "163901.594000", "163901.596000", "163901.599000", "163901.602000", "163901.605000", "163901.607000", "163901.610000", "163901.613000"],
      "InstanceNumber": [1, 2, 3, 4, 5, 6, 7, 8, 9, 10, 11, 12, 13, 14, 15, 16, 17, 18, 19, 20, 21, 22, 23, 24, 25, 26, 27, 28, 29, 30, 31, 32, 33, 34, 35, 36, 37, 38, 39, 40, 41, 42, 43, 44, 45, 46, 47, 48, 49, 50, 51, 52, 53, 54, 55, 56, 57, 58, 59, 60, 61, 62, 63, 64, 65, 66, 67, 68, 69, 70, 71, 72, 73, 74, 75, 76, 77, 78, 79, 80, 81, 82, 83, 84, 85, 86, 87, 88, 89, 90, 91, 92, 93, 94, 95, 96, 97, 98, 99, 100, 101, 102, 103, 104, 105, 106, 107, 108, 109, 110, 111, 112, 113, 114, 115, 116, 117, 118, 119, 120, 121, 122, 123, 124, 125, 126, 127, 128, 129, 130, 131, 132, 133, 134, 135, 136, 137, 138, 139, 140, 141, 142, 143, 144, 145, 146, 147, 148, 149, 150, 151, 152, 153, 154, 155, 156, 157, 158, 159, 160, 161, 162, 163, 164, 165, 166, 167, 168, 169, 170, 171, 172, 173, 174, 175, 176, 177, 178, 179, 180, 181, 182, 183, 184, 185, 186, 187, 188, 189, 190, 191, 192, 193, 194, 195, 196, 197, 198, 199, 200, 201, 202, 203, 204, 205, 206, 207, 208, 209, 210, 211, 212, 213, 214, 215, 216, 217, 218, 219, 220, 221, 222, 223, 224, 225, 226, 227, 228, 229, 230, 231, 232, 233, 234, 235, 236, 237, 238, 239, 240, 241, 242, 243, 244, 245, 246, 247, 248, 249, 250, 251, 252, 253, 254, 255, 256, 257, 258, 259, 260, 261, 262, 263, 264, 265, 266, 267, 268, 269, 270, 271, 272, 273, 274, 275, 276, 277, 278, 279, 280, 281, 282, 283, 284, 285, 286, 287, 288, 289, 290, 291, 292, 293, 294, 295, 296, 297, 298, 299, 300, 301, 302, 303, 304, 305, 306, 307, 308, 309, 310, 311, 312, 313, 314, 315, 316, 317, 318, 319, 320, 321, 322, 323, 324, 325, 326, 327, 328, 329, 330, 331, 332, 333, 334, 335, 336, 337, 338, 339, 340, 341, 342, 343, 344, 345, 346, 347, 348, 349, 350, 351, 352, 353, 354, 355, 356, 357, 358, 359, 360, 361, 362, 363, 364, 365, 366, 367, 368, 369, 370, 371, 372, 373, 374, 375, 376, 377, 378, 379, 380, 381, 382, 383, 384, 385, 386, 387, 388, 389, 390, 391, 392],
