{
  "AcquisitionMatrixPE": 88,
  "AcquisitionNumber": 1,
  "AcquisitionTime": "17:28:29.195000",
  "BandwidthPerPixelPhaseEncode": 19.592,
  "BaseResolution": 88,
  "BodyPartExamined": "BRAIN",
  "ConsistencyInfo": "N4_VE11C_LATEST_20160120",
  "ConversionSoftware": "dcm2niix",
  "ConversionSoftwareVersion": "v1.0.20190902",
  "DerivedVendorReportedEchoSpacing": 0.000580014,
  "DeviceSerialNumber": "67050",
  "DwellTime": 2.6e-06,
  "EchoTime": 0.033,
  "EchoTrainLength": 88,
  "EffectiveEchoSpacing": 0.000580014,
  "FlipAngle": 62,
  "ImageOrientationPatientDICOM": [0.999597, -0.0169675, 0.0227395, 0.0181461, 0.998447, -0.0526698],
  "ImageType": [
    "ORIGINAL",
    "PRIMARY",
    "M",
    "ND",
    "MOSAIC"
],
  "ImagingFrequency": 123.251,
  "InPlanePhaseEncodingDirectionDICOM": "COL",
  "InstitutionAddress": "Olive_Street_60_Providence_RI_US_02912",
  "InstitutionName": "BROWN_UNIVERSITY_MRF",
  "InstitutionalDepartmentName": "Department",
  "MRAcquisitionType": "2D",
  "MagneticFieldStrength": 3,
  "Manufacturer": "Siemens",
  "ManufacturersModelName": "Prisma_fit",
  "Modality": "MR",
  "MultibandAccelerationFactor": 4,
  "PartialFourier": 1,
  "PatientPosition": "HFS",
  "PercentPhaseFOV": 100,
  "PhaseEncodingDirection": "j-",
  "PhaseEncodingSteps": 88,
  "PhaseResolution": 1,
  "PixelBandwidth": 2185,
  "ProcedureStepDescription": "ASHENHAV_1222",
  "ProtocolName": "func-bold_task-RDMmotion_run-06",
  "PulseSequenceDetails": "%SiemensSeq%_ep2d_bold",
  "ReceiveCoilActiveElements": "HC1-7",
  "ReceiveCoilName": "HeadNeck_64",
  "ReconMatrixPE": 88,
  "RefLinesPE": 8,
  "RepetitionTime": 1.2,
  "SAR": 0.0639281,
  "ScanOptions": "FS",
  "ScanningSequence": "EP",
  "SequenceName": "_epfid2d1_88",
  "SequenceVariant": "SK",
  "SeriesDescription": "func-bold_task-RDMmotion_run-06",
  "SeriesNumber": 17,
  "ShimSetting": [1755, -9095, 4424, 486, -83, -65, -86, -12],
  "SliceThickness": 2.4,
  "SliceTiming": [0.55, 0, 0.6275, 0.0775, 0.7075, 0.1575, 0.785, 0.235, 0.865, 0.315, 0.9425, 0.3925, 1.0225, 0.47, 1.1, 0.55, 0, 0.6275, 0.0775, 0.7075, 0.1575, 0.785, 0.235, 0.865, 0.315, 0.9425, 0.3925, 1.0225, 0.47, 1.1, 0.55, 0, 0.6275, 0.0775, 0.7075, 0.1575, 0.785, 0.235, 0.865, 0.315, 0.9425, 0.3925, 1.0225, 0.47, 1.1, 0.55, 0, 0.6275, 0.0775, 0.7075, 0.1575, 0.785, 0.235, 0.865, 0.315, 0.9425, 0.3925, 1.0225, 0.47, 1.1],
  "SoftwareVersions": "syngo_MR_E11",
  "SpacingBetweenSlices": 2.4,
  "StationName": "AWP67050",
  "TaskName": "RDMmotion",
  "TotalReadoutTime": 0.0504612,
  "TxRefAmp": 250.311,
  "dcmmeta_affine": [
    [-2.396761894226074, 0.04350942373275757, 0.05234532058238983, 104.64691162109375],
    [0.040683358907699585, 2.3940038681030273, -0.127346932888031, -89.98493194580078],
    [0.054523203521966934, 0.1262877881526947, 2.396047353744507, -76.7020492553711],
    [0.0, 0.0, 0.0, 1.0]
],
  "dcmmeta_reorient_transform": [
    [0.0, -1.0, 0.0, 87.0],
    [1.0, 0.0, 0.0, 0.0],
    [0.0, 0.0, 1.0, 0.0],
    [0.0, 0.0, 0.0, 1.0]
],
  "dcmmeta_shape": [88, 88, 60, 125],
  "dcmmeta_slice_dim": 2,
  "dcmmeta_version": 0.6,
  "global": {
    "const": {
      "AcquisitionMatrix": [88, 0, 0, 88],
      "AngioFlag": "N",
      "BitsAllocated": 16,
      "BitsStored": 12,
      "BodyPartExamined": "BRAIN",
      "Columns": 704,
      "DeidentificationMethodCodeSequence": [
        {
          "CodeMeaning": "XNAT DicomEdit 6 Script",
          "CodeValue": "3",
          "CodingSchemeDesignator": "XNAT",
          "CodingSchemeVersion": "1.0"}
],
      "EchoNumbers": 1,
      "EchoTime": 33.0,
      "EchoTrainLength": 88,
      "FlipAngle": 62.0,
      "HighBit": 11,
      "ImageOrientationPatient": [0.99959742827093, -0.0169674670896, 0.02273953505933, 0.01814610997047, 0.99844710018445, -0.0526697904514],
      "ImagePositionPatient": [-860.03582705944, -843.11609917729, -43.61151482393],
      "ImageType": [
        "ORIGINAL",
        "PRIMARY",
        "M",
        "ND",
        "MOSAIC"
],
      "ImagedNucleus": "1H",
      "ImagingFrequency": 123.250757,
      "InPlanePhaseEncodingDirection": "COL",
      "MRAcquisitionType": "2D",
      "MagneticFieldStrength": 3.0,
      "Manufacturer": "SIEMENS",
      "ManufacturerModelName": "Prisma_fit",
      "Modality": "MR",
      "NumberOfAverages": 1.0,
      "NumberOfPhaseEncodingSteps": 88,
      "PercentPhaseFieldOfView": 100.0,
      "PercentSampling": 100.0,
      "PerformedProcedureStepStartTime": "162113.275000",
      "PhotometricInterpretation": "MONOCHROME2",
      "PixelBandwidth": 2185.0,
      "PixelRepresentation": 0,
      "PixelSpacing": [2.3977272510529, 2.3977272510529],
      "ProtocolName": "func-bold_task-RDMmotion_run-06",
      "RepetitionTime": 1200.0,
      "Rows": 704,
      "SAR": 0.06392812537158,
      "SamplesPerPixel": 1,
      "ScanOptions": "FS",
      "ScanningSequence": "EP",
      "SequenceName": "*epfid2d1_88",
      "SequenceVariant": "SK",
      "SeriesDescription": "func-bold_task-RDMmotion_run-06",
      "SeriesNumber": 17,
      "SeriesTime": "172911.369000",
      "SliceLocation": -69.518604214194,
      "SliceThickness": 2.4000000953674,
      "SmallestImagePixelValue": 0,
      "SoftwareVersions": "syngo MR E11",
      "SpacingBetweenSlices": 2.3999999880093,
      "SpecificCharacterSet": "ISO_IR 100",
      "StudyID": "1",
      "StudyTime": "162113.200000",
      "TransmitCoilName": "Body",
      "VariableFlipAngleFlag": "N",
      "WindowCenterWidthExplanation": "Algo1",
      "dBdt": 0.0},
    "slices": {}
  },
  "time": {
    "samples": {
      "AcquisitionNumber": [1, 2, 3, 4, 5, 6, 7, 8, 9, 10, 11, 12, 13, 14, 15, 16, 17, 18, 19, 20, 21, 22, 23, 24, 25, 26, 27, 28, 29, 30, 31, 32, 33, 34, 35, 36, 37, 38, 39, 40, 41, 42, 43, 44, 45, 46, 47, 48, 49, 50, 51, 52, 53, 54, 55, 56, 57, 58, 59, 60, 61, 62, 63, 64, 65, 66, 67, 68, 69, 70, 71, 72, 73, 74, 75, 76, 77, 78, 79, 80, 81, 82, 83, 84, 85, 86, 87, 88, 89, 90, 91, 92, 93, 94, 95, 96, 97, 98, 99, 100, 101, 102, 103, 104, 105, 106, 107, 108, 109, 110, 111, 112, 113, 114, 115, 116, 117, 118, 119, 120, 121, 122, 123, 124, 125],
      "AcquisitionTime": ["172829.195000", "172830.395000", "172831.595000", "172832.795000", "172833.995000", "172835.195000", "172836.395000", "172837.595000", "172838.795000", "172839.995000", "172841.195000", "172842.395000", "172843.595000", "172844.795000", "172845.995000", "172847.195000", "172848.395000", "172849.595000", "172850.795000", "172851.995000", "172853.195000", "172854.395000", "172855.595000", "172856.795000", "172857.995000", "172859.195000", "172900.395000", "172901.595000", "172902.795000", "172903.995000", "172905.195000", "172906.395000", "172907.595000", "172908.795000", "172909.995000", "172911.195000", "172912.395000", "172913.595000", "172914.795000", "172915.995000", "172917.195000", "172918.395000", "172919.595000", "172920.795000", "172921.995000", "172923.195000", "172924.395000", "172925.595000", "172926.795000", "172927.995000", "172929.195000", "172930.395000", "172931.595000", "172932.795000", "172933.995000", "172935.195000", "172936.395000", "172937.595000", "172938.795000", "172939.995000", "172941.195000", "172942.395000", "172943.595000", "172944.795000", "172945.995000", "172947.195000", "172948.395000", "172949.595000", "172950.795000", "172951.995000", "172953.195000", "172954.395000", "172955.595000", "172956.795000", "172957.995000", "172959.195000", "173000.395000", "173001.595000", "173002.795000", "173003.995000", "173005.195000", "173006.395000", "173007.595000", "173008.795000", "173009.995000", "173011.195000", "173012.395000", "173013.595000", "173014.795000", "173015.995000", "173017.195000", "173018.395000", "173019.595000", "173020.795000", "173021.995000", "173023.195000", "173024.395000", "173025.595000", "173026.795000", "173027.995000", "173029.195000", "173030.395000", "173031.595000", "173032.795000", "173033.995000", "173035.195000", "173036.395000", "173037.595000", "173038.795000", "173039.995000", "173041.195000", "173042.395000", "173043.595000", "173044.795000", "173045.995000", "173047.195000", "173048.395000", "173049.595000", "173050.795000", "173051.995000", "173053.195000", "173054.395000", "173055.595000", "173056.795000", "173057.995000"],
      "ContentTime": ["172911.373000", "172911.376000", "172911.379000", "172911.381000", "172911.384000", "172911.386000", "172911.389000", "172911.391000", "172911.394000", "172911.396000", "172911.405000", "172911.408000", "172911.410000", "172911.413000", "172911.416000", "172911.425000", "172911.428000", "172911.430000", "172911.433000", "172911.435000", "172911.438000", "172911.440000", "172911.443000", "172911.445000", "172911.448000", "172911.450000", "172911.453000", "172911.456000", "172911.458000", "172911.461000", "172911.463000", "172911.466000", "172911.468000", "172911.472000", "172911.475000", "172951.369000", "172951.371000", "172951.374000", "172951.381000", "172951.384000", "172951.387000", "172951.389000", "172951.392000", "172951.394000", "172951.397000", "172951.399000", "172951.402000", "172951.405000", "172951.407000", "172951.410000", "172951.412000", "172951.415000", "172951.435000", "172951.438000", "172951.446000", "172951.457000", "172951.460000", "172951.462000", "172951.465000", "172951.468000", "172951.470000", "172951.473000", "172951.476000", "172951.478000", "172951.481000", "172951.483000", "172951.486000", "172951.488000", "173031.369000", "173031.371000", "173031.374000", "173031.376000", "173031.379000", "173031.382000", "173031.384000", "173031.387000", "173031.389000", "173031.392000", "173031.394000", "173031.397000", "173031.400000", "173031.402000", "173031.405000", "173031.408000", "173031.412000", "173031.415000", "173031.417000", "173031.420000", "173031.423000", "173031.425000", "173031.428000", "173031.430000", "173031.433000", "173031.436000", "173031.438000", "173031.441000", "173031.444000", "173031.446000", "173031.449000", "173031.451000", "173031.454000", "173059.356000", "173059.359000", "173059.362000", "173059.365000", "173059.367000", "173059.370000", "173059.372000", "173059.375000", "173059.378000", "173059.380000", "173059.383000", "173059.385000", "173059.388000", "173059.390000", "173059.393000", "173059.396000", "173059.398000", "173059.401000", "173059.403000", "173059.406000", "173059.408000", "173059.411000", "173059.414000", "173059.416000"],
      "InstanceCreationTime": ["172911.373000", "172911.376000", "172911.379000", "172911.381000", "172911.384000", "172911.386000", "172911.389000", "172911.391000", "172911.394000", "172911.396000", "172911.405000", "172911.408000", "172911.410000", "172911.413000", "172911.416000", "172911.425000", "172911.428000", "172911.430000", "172911.433000", "172911.435000", "172911.438000", "172911.440000", "172911.443000", "172911.445000", "172911.448000", "172911.450000", "172911.453000", "172911.456000", "172911.458000", "172911.461000", "172911.463000", "172911.466000", "172911.468000", "172911.472000", "172911.475000", "172951.369000", "172951.371000", "172951.374000", "172951.381000", "172951.384000", "172951.387000", "172951.389000", "172951.392000", "172951.394000", "172951.397000", "172951.399000", "172951.402000", "172951.405000", "172951.407000", "172951.410000", "172951.412000", "172951.415000", "172951.435000", "172951.438000", "172951.446000", "172951.457000", "172951.460000", "172951.462000", "172951.465000", "172951.468000", "172951.470000", "172951.473000", "172951.476000", "172951.478000", "172951.481000", "172951.483000", "172951.486000", "172951.488000", "173031.369000", "173031.371000", "173031.374000", "173031.376000", "173031.379000", "173031.382000", "173031.384000", "173031.387000", "173031.389000", "173031.392000", "173031.394000", "173031.397000", "173031.400000", "173031.402000", "173031.405000", "173031.408000", "173031.412000", "173031.415000", "173031.417000", "173031.420000", "173031.423000", "173031.425000", "173031.428000", "173031.430000", "173031.433000", "173031.436000", "173031.438000", "173031.441000", "173031.444000", "173031.446000", "173031.449000", "173031.451000", "173031.454000", "173059.356000", "173059.359000", "173059.362000", "173059.365000", "173059.367000", "173059.370000", "173059.372000", "173059.375000", "173059.378000", "173059.380000", "173059.383000", "173059.385000", "173059.388000", "173059.390000", "173059.393000", "173059.396000", "173059.398000", "173059.401000", "173059.403000", "173059.406000", "173059.408000", "173059.411000", "173059.414000", "173059.416000"],
      "InstanceNumber": [1, 2, 3, 4, 5, 6, 7, 8, 9, 10, 11, 12, 13, 14, 15, 16, 17, 18, 19, 20, 21, 22, 23, 24, 25, 26, 27, 28, 29, 30, 31, 32, 33, 34, 35, 36, 37, 38, 39, 40, 41, 42, 43, 44, 45, 46, 47, 48, 49, 50, 51, 52, 53, 54, 55, 56, 57, 58, 59, 60, 61, 62, 63, 64, 65, 66, 67, 68, 69, 70, 71, 72, 73, 74, 75, 76, 77, 78, 79, 80, 81, 82, 83, 84, 85, 86, 87, 88, 89, 90, 91, 92, 93, 94, 95, 96, 97, 98, 99, 100, 101, 102, 103, 104, 105, 106, 107, 108, 109, 110, 111, 112, 113, 114, 115, 116, 117, 118, 119, 120, 121, 122, 123, 124, 125],
      "LargestImagePixelValue": [2231, 2152, 2101, 2119, 2095, 2068, 2063, 2078, 2099, 2023, 2111, 2134, 2038, 2064, 2126, 2154, 2070, 2129, 2132, 2153, 2039, 2105, 2137, 2072, 2123, 2088, 2139, 2135, 2036, 2098, 2178, 2026, 2121, 2119, 2180, 2066, 2107, 2160, 2046, 2091, 2157, 2071, 2061, 2170, 2043, 2118, 2116, 2137, 2061, 2057, 2102, 2059, 2060, 2072, 2061, 2149, 2093, 2077, 2096, 2142, 2063, 2064, 2106, 2102, 2153, 2085, 2103, 2124, 2157, 2143, 2036, 2069, 2122, 2113, 2141, 2116, 2057, 2106, 2098, 2169, 2162, 2130, 2041, 2060, 2070, 2064, 2124, 2157, 2137, 2163, 2149, 2057, 2081, 2106, 2083, 2144, 2173, 2065, 2070, 2092, 2101, 2102, 2114, 2055, 2053, 2081, 2143, 2145, 2124, 2057, 2054, 2086, 2143, 2139, 2024, 2079, 2043, 2057, 2129, 2093, 2038, 2052, 2037, 2048, 2044],
      "WindowCenter": [623.0, 619.0, 618.0, 618.0, 618.0, 618.0, 618.0, 618.0, 618.0, 617.0, 619.0, 619.0, 617.0, 618.0, 618.0, 619.0, 617.0, 617.0, 617.0, 617.0, 616.0, 617.0, 618.0, 618.0, 619.0, 618.0, 619.0, 618.0, 617.0, 617.0, 618.0, 616.0, 617.0, 617.0, 617.0, 616.0, 616.0, 617.0, 615.0, 616.0, 617.0, 617.0, 617.0, 619.0, 617.0, 618.0, 618.0, 618.0, 617.0, 617.0, 618.0, 618.0, 619.0, 620.0, 620.0, 620.0, 619.0, 618.0, 619.0, 618.0, 617.0, 616.0, 617.0, 616.0, 617.0, 617.0, 617.0, 618.0, 618.0, 617.0, 616.0, 616.0, 617.0, 617.0, 617.0, 617.0, 616.0, 618.0, 619.0, 620.0, 621.0, 619.0, 618.0, 619.0, 619.0, 618.0, 619.0, 619.0, 619.0, 619.0, 618.0, 617.0, 617.0, 618.0, 618.0, 619.0, 620.0, 619.0, 619.0, 619.0, 619.0, 619.0, 619.0, 619.0, 620.0, 620.0, 620.0, 620.0, 619.0, 618.0, 618.0, 619.0, 619.0, 619.0, 618.0, 618.0, 617.0, 617.0, 618.0, 618.0, 618.0, 618.0, 618.0, 618.0, 617.0],
      "WindowWidth": [1322.0, 1312.0, 1309.0, 1310.0, 1309.0, 1308.0, 1309.0, 1309.0, 1310.0, 1308.0, 1310.0, 1311.0, 1308.0, 1309.0, 1309.0, 1310.0, 1307.0, 1307.0, 1307.0, 1307.0, 1305.0, 1306.0, 1308.0, 1309.0, 1310.0, 1309.0, 1310.0, 1310.0, 1307.0, 1308.0, 1309.0, 1304.0, 1306.0, 1306.0, 1307.0, 1304.0, 1305.0, 1306.0, 1303.0, 1305.0, 1307.0, 1306.0, 1308.0, 1310.0, 1307.0, 1308.0, 1309.0, 1309.0, 1308.0, 1306.0, 1308.0, 1310.0, 1311.0, 1314.0, 1313.0, 1313.0, 1311.0, 1309.0, 1310.0, 1308.0, 1306.0, 1305.0, 1305.0, 1305.0, 1307.0, 1306.0, 1307.0, 1308.0, 1308.0, 1306.0, 1304.0, 1304.0, 1306.0, 1306.0, 1306.0, 1307.0, 1305.0, 1309.0, 1311.0, 1313.0, 1315.0, 1311.0, 1310.0, 1310.0, 1310.0, 1308.0, 1310.0, 1311.0, 1310.0, 1311.0, 1309.0, 1308.0, 1308.0, 1309.0, 1309.0, 1311.0, 1313.0, 1311.0, 1311.0, 1311.0, 1311.0, 1311.0, 1311.0, 1312.0, 1314.0, 1314.0, 1314.0, 1313.0, 1312.0, 1310.0, 1310.0, 1311.0, 1312.0, 1312.0, 1309.0, 1310.0, 1307.0, 1307.0, 1310.0, 1310.0, 1309.0, 1310.0, 1310.0, 1308.0, 1307.0]
    },
    "slices": {}
  }
}