{
  "AcquisitionMatrixPE": 88,
  "AcquisitionNumber": 1,
  "AcquisitionTime": "16:52:0.627500",
  "BandwidthPerPixelPhaseEncode": 19.592,
  "BaseResolution": 88,
  "BodyPartExamined": "BRAIN",
  "ConsistencyInfo": "N4_VE11C_LATEST_20160120",
  "ConversionSoftware": "dcm2niix",
  "ConversionSoftwareVersion": "v1.0.20190902",
  "DerivedVendorReportedEchoSpacing": 0.000580014,
  "DeviceSerialNumber": "67050",
  "DwellTime": 2.6e-06,
  "EchoTime": 0.033,
  "EchoTrainLength": 88,
  "EffectiveEchoSpacing": 0.000580014,
  "FlipAngle": 62,
  "ImageOrientationPatientDICOM": [0.999597, -0.0169675, 0.0227395, 0.0181461, 0.998447, -0.0526698],
  "ImageType": [
    "ORIGINAL",
    "PRIMARY",
    "M",
    "ND",
    "MOSAIC"
],
  "ImagingFrequency": 123.251,
  "InPlanePhaseEncodingDirectionDICOM": "COL",
  "InstitutionAddress": "Olive_Street_60_Providence_RI_US_02912",
  "InstitutionName": "BROWN_UNIVERSITY_MRF",
  "InstitutionalDepartmentName": "Department",
  "MRAcquisitionType": "2D",
  "MagneticFieldStrength": 3,
  "Manufacturer": "Siemens",
  "ManufacturersModelName": "Prisma_fit",
  "Modality": "MR",
  "MultibandAccelerationFactor": 4,
  "PartialFourier": 1,
  "PatientPosition": "HFS",
  "PercentPhaseFOV": 100,
  "PhaseEncodingDirection": "j-",
  "PhaseEncodingSteps": 88,
  "PhaseResolution": 1,
  "PixelBandwidth": 2185,
  "ProcedureStepDescription": "ASHENHAV_1222",
  "ProtocolName": "func-bold_task-RDMmotion_run-03",
  "PulseSequenceDetails": "%SiemensSeq%_ep2d_bold",
  "ReceiveCoilActiveElements": "HC1-7",
  "ReceiveCoilName": "HeadNeck_64",
  "ReconMatrixPE": 88,
  "RefLinesPE": 8,
  "RepetitionTime": 1.2,
  "SAR": 0.0639281,
  "ScanOptions": "FS",
  "ScanningSequence": "EP",
  "SequenceName": "_epfid2d1_88",
  "SequenceVariant": "SK",
  "SeriesDescription": "func-bold_task-RDMmotion_run-03",
  "SeriesNumber": 11,
  "ShimSetting": [1755, -9095, 4424, 486, -83, -65, -86, -12],
  "SliceThickness": 2.4,
  "SliceTiming": [0.5525, 0, 0.63, 0.08, 0.71, 0.1575, 0.7875, 0.2375, 0.865, 0.315, 0.945, 0.395, 1.0225, 0.4725, 1.1025, 0.5525, 0, 0.63, 0.08, 0.71, 0.1575, 0.7875, 0.2375, 0.865, 0.315, 0.945, 0.395, 1.0225, 0.4725, 1.1025, 0.5525, 0, 0.63, 0.08, 0.71, 0.1575, 0.7875, 0.2375, 0.865, 0.315, 0.945, 0.395, 1.0225, 0.4725, 1.1025, 0.5525, 0, 0.63, 0.08, 0.71, 0.1575, 0.7875, 0.2375, 0.865, 0.315, 0.945, 0.395, 1.0225, 0.4725, 1.1025],
  "SoftwareVersions": "syngo_MR_E11",
  "SpacingBetweenSlices": 2.4,
  "StationName": "AWP67050",
  "TaskName": "RDMmotion",
  "TotalReadoutTime": 0.0504612,
  "TxRefAmp": 250.311,
  "dcmmeta_affine": [
    [-2.396761894226074, 0.04350942373275757, 0.05234532058238983, 104.64691162109375],
    [0.040683358907699585, 2.3940038681030273, -0.127346932888031, -89.98493194580078],
    [0.054523203521966934, 0.1262877881526947, 2.396047353744507, -76.7020492553711],
    [0.0, 0.0, 0.0, 1.0]
],
  "dcmmeta_reorient_transform": [
    [0.0, -1.0, 0.0, 87.0],
    [1.0, 0.0, 0.0, 0.0],
    [0.0, 0.0, 1.0, 0.0],
    [0.0, 0.0, 0.0, 1.0]
],
  "dcmmeta_shape": [88, 88, 60, 125],
  "dcmmeta_slice_dim": 2,
  "dcmmeta_version": 0.6,
  "global": {
    "const": {
      "AcquisitionMatrix": [88, 0, 0, 88],
      "AngioFlag": "N",
      "BitsAllocated": 16,
      "BitsStored": 12,
      "BodyPartExamined": "BRAIN",
      "Columns": 704,
      "DeidentificationMethodCodeSequence": [
        {
          "CodeMeaning": "XNAT DicomEdit 6 Script",
          "CodeValue": "3",
          "CodingSchemeDesignator": "XNAT",
          "CodingSchemeVersion": "1.0"}
],
      "EchoNumbers": 1,
      "EchoTime": 33.0,
      "EchoTrainLength": 88,
      "FlipAngle": 62.0,
      "HighBit": 11,
      "ImageOrientationPatient": [0.99959742827093, -0.0169674670896, 0.02273953505933, 0.01814610997047, 0.99844710018445, -0.0526697904514],
      "ImagePositionPatient": [-860.03582705944, -843.11609917729, -43.61151482393],
      "ImageType": [
        "ORIGINAL",
        "PRIMARY",
        "M",
        "ND",
        "MOSAIC"
],
      "ImagedNucleus": "1H",
      "ImagingFrequency": 123.250753,
      "InPlanePhaseEncodingDirection": "COL",
      "MRAcquisitionType": "2D",
      "MagneticFieldStrength": 3.0,
      "Manufacturer": "SIEMENS",
      "ManufacturerModelName": "Prisma_fit",
      "Modality": "MR",
      "NumberOfAverages": 1.0,
      "NumberOfPhaseEncodingSteps": 88,
      "PercentPhaseFieldOfView": 100.0,
      "PercentSampling": 100.0,
      "PerformedProcedureStepStartTime": "162113.275000",
      "PhotometricInterpretation": "MONOCHROME2",
      "PixelBandwidth": 2185.0,
      "PixelRepresentation": 0,
      "PixelSpacing": [2.3977272510529, 2.3977272510529],
      "ProtocolName": "func-bold_task-RDMmotion_run-03",
      "RepetitionTime": 1200.0,
      "Rows": 704,
      "SAR": 0.06392812537158,
      "SamplesPerPixel": 1,
      "ScanOptions": "FS",
      "ScanningSequence": "EP",
      "SequenceName": "*epfid2d1_88",
      "SequenceVariant": "SK",
      "SeriesDescription": "func-bold_task-RDMmotion_run-03",
      "SeriesNumber": 11,
      "SeriesTime": "165211.370000",
      "SliceLocation": -69.518604214194,
      "SliceThickness": 2.4000000953674,
      "SmallestImagePixelValue": 0,
      "SoftwareVersions": "syngo MR E11",
      "SpacingBetweenSlices": 2.3999999880093,
      "SpecificCharacterSet": "ISO_IR 100",
      "StudyID": "1",
      "StudyTime": "162113.200000",
      "TransmitCoilName": "Body",
      "VariableFlipAngleFlag": "N",
      "WindowCenterWidthExplanation": "Algo1",
      "dBdt": 0.0},
    "slices": {}
  },
  "time": {
    "samples": {
      "AcquisitionNumber": [1, 2, 3, 4, 5, 6, 7, 8, 9, 10, 11, 12, 13, 14, 15, 16, 17, 18, 19, 20, 21, 22, 23, 24, 25, 26, 27, 28, 29, 30, 31, 32, 33, 34, 35, 36, 37, 38, 39, 40, 41, 42, 43, 44, 45, 46, 47, 48, 49, 50, 51, 52, 53, 54, 55, 56, 57, 58, 59, 60, 61, 62, 63, 64, 65, 66, 67, 68, 69, 70, 71, 72, 73, 74, 75, 76, 77, 78, 79, 80, 81, 82, 83, 84, 85, 86, 87, 88, 89, 90, 91, 92, 93, 94, 95, 96, 97, 98, 99, 100, 101, 102, 103, 104, 105, 106, 107, 108, 109, 110, 111, 112, 113, 114, 115, 116, 117, 118, 119, 120, 121, 122, 123, 124, 125],
      "AcquisitionTime": ["165200.627500", "165201.827500", "165203.027500", "165204.227500", "165205.427500", "165206.627500", "165207.827500", "165209.027500", "165210.227500", "165211.427500", "165212.627500", "165213.827500", "165215.027500", "165216.227500", "165217.427500", "165218.627500", "165219.827500", "165221.027500", "165222.227500", "165223.427500", "165224.627500", "165225.827500", "165227.027500", "165228.227500", "165229.427500", "165230.627500", "165231.827500", "165233.027500", "165234.227500", "165235.427500", "165236.627500", "165237.827500", "165239.027500", "165240.227500", "165241.427500", "165242.627500", "165243.827500", "165245.027500", "165246.227500", "165247.427500", "165248.627500", "165249.827500", "165251.027500", "165252.227500", "165253.427500", "165254.627500", "165255.827500", "165257.027500", "165258.227500", "165259.427500", "165300.627500", "165301.827500", "165303.027500", "165304.227500", "165305.427500", "165306.627500", "165307.827500", "165309.027500", "165310.227500", "165311.427500", "165312.627500", "165313.827500", "165315.027500", "165316.227500", "165317.427500", "165318.627500", "165319.827500", "165321.027500", "165322.227500", "165323.427500", "165324.627500", "165325.827500", "165327.027500", "165328.227500", "165329.427500", "165330.627500", "165331.827500", "165333.027500", "165334.227500", "165335.427500", "165336.627500", "165337.827500", "165339.027500", "165340.227500", "165341.427500", "165342.627500", "165343.827500", "165345.027500", "165346.227500", "165347.427500", "165348.627500", "165349.827500", "165351.027500", "165352.227500", "165353.427500", "165354.627500", "165355.827500", "165357.027500", "165358.227500", "165359.427500", "165400.627500", "165401.827500", "165403.027500", "165404.227500", "165405.427500", "165406.627500", "165407.827500", "165409.027500", "165410.227500", "165411.427500", "165412.627500", "165413.827500", "165415.027500", "165416.227500", "165417.427500", "165418.627500", "165419.827500", "165421.027500", "165422.227500", "165423.427500", "165424.627500", "165425.827500", "165427.027500", "165428.227500", "165429.427500"],
      "ContentTime": ["165211.373000", "165211.376000", "165211.379000", "165211.381000", "165211.384000", "165211.386000", "165211.389000", "165211.413000", "165251.368000", "165251.371000", "165251.374000", "165251.376000", "165251.379000", "165251.382000", "165251.384000", "165251.387000", "165251.389000", "165251.392000", "165251.394000", "165251.397000", "165251.399000", "165251.402000", "165251.408000", "165251.411000", "165251.413000", "165251.416000", "165251.418000", "165251.421000", "165251.423000", "165251.426000", "165251.429000", "165251.431000", "165251.434000", "165251.436000", "165251.439000", "165251.441000", "165251.444000", "165251.447000", "165251.449000", "165251.452000", "165251.454000", "165251.457000", "165331.368000", "165331.371000", "165331.374000", "165331.376000", "165331.379000", "165331.382000", "165331.384000", "165331.387000", "165331.389000", "165331.392000", "165331.395000", "165331.397000", "165331.400000", "165331.408000", "165331.410000", "165331.413000", "165331.415000", "165331.418000", "165331.420000", "165331.423000", "165331.425000", "165331.428000", "165331.431000", "165331.433000", "165331.436000", "165331.438000", "165331.441000", "165331.443000", "165331.446000", "165331.449000", "165331.451000", "165331.454000", "165331.456000", "165411.368000", "165411.371000", "165411.374000", "165411.377000", "165411.379000", "165411.382000", "165411.384000", "165411.387000", "165411.390000", "165411.392000", "165411.395000", "165411.397000", "165411.400000", "165411.402000", "165411.405000", "165411.407000", "165411.410000", "165411.412000", "165411.415000", "165411.417000", "165411.420000", "165411.422000", "165411.425000", "165411.428000", "165411.430000", "165411.433000", "165411.435000", "165411.438000", "165411.440000", "165411.443000", "165411.446000", "165411.448000", "165411.451000", "165430.921000", "165430.924000", "165430.927000", "165430.929000", "165430.932000", "165430.934000", "165430.937000", "165430.939000", "165430.942000", "165430.951000", "165430.954000", "165430.957000", "165430.959000", "165430.962000", "165430.965000", "165430.967000", "165430.970000"],
      "InstanceCreationTime": ["165211.373000", "165211.376000", "165211.379000", "165211.381000", "165211.384000", "165211.386000", "165211.389000", "165211.413000", "165251.368000", "165251.371000", "165251.374000", "165251.376000", "165251.379000", "165251.382000", "165251.384000", "165251.387000", "165251.389000", "165251.392000", "165251.394000", "165251.397000", "165251.399000", "165251.402000", "165251.408000", "165251.411000", "165251.413000", "165251.416000", "165251.418000", "165251.421000", "165251.423000", "165251.426000", "165251.429000", "165251.431000", "165251.434000", "165251.436000", "165251.439000", "165251.441000", "165251.444000", "165251.447000", "165251.449000", "165251.452000", "165251.454000", "165251.457000", "165331.368000", "165331.371000", "165331.374000", "165331.376000", "165331.379000", "165331.382000", "165331.384000", "165331.387000", "165331.389000", "165331.392000", "165331.395000", "165331.397000", "165331.400000", "165331.408000", "165331.410000", "165331.413000", "165331.415000", "165331.418000", "165331.420000", "165331.423000", "165331.425000", "165331.428000", "165331.431000", "165331.433000", "165331.436000", "165331.438000", "165331.441000", "165331.443000", "165331.446000", "165331.449000", "165331.451000", "165331.454000", "165331.456000", "165411.368000", "165411.371000", "165411.374000", "165411.377000", "165411.379000", "165411.382000", "165411.384000", "165411.387000", "165411.390000", "165411.392000", "165411.395000", "165411.397000", "165411.400000", "165411.402000", "165411.405000", "165411.407000", "165411.410000", "165411.412000", "165411.415000", "165411.417000", "165411.420000", "165411.422000", "165411.425000", "165411.428000", "165411.430000", "165411.433000", "165411.435000", "165411.438000", "165411.440000", "165411.443000", "165411.446000", "165411.448000", "165411.451000", "165430.921000", "165430.924000", "165430.927000", "165430.929000", "165430.932000", "165430.934000", "165430.937000", "165430.939000", "165430.942000", "165430.951000", "165430.954000", "165430.957000", "165430.959000", "165430.962000", "165430.965000", "165430.967000", "165430.970000"],
      "InstanceNumber": [1, 2, 3, 4, 5, 6, 7, 8, 9, 10, 11, 12, 13, 14, 15, 16, 17, 18, 19, 20, 21, 22, 23, 24, 25, 26, 27, 28, 29, 30, 31, 32, 33, 34, 35, 36, 37, 38, 39, 40, 41, 42, 43, 44, 45, 46, 47, 48, 49, 50, 51, 52, 53, 54, 55, 56, 57, 58, 59, 60, 61, 62, 63, 64, 65, 66, 67, 68, 69, 70, 71, 72, 73, 74, 75, 76, 77, 78, 79, 80, 81, 82, 83, 84, 85, 86, 87, 88, 89, 90, 91, 92, 93, 94, 95, 96, 97, 98, 99, 100, 101, 102, 103, 104, 105, 106, 107, 108, 109, 110, 111, 112, 113, 114, 115, 116, 117, 118, 119, 120, 121, 122, 123, 124, 125],
      "LargestImagePixelValue": [2176, 2126, 2061, 2023, 2035, 2011, 2023, 2016, 2027, 2007, 2012, 2022, 2027, 2022, 2019, 2023, 1992, 2018, 2013, 2010, 2028, 2005, 2013, 2017, 1997, 2024, 2044, 2033, 2006, 2017, 2033, 2043, 2021, 2017, 2019, 2004, 2052, 2009, 2014, 2028, 1997, 2013, 2004, 2006, 2009, 1992, 1998, 2029, 2047, 2043, 2064, 2012, 2023, 2010, 2020, 2016, 2009, 2038, 2010, 2008, 2008, 2009, 2016, 2037, 2024, 2029, 2018, 2036, 2018, 2018, 2016, 2011, 2004, 2070, 2060, 2017, 2041, 2009, 2033, 1996, 1998, 2086, 2005, 2001, 1996, 2013, 2015, 2002, 2019, 2001, 2045, 2030, 2025, 2040, 2030, 2069, 2024, 2078, 2080, 2053, 2068, 2062, 2077, 2048, 2069, 2067, 2030, 2062, 2083, 2057, 2046, 2038, 2054, 2021, 2028, 2010, 2008, 2041, 2056, 2066, 2076, 2024, 2048, 2035, 2040],
      "WindowCenter": [625.0, 622.0, 620.0, 618.0, 618.0, 617.0, 617.0, 617.0, 617.0, 616.0, 616.0, 616.0, 616.0, 616.0, 617.0, 617.0, 617.0, 618.0, 617.0, 617.0, 617.0, 617.0, 617.0, 617.0, 618.0, 618.0, 617.0, 617.0, 615.0, 615.0, 616.0, 617.0, 617.0, 617.0, 617.0, 615.0, 615.0, 614.0, 614.0, 614.0, 614.0, 614.0, 614.0, 615.0, 617.0, 617.0, 618.0, 618.0, 618.0, 618.0, 617.0, 616.0, 615.0, 614.0, 614.0, 614.0, 614.0, 615.0, 615.0, 616.0, 616.0, 615.0, 616.0, 616.0, 614.0, 613.0, 613.0, 614.0, 613.0, 614.0, 615.0, 616.0, 616.0, 618.0, 618.0, 617.0, 618.0, 617.0, 617.0, 617.0, 617.0, 618.0, 618.0, 617.0, 616.0, 616.0, 615.0, 615.0, 616.0, 616.0, 617.0, 617.0, 617.0, 617.0, 618.0, 618.0, 618.0, 619.0, 620.0, 620.0, 620.0, 619.0, 619.0, 619.0, 619.0, 618.0, 618.0, 618.0, 618.0, 617.0, 617.0, 616.0, 616.0, 615.0, 615.0, 615.0, 615.0, 617.0, 618.0, 618.0, 618.0, 617.0, 618.0, 617.0, 618.0],
      "WindowWidth": [1329.0, 1320.0, 1314.0, 1310.0, 1310.0, 1309.0, 1308.0, 1308.0, 1308.0, 1307.0, 1307.0, 1306.0, 1306.0, 1307.0, 1308.0, 1309.0, 1309.0, 1310.0, 1309.0, 1308.0, 1308.0, 1307.0, 1308.0, 1308.0, 1309.0, 1309.0, 1309.0, 1307.0, 1303.0, 1303.0, 1304.0, 1307.0, 1308.0, 1308.0, 1307.0, 1303.0, 1303.0, 1302.0, 1301.0, 1300.0, 1301.0, 1302.0, 1302.0, 1304.0, 1307.0, 1309.0, 1309.0, 1311.0, 1310.0, 1309.0, 1308.0, 1305.0, 1304.0, 1302.0, 1301.0, 1300.0, 1301.0, 1302.0, 1304.0, 1305.0, 1305.0, 1304.0, 1305.0, 1304.0, 1301.0, 1299.0, 1298.0, 1300.0, 1300.0, 1301.0, 1304.0, 1305.0, 1306.0, 1309.0, 1310.0, 1308.0, 1309.0, 1308.0, 1308.0, 1307.0, 1307.0, 1309.0, 1309.0, 1308.0, 1305.0, 1304.0, 1303.0, 1302.0, 1304.0, 1305.0, 1308.0, 1308.0, 1308.0, 1309.0, 1309.0, 1310.0, 1310.0, 1313.0, 1313.0, 1313.0, 1313.0, 1312.0, 1313.0, 1311.0, 1311.0, 1308.0, 1309.0, 1309.0, 1309.0, 1307.0, 1306.0, 1305.0, 1304.0, 1303.0, 1303.0, 1302.0, 1304.0, 1308.0, 1309.0, 1311.0, 1310.0, 1307.0, 1309.0, 1308.0, 1308.0]
    },
    "slices": {}
  }
}