{
  "AcquisitionMatrixPE": 88,
  "AcquisitionNumber": 1,
  "AcquisitionTime": "17:04:7.262500",
  "BandwidthPerPixelPhaseEncode": 19.592,
  "BaseResolution": 88,
  "BodyPartExamined": "BRAIN",
  "ConsistencyInfo": "N4_VE11C_LATEST_20160120",
  "ConversionSoftware": "dcm2niix",
  "ConversionSoftwareVersion": "v1.0.20190902",
  "DerivedVendorReportedEchoSpacing": 0.000580014,
  "DeviceSerialNumber": "67050",
  "DwellTime": 2.6e-06,
  "EchoTime": 0.033,
  "EchoTrainLength": 88,
  "EffectiveEchoSpacing": 0.000580014,
  "FlipAngle": 62,
  "ImageOrientationPatientDICOM": [0.999597, -0.0169675, 0.0227395, 0.0181461, 0.998447, -0.0526698],
  "ImageType": [
    "ORIGINAL",
    "PRIMARY",
    "M",
    "ND",
    "MOSAIC"
],
  "ImagingFrequency": 123.251,
  "InPlanePhaseEncodingDirectionDICOM": "COL",
  "InstitutionAddress": "Olive_Street_60_Providence_RI_US_02912",
  "InstitutionName": "BROWN_UNIVERSITY_MRF",
  "InstitutionalDepartmentName": "Department",
  "MRAcquisitionType": "2D",
  "MagneticFieldStrength": 3,
  "Manufacturer": "Siemens",
  "ManufacturersModelName": "Prisma_fit",
  "Modality": "MR",
  "MultibandAccelerationFactor": 4,
  "PartialFourier": 1,
  "PatientPosition": "HFS",
  "PercentPhaseFOV": 100,
  "PhaseEncodingDirection": "j-",
  "PhaseEncodingSteps": 88,
  "PhaseResolution": 1,
  "PixelBandwidth": 2185,
  "ProcedureStepDescription": "ASHENHAV_1222",
  "ProtocolName": "func-bold_task-RDMmotion_run-04",
  "PulseSequenceDetails": "%SiemensSeq%_ep2d_bold",
  "ReceiveCoilActiveElements": "HC1-7",
  "ReceiveCoilName": "HeadNeck_64",
  "ReconMatrixPE": 88,
  "RefLinesPE": 8,
  "RepetitionTime": 1.2,
  "SAR": 0.0639281,
  "ScanOptions": "FS",
  "ScanningSequence": "EP",
  "SequenceName": "_epfid2d1_88",
  "SequenceVariant": "SK",
  "SeriesDescription": "func-bold_task-RDMmotion_run-04",
  "SeriesNumber": 13,
  "ShimSetting": [1755, -9095, 4424, 486, -83, -65, -86, -12],
  "SliceThickness": 2.4,
  "SliceTiming": [0.55, 0, 0.63, 0.08, 0.7075, 0.1575, 0.7875, 0.235, 0.865, 0.315, 0.945, 0.3925, 1.0225, 0.4725, 1.1025, 0.55, 0, 0.63, 0.08, 0.7075, 0.1575, 0.7875, 0.235, 0.865, 0.315, 0.945, 0.3925, 1.0225, 0.4725, 1.1025, 0.55, 0, 0.63, 0.08, 0.7075, 0.1575, 0.7875, 0.235, 0.865, 0.315, 0.945, 0.3925, 1.0225, 0.4725, 1.1025, 0.55, 0, 0.63, 0.08, 0.7075, 0.1575, 0.7875, 0.235, 0.865, 0.315, 0.945, 0.3925, 1.0225, 0.4725, 1.1025],
  "SoftwareVersions": "syngo_MR_E11",
  "SpacingBetweenSlices": 2.4,
  "StationName": "AWP67050",
  "TaskName": "RDMmotion",
  "TotalReadoutTime": 0.0504612,
  "TxRefAmp": 250.311,
  "dcmmeta_affine": [
    [-2.396761894226074, 0.04350942373275757, 0.05234532058238983, 104.64691162109375],
    [0.040683358907699585, 2.3940038681030273, -0.127346932888031, -89.98493194580078],
    [0.054523203521966934, 0.1262877881526947, 2.396047353744507, -76.7020492553711],
    [0.0, 0.0, 0.0, 1.0]
],
  "dcmmeta_reorient_transform": [
    [0.0, -1.0, 0.0, 87.0],
    [1.0, 0.0, 0.0, 0.0],
    [0.0, 0.0, 1.0, 0.0],
    [0.0, 0.0, 0.0, 1.0]
],
  "dcmmeta_shape": [88, 88, 60, 125],
  "dcmmeta_slice_dim": 2,
  "dcmmeta_version": 0.6,
  "global": {
    "const": {
      "AcquisitionMatrix": [88, 0, 0, 88],
      "AngioFlag": "N",
      "BitsAllocated": 16,
      "BitsStored": 12,
      "BodyPartExamined": "BRAIN",
      "Columns": 704,
      "DeidentificationMethodCodeSequence": [
        {
          "CodeMeaning": "XNAT DicomEdit 6 Script",
          "CodeValue": "3",
          "CodingSchemeDesignator": "XNAT",
          "CodingSchemeVersion": "1.0"}
],
      "EchoNumbers": 1,
      "EchoTime": 33.0,
      "EchoTrainLength": 88,
      "FlipAngle": 62.0,
      "HighBit": 11,
      "ImageOrientationPatient": [0.99959742827093, -0.0169674670896, 0.02273953505933, 0.01814610997047, 0.99844710018445, -0.0526697904514],
      "ImagePositionPatient": [-860.03582705944, -843.11609917729, -43.61151482393],
      "ImageType": [
        "ORIGINAL",
        "PRIMARY",
        "M",
        "ND",
        "MOSAIC"
],
      "ImagedNucleus": "1H",
      "ImagingFrequency": 123.250756,
      "InPlanePhaseEncodingDirection": "COL",
      "MRAcquisitionType": "2D",
      "MagneticFieldStrength": 3.0,
      "Manufacturer": "SIEMENS",
      "ManufacturerModelName": "Prisma_fit",
      "Modality": "MR",
      "NumberOfAverages": 1.0,
      "NumberOfPhaseEncodingSteps": 88,
      "PercentPhaseFieldOfView": 100.0,
      "PercentSampling": 100.0,
      "PerformedProcedureStepStartTime": "162113.275000",
      "PhotometricInterpretation": "MONOCHROME2",
      "PixelBandwidth": 2185.0,
      "PixelRepresentation": 0,
      "PixelSpacing": [2.3977272510529, 2.3977272510529],
      "ProtocolName": "func-bold_task-RDMmotion_run-04",
      "RepetitionTime": 1200.0,
      "Rows": 704,
      "SAR": 0.06392812537158,
      "SamplesPerPixel": 1,
      "ScanOptions": "FS",
      "ScanningSequence": "EP",
      "SequenceName": "*epfid2d1_88",
      "SequenceVariant": "SK",
      "SeriesDescription": "func-bold_task-RDMmotion_run-04",
      "SeriesNumber": 13,
      "SeriesTime": "170434.987000",
      "SliceLocation": -69.518604214194,
      "SliceThickness": 2.4000000953674,
      "SmallestImagePixelValue": 0,
      "SoftwareVersions": "syngo MR E11",
      "SpacingBetweenSlices": 2.3999999880093,
      "SpecificCharacterSet": "ISO_IR 100",
      "StudyID": "1",
      "StudyTime": "162113.200000",
      "TransmitCoilName": "Body",
      "VariableFlipAngleFlag": "N",
      "WindowCenterWidthExplanation": "Algo1",
      "dBdt": 0.0},
    "slices": {}
  },
  "time": {
    "samples": {
      "AcquisitionNumber": [1, 2, 3, 4, 5, 6, 7, 8, 9, 10, 11, 12, 13, 14, 15, 16, 17, 18, 19, 20, 21, 22, 23, 24, 25, 26, 27, 28, 29, 30, 31, 32, 33, 34, 35, 36, 37, 38, 39, 40, 41, 42, 43, 44, 45, 46, 47, 48, 49, 50, 51, 52, 53, 54, 55, 56, 57, 58, 59, 60, 61, 62, 63, 64, 65, 66, 67, 68, 69, 70, 71, 72, 73, 74, 75, 76, 77, 78, 79, 80, 81, 82, 83, 84, 85, 86, 87, 88, 89, 90, 91, 92, 93, 94, 95, 96, 97, 98, 99, 100, 101, 102, 103, 104, 105, 106, 107, 108, 109, 110, 111, 112, 113, 114, 115, 116, 117, 118, 119, 120, 121, 122, 123, 124, 125],
      "AcquisitionTime": ["170407.262500", "170408.462500", "170409.662500", "170410.862500", "170412.062500", "170413.262500", "170414.462500", "170415.662500", "170416.862500", "170418.062500", "170419.262500", "170420.462500", "170421.662500", "170422.862500", "170424.062500", "170425.262500", "170426.462500", "170427.662500", "170428.862500", "170430.062500", "170431.262500", "170432.462500", "170433.662500", "170434.862500", "170436.062500", "170437.262500", "170438.462500", "170439.662500", "170440.862500", "170442.062500", "170443.262500", "170444.462500", "170445.662500", "170446.862500", "170448.062500", "170449.262500", "170450.462500", "170451.662500", "170452.862500", "170454.062500", "170455.262500", "170456.462500", "170457.662500", "170458.862500", "170500.062500", "170501.262500", "170502.462500", "170503.662500", "170504.862500", "170506.062500", "170507.262500", "170508.462500", "170509.662500", "170510.862500", "170512.062500", "170513.262500", "170514.462500", "170515.662500", "170516.862500", "170518.062500", "170519.262500", "170520.462500", "170521.662500", "170522.862500", "170524.062500", "170525.262500", "170526.462500", "170527.662500", "170528.862500", "170530.062500", "170531.262500", "170532.462500", "170533.662500", "170534.862500", "170536.062500", "170537.262500", "170538.462500", "170539.662500", "170540.862500", "170542.062500", "170543.262500", "170544.462500", "170545.662500", "170546.862500", "170548.062500", "170549.262500", "170550.462500", "170551.662500", "170552.862500", "170554.062500", "170555.262500", "170556.462500", "170557.662500", "170558.862500", "170600.062500", "170601.262500", "170602.462500", "170603.662500", "170604.862500", "170606.062500", "170607.262500", "170608.462500", "170609.662500", "170610.862500", "170612.062500", "170613.262500", "170614.462500", "170615.662500", "170616.862500", "170618.062500", "170619.262500", "170620.462500", "170621.662500", "170622.862500", "170624.062500", "170625.262500", "170626.462500", "170627.662500", "170628.862500", "170630.062500", "170631.262500", "170632.462500", "170633.662500", "170634.862500", "170636.062500"],
      "ContentTime": ["170434.991000", "170434.995000", "170435.009000", "170435.011000", "170435.014000", "170435.016000", "170435.019000", "170435.021000", "170435.027000", "170435.030000", "170435.032000", "170435.035000", "170435.037000", "170435.040000", "170435.042000", "170435.045000", "170435.047000", "170435.051000", "170435.053000", "170435.056000", "170435.058000", "170435.061000", "170514.986000", "170514.989000", "170514.992000", "170514.994000", "170514.997000", "170515.000000", "170515.003000", "170515.006000", "170515.008000", "170515.011000", "170515.013000", "170515.016000", "170515.018000", "170515.021000", "170515.024000", "170515.026000", "170515.029000", "170515.031000", "170515.034000", "170515.036000", "170515.039000", "170515.041000", "170515.044000", "170515.046000", "170515.056000", "170515.058000", "170515.061000", "170515.064000", "170515.066000", "170515.069000", "170515.071000", "170515.074000", "170515.077000", "170515.079000", "170554.987000", "170554.989000", "170554.992000", "170554.995000", "170554.997000", "170555.001000", "170555.003000", "170555.006000", "170555.008000", "170555.011000", "170555.014000", "170555.016000", "170555.019000", "170555.021000", "170555.024000", "170555.027000", "170555.029000", "170555.032000", "170555.034000", "170555.037000", "170555.039000", "170555.042000", "170555.045000", "170555.047000", "170555.050000", "170555.052000", "170555.055000", "170555.066000", "170555.068000", "170555.071000", "170555.073000", "170555.076000", "170555.079000", "170634.987000", "170634.989000", "170634.992000", "170634.996000", "170634.998000", "170635.002000", "170635.005000", "170635.007000", "170635.010000", "170635.013000", "170635.015000", "170635.018000", "170635.020000", "170635.023000", "170635.025000", "170635.028000", "170635.031000", "170635.033000", "170635.036000", "170635.038000", "170635.041000", "170635.043000", "170635.046000", "170635.049000", "170635.051000", "170635.054000", "170635.057000", "170635.059000", "170635.062000", "170635.065000", "170635.067000", "170635.070000", "170635.072000", "170637.799000", "170637.802000", "170637.805000"],
      "InstanceCreationTime": ["170434.991000", "170434.995000", "170435.009000", "170435.011000", "170435.014000", "170435.016000", "170435.019000", "170435.021000", "170435.027000", "170435.030000", "170435.032000", "170435.035000", "170435.037000", "170435.040000", "170435.042000", "170435.045000", "170435.047000", "170435.051000", "170435.053000", "170435.056000", "170435.058000", "170435.061000", "170514.986000", "170514.989000", "170514.992000", "170514.994000", "170514.997000", "170515.000000", "170515.003000", "170515.006000", "170515.008000", "170515.011000", "170515.013000", "170515.016000", "170515.018000", "170515.021000", "170515.024000", "170515.026000", "170515.029000", "170515.031000", "170515.034000", "170515.036000", "170515.039000", "170515.041000", "170515.044000", "170515.046000", "170515.056000", "170515.058000", "170515.061000", "170515.064000", "170515.066000", "170515.069000", "170515.071000", "170515.074000", "170515.077000", "170515.079000", "170554.987000", "170554.989000", "170554.992000", "170554.995000", "170554.997000", "170555.001000", "170555.003000", "170555.006000", "170555.008000", "170555.011000", "170555.014000", "170555.016000", "170555.019000", "170555.021000", "170555.024000", "170555.027000", "170555.029000", "170555.032000", "170555.034000", "170555.037000", "170555.039000", "170555.042000", "170555.045000", "170555.047000", "170555.050000", "170555.052000", "170555.055000", "170555.066000", "170555.068000", "170555.071000", "170555.073000", "170555.076000", "170555.079000", "170634.987000", "170634.989000", "170634.992000", "170634.996000", "170634.998000", "170635.002000", "170635.005000", "170635.007000", "170635.010000", "170635.013000", "170635.015000", "170635.018000", "170635.020000", "170635.023000", "170635.025000", "170635.028000", "170635.031000", "170635.033000", "170635.036000", "170635.038000", "170635.041000", "170635.043000", "170635.046000", "170635.049000", "170635.051000", "170635.054000", "170635.057000", "170635.059000", "170635.062000", "170635.065000", "170635.067000", "170635.070000", "170635.072000", "170637.799000", "170637.802000", "170637.805000"],
      "InstanceNumber": [1, 2, 3, 4, 5, 6, 7, 8, 9, 10, 11, 12, 13, 14, 15, 16, 17, 18, 19, 20, 21, 22, 23, 24, 25, 26, 27, 28, 29, 30, 31, 32, 33, 34, 35, 36, 37, 38, 39, 40, 41, 42, 43, 44, 45, 46, 47, 48, 49, 50, 51, 52, 53, 54, 55, 56, 57, 58, 59, 60, 61, 62, 63, 64, 65, 66, 67, 68, 69, 70, 71, 72, 73, 74, 75, 76, 77, 78, 79, 80, 81, 82, 83, 84, 85, 86, 87, 88, 89, 90, 91, 92, 93, 94, 95, 96, 97, 98, 99, 100, 101, 102, 103, 104, 105, 106, 107, 108, 109, 110, 111, 112, 113, 114, 115, 116, 117, 118, 119, 120, 121, 122, 123, 124, 125],
      "LargestImagePixelValue": [2246, 2159, 2129, 2113, 2101, 2069, 2045, 2073, 2099, 2058, 2072, 2063, 2106, 2047, 2075, 2110, 2056, 2069, 2055, 2058, 2072, 2104, 2073, 2108, 2109, 2029, 2067, 2161, 2068, 2053, 2055, 2047, 2061, 2119, 2044, 2099, 2144, 2124, 2183, 2060, 2148, 2137, 2146, 2160, 2072, 2138, 2051, 2138, 2041, 2135, 2148, 2097, 2158, 2122, 2149, 2088, 2126, 2117, 2062, 2104, 2152, 2077, 2130, 2087, 2067, 2057, 2056, 2048, 2047, 2100, 2125, 2057, 2094, 2064, 2067, 2063, 2146, 2061, 2052, 2126, 2118, 2073, 2116, 2108, 2053, 2118, 2135, 2132, 2118, 2135, 2051, 2125, 2108, 2142, 2145, 2164, 2166, 2179, 2108, 2131, 2143, 2167, 2196, 2062, 2113, 2168, 2065, 2065, 2088, 2167, 2067, 2073, 2173, 2062, 2094, 2098, 2108, 2144, 2057, 2058, 2120, 2135, 2126, 2113, 2137],
      "WindowCenter": [623.0, 620.0, 619.0, 619.0, 619.0, 619.0, 618.0, 619.0, 619.0, 618.0, 619.0, 618.0, 619.0, 618.0, 619.0, 619.0, 618.0, 619.0, 618.0, 619.0, 618.0, 618.0, 618.0, 618.0, 619.0, 619.0, 620.0, 621.0, 620.0, 619.0, 618.0, 618.0, 617.0, 618.0, 615.0, 616.0, 616.0, 615.0, 616.0, 614.0, 615.0, 615.0, 615.0, 615.0, 615.0, 616.0, 616.0, 617.0, 616.0, 617.0, 617.0, 617.0, 618.0, 618.0, 618.0, 617.0, 617.0, 618.0, 616.0, 617.0, 618.0, 618.0, 620.0, 620.0, 619.0, 619.0, 619.0, 619.0, 619.0, 621.0, 621.0, 620.0, 621.0, 620.0, 619.0, 618.0, 619.0, 618.0, 618.0, 619.0, 618.0, 617.0, 618.0, 617.0, 616.0, 617.0, 617.0, 617.0, 616.0, 616.0, 615.0, 616.0, 616.0, 616.0, 616.0, 616.0, 616.0, 617.0, 617.0, 618.0, 618.0, 619.0, 620.0, 618.0, 620.0, 622.0, 621.0, 622.0, 621.0, 621.0, 620.0, 620.0, 621.0, 620.0, 620.0, 618.0, 618.0, 618.0, 617.0, 618.0, 619.0, 620.0, 619.0, 619.0, 619.0],
      "WindowWidth": [1324.0, 1316.0, 1312.0, 1311.0, 1311.0, 1311.0, 1310.0, 1311.0, 1312.0, 1310.0, 1311.0, 1310.0, 1311.0, 1310.0, 1311.0, 1312.0, 1310.0, 1311.0, 1311.0, 1311.0, 1310.0, 1310.0, 1310.0, 1310.0, 1312.0, 1312.0, 1314.0, 1316.0, 1314.0, 1311.0, 1309.0, 1309.0, 1307.0, 1308.0, 1303.0, 1304.0, 1303.0, 1302.0, 1304.0, 1301.0, 1302.0, 1302.0, 1302.0, 1303.0, 1302.0, 1304.0, 1304.0, 1306.0, 1305.0, 1308.0, 1307.0, 1306.0, 1308.0, 1308.0, 1309.0, 1307.0, 1307.0, 1307.0, 1305.0, 1306.0, 1308.0, 1308.0, 1312.0, 1312.0, 1312.0, 1311.0, 1311.0, 1311.0, 1312.0, 1315.0, 1316.0, 1314.0, 1315.0, 1314.0, 1312.0, 1310.0, 1311.0, 1310.0, 1309.0, 1310.0, 1309.0, 1307.0, 1308.0, 1307.0, 1305.0, 1306.0, 1307.0, 1305.0, 1303.0, 1304.0, 1303.0, 1305.0, 1304.0, 1305.0, 1304.0, 1304.0, 1305.0, 1307.0, 1306.0, 1309.0, 1309.0, 1310.0, 1312.0, 1310.0, 1313.0, 1317.0, 1317.0, 1317.0, 1316.0, 1315.0, 1314.0, 1314.0, 1316.0, 1314.0, 1312.0, 1310.0, 1308.0, 1308.0, 1307.0, 1308.0, 1311.0, 1312.0, 1311.0, 1310.0, 1310.0]
    },
    "slices": {}
  }
}