{
  "AcquisitionMatrixPE": 88,
  "AcquisitionNumber": 1,
  "AcquisitionTime": "11:40:52.782500",
  "BandwidthPerPixelPhaseEncode": 19.592,
  "BaseResolution": 88,
  "BodyPartExamined": "BRAIN",
  "ConsistencyInfo": "N4_VE11C_LATEST_20160120",
  "ConversionSoftware": "dcm2niix",
  "ConversionSoftwareVersion": "v1.0.20190902",
  "DerivedVendorReportedEchoSpacing": 0.000580014,
  "DeviceSerialNumber": "67050",
  "DwellTime": 2.6e-06,
  "EchoTime": 0.033,
  "EchoTrainLength": 88,
  "EffectiveEchoSpacing": 0.000580014,
  "FlipAngle": 62,
  "ImageOrientationPatientDICOM": [0.990031, -0.0283668, 0.137965, 0.0207381, 0.998192, 0.0564206],
  "ImageType": [
    "ORIGINAL",
    "PRIMARY",
    "M",
    "ND",
    "MOSAIC"
],
  "ImagingFrequency": 123.251,
  "InPlanePhaseEncodingDirectionDICOM": "COL",
  "InstitutionAddress": "Olive_Street_60_Providence_RI_US_02912",
  "InstitutionName": "BROWN_UNIVERSITY_MRF",
  "InstitutionalDepartmentName": "Department",
  "MRAcquisitionType": "2D",
  "MagneticFieldStrength": 3,
  "Manufacturer": "Siemens",
  "ManufacturersModelName": "Prisma_fit",
  "Modality": "MR",
  "MultibandAccelerationFactor": 4,
  "PartialFourier": 1,
  "PatientPosition": "HFS",
  "PercentPhaseFOV": 100,
  "PhaseEncodingDirection": "j-",
  "PhaseEncodingSteps": 88,
  "PhaseResolution": 1,
  "PixelBandwidth": 2185,
  "ProcedureStepDescription": "ASHENHAV_1222",
  "ProtocolName": "func-bold_task-RDMmotion_run-03",
  "PulseSequenceDetails": "%SiemensSeq%_ep2d_bold",
  "ReceiveCoilActiveElements": "HC1-7",
  "ReceiveCoilName": "HeadNeck_64",
  "ReconMatrixPE": 88,
  "RefLinesPE": 8,
  "RepetitionTime": 1.2,
  "SAR": 0.0506296,
  "ScanOptions": "FS",
  "ScanningSequence": "EP",
  "SequenceName": "_epfid2d1_88",
  "SequenceVariant": "SK",
  "SeriesDescription": "func-bold_task-RDMmotion_run-03",
  "SeriesNumber": 11,
  "ShimSetting": [1780, -9115, 4430, 504, -89, -74, 28, 29],
  "SliceThickness": 2.4,
  "SliceTiming": [0.55, 0, 0.63, 0.08, 0.7075, 0.1575, 0.7875, 0.2375, 0.865, 0.315, 0.945, 0.3925, 1.0225, 0.4725, 1.1025, 0.55, 0, 0.63, 0.08, 0.7075, 0.1575, 0.7875, 0.2375, 0.865, 0.315, 0.945, 0.3925, 1.0225, 0.4725, 1.1025, 0.55, 0, 0.63, 0.08, 0.7075, 0.1575, 0.7875, 0.2375, 0.865, 0.315, 0.945, 0.3925, 1.0225, 0.4725, 1.1025, 0.55, 0, 0.63, 0.08, 0.7075, 0.1575, 0.7875, 0.2375, 0.865, 0.315, 0.945, 0.3925, 1.0225, 0.4725, 1.1025],
  "SoftwareVersions": "syngo_MR_E11",
  "SpacingBetweenSlices": 2.4,
  "StationName": "AWP67050",
  "TaskName": "RDMmotion",
  "TotalReadoutTime": 0.0504612,
  "TxRefAmp": 245.896,
  "dcmmeta_affine": [
    [-2.373823642730713, 0.04972442239522934, 0.3343591094017029, 101.50154113769531],
    [0.06801580637693405, 2.3933913707733154, 0.12719270586967468, -92.10521697998047],
    [0.33080318570137024, -0.13528114557266235, 2.3731889724731445, -67.49132537841797],
    [0.0, 0.0, 0.0, 1.0]
],
  "dcmmeta_reorient_transform": [
    [0.0, -1.0, 0.0, 87.0],
    [1.0, 0.0, 0.0, 0.0],
    [0.0, 0.0, 1.0, 0.0],
    [0.0, 0.0, 0.0, 1.0]
],
  "dcmmeta_shape": [88, 88, 60, 125],
  "dcmmeta_slice_dim": 2,
  "dcmmeta_version": 0.6,
  "global": {
    "const": {
      "AcquisitionMatrix": [88, 0, 0, 88],
      "AngioFlag": "N",
      "BitsAllocated": 16,
      "BitsStored": 12,
      "BodyPartExamined": "BRAIN",
      "Columns": 704,
      "DeidentificationMethodCodeSequence": [
        {
          "CodeMeaning": "XNAT DicomEdit 6 Script",
          "CodeValue": "3",
          "CodingSchemeDesignator": "XNAT",
          "CodingSchemeVersion": "1.0"}
],
      "EchoNumbers": 1,
      "EchoTime": 33.0,
      "EchoTrainLength": 88,
      "FlipAngle": 62.0,
      "HighBit": 11,
      "ImageOrientationPatient": [0.99003075620664, -0.0283667822897, 0.13796531240654, 0.02073814802468, 0.9981916890948, 0.05642057283102],
      "ImagePositionPatient": [-852.28039799593, -832.33551957021, -222.81475648875],
      "ImageType": [
        "ORIGINAL",
        "PRIMARY",
        "M",
        "ND",
        "MOSAIC"
],
      "ImagedNucleus": "1H",
      "ImagingFrequency": 123.250742,
      "InPlanePhaseEncodingDirection": "COL",
      "MRAcquisitionType": "2D",
      "MagneticFieldStrength": 3.0,
      "Manufacturer": "SIEMENS",
      "ManufacturerModelName": "Prisma_fit",
      "Modality": "MR",
      "NumberOfAverages": 1.0,
      "NumberOfPhaseEncodingSteps": 88,
      "PercentPhaseFieldOfView": 100.0,
      "PercentSampling": 100.0,
      "PerformedProcedureStepStartTime": "104915.366000",
      "PhotometricInterpretation": "MONOCHROME2",
      "PixelBandwidth": 2185.0,
      "PixelRepresentation": 0,
      "PixelSpacing": [2.3977272510529, 2.3977272510529],
      "ProtocolName": "func-bold_task-RDMmotion_run-03",
      "RepetitionTime": 1200.0,
      "Rows": 704,
      "SAR": 0.05062961971393,
      "SamplesPerPixel": 1,
      "ScanOptions": "FS",
      "ScanningSequence": "EP",
      "SequenceName": "*epfid2d1_88",
      "SequenceVariant": "SK",
      "SeriesDescription": "func-bold_task-RDMmotion_run-03",
      "SeriesNumber": 11,
      "SeriesTime": "114126.871000",
      "SliceLocation": -57.477836350794,
      "SliceThickness": 2.4000000953674,
      "SmallestImagePixelValue": 0,
      "SoftwareVersions": "syngo MR E11",
      "SpacingBetweenSlices": 2.4000000583567,
      "SpecificCharacterSet": "ISO_IR 100",
      "StudyID": "1",
      "StudyTime": "104915.286000",
      "TransmitCoilName": "Body",
      "VariableFlipAngleFlag": "N",
      "WindowCenterWidthExplanation": "Algo1",
      "dBdt": 0.0},
    "slices": {}
  },
  "time": {
    "samples": {
      "AcquisitionNumber": [1, 2, 3, 4, 5, 6, 7, 8, 9, 10, 11, 12, 13, 14, 15, 16, 17, 18, 19, 20, 21, 22, 23, 24, 25, 26, 27, 28, 29, 30, 31, 32, 33, 34, 35, 36, 37, 38, 39, 40, 41, 42, 43, 44, 45, 46, 47, 48, 49, 50, 51, 52, 53, 54, 55, 56, 57, 58, 59, 60, 61, 62, 63, 64, 65, 66, 67, 68, 69, 70, 71, 72, 73, 74, 75, 76, 77, 78, 79, 80, 81, 82, 83, 84, 85, 86, 87, 88, 89, 90, 91, 92, 93, 94, 95, 96, 97, 98, 99, 100, 101, 102, 103, 104, 105, 106, 107, 108, 109, 110, 111, 112, 113, 114, 115, 116, 117, 118, 119, 120, 121, 122, 123, 124, 125],
      "AcquisitionTime": ["114052.782500", "114053.982500", "114055.182500", "114056.382500", "114057.582500", "114058.782500", "114059.982500", "114101.182500", "114102.382500", "114103.582500", "114104.782500", "114105.982500", "114107.182500", "114108.382500", "114109.582500", "114110.782500", "114111.982500", "114113.182500", "114114.382500", "114115.582500", "114116.782500", "114117.982500", "114119.182500", "114120.382500", "114121.582500", "114122.782500", "114123.982500", "114125.182500", "114126.382500", "114127.582500", "114128.782500", "114129.982500", "114131.182500", "114132.382500", "114133.582500", "114134.782500", "114135.982500", "114137.182500", "114138.382500", "114139.582500", "114140.782500", "114141.982500", "114143.182500", "114144.382500", "114145.582500", "114146.782500", "114147.982500", "114149.182500", "114150.382500", "114151.582500", "114152.782500", "114153.982500", "114155.182500", "114156.382500", "114157.582500", "114158.782500", "114159.982500", "114201.182500", "114202.382500", "114203.582500", "114204.782500", "114205.982500", "114207.182500", "114208.382500", "114209.582500", "114210.782500", "114211.982500", "114213.182500", "114214.382500", "114215.582500", "114216.782500", "114217.982500", "114219.182500", "114220.382500", "114221.582500", "114222.782500", "114223.982500", "114225.182500", "114226.382500", "114227.582500", "114228.782500", "114229.982500", "114231.182500", "114232.382500", "114233.582500", "114234.782500", "114235.982500", "114237.182500", "114238.382500", "114239.582500", "114240.782500", "114241.982500", "114243.182500", "114244.382500", "114245.582500", "114246.782500", "114247.982500", "114249.182500", "114250.382500", "114251.582500", "114252.782500", "114253.982500", "114255.182500", "114256.382500", "114257.582500", "114258.782500", "114259.982500", "114301.182500", "114302.382500", "114303.582500", "114304.782500", "114305.982500", "114307.182500", "114308.382500", "114309.582500", "114310.782500", "114311.982500", "114313.182500", "114314.382500", "114315.582500", "114316.782500", "114317.982500", "114319.182500", "114320.382500", "114321.582500"],
      "ContentTime": ["114126.875000", "114126.878000", "114126.880000", "114126.883000", "114126.886000", "114126.899000", "114126.902000", "114126.904000", "114126.907000", "114126.909000", "114126.912000", "114126.914000", "114126.917000", "114126.920000", "114126.922000", "114126.925000", "114126.927000", "114126.930000", "114126.932000", "114126.935000", "114126.938000", "114126.940000", "114126.943000", "114126.945000", "114126.948000", "114126.950000", "114126.953000", "114126.955000", "114146.872000", "114146.875000", "114146.877000", "114146.880000", "114146.882000", "114146.885000", "114146.887000", "114146.890000", "114146.892000", "114146.895000", "114146.897000", "114146.900000", "114146.902000", "114146.905000", "114146.908000", "114146.910000", "114146.913000", "114226.872000", "114226.874000", "114226.877000", "114226.879000", "114226.882000", "114226.884000", "114226.887000", "114226.890000", "114226.892000", "114226.895000", "114226.897000", "114226.900000", "114226.902000", "114226.905000", "114226.907000", "114226.910000", "114226.912000", "114226.915000", "114226.917000", "114226.920000", "114226.923000", "114226.925000", "114226.928000", "114226.930000", "114226.933000", "114226.935000", "114226.938000", "114226.940000", "114226.943000", "114226.945000", "114226.948000", "114226.950000", "114226.953000", "114306.872000", "114306.874000", "114306.877000", "114306.879000", "114306.882000", "114306.885000", "114306.887000", "114306.890000", "114306.892000", "114306.895000", "114306.897000", "114306.900000", "114306.902000", "114306.905000", "114306.908000", "114306.910000", "114306.913000", "114306.915000", "114306.918000", "114306.920000", "114306.923000", "114306.926000", "114306.928000", "114306.931000", "114306.933000", "114306.936000", "114306.938000", "114306.941000", "114306.944000", "114306.946000", "114306.949000", "114306.951000", "114306.954000", "114322.768000", "114322.771000", "114322.773000", "114322.782000", "114322.784000", "114322.787000", "114322.789000", "114322.792000", "114322.795000", "114322.797000", "114322.800000", "114322.803000", "114322.805000", "114322.808000"],
      "InstanceCreationTime": ["114126.875000", "114126.878000", "114126.880000", "114126.883000", "114126.886000", "114126.899000", "114126.902000", "114126.904000", "114126.907000", "114126.909000", "114126.912000", "114126.914000", "114126.917000", "114126.920000", "114126.922000", "114126.925000", "114126.927000", "114126.930000", "114126.932000", "114126.935000", "114126.938000", "114126.940000", "114126.943000", "114126.945000", "114126.948000", "114126.950000", "114126.953000", "114126.955000", "114146.872000", "114146.875000", "114146.877000", "114146.880000", "114146.882000", "114146.885000", "114146.887000", "114146.890000", "114146.892000", "114146.895000", "114146.897000", "114146.900000", "114146.902000", "114146.905000", "114146.908000", "114146.910000", "114146.913000", "114226.872000", "114226.874000", "114226.877000", "114226.879000", "114226.882000", "114226.884000", "114226.887000", "114226.890000", "114226.892000", "114226.895000", "114226.897000", "114226.900000", "114226.902000", "114226.905000", "114226.907000", "114226.910000", "114226.912000", "114226.915000", "114226.917000", "114226.920000", "114226.923000", "114226.925000", "114226.928000", "114226.930000", "114226.933000", "114226.935000", "114226.938000", "114226.940000", "114226.943000", "114226.945000", "114226.948000", "114226.950000", "114226.953000", "114306.872000", "114306.874000", "114306.877000", "114306.879000", "114306.882000", "114306.885000", "114306.887000", "114306.890000", "114306.892000", "114306.895000", "114306.897000", "114306.900000", "114306.902000", "114306.905000", "114306.908000", "114306.910000", "114306.913000", "114306.915000", "114306.918000", "114306.920000", "114306.923000", "114306.926000", "114306.928000", "114306.931000", "114306.933000", "114306.936000", "114306.938000", "114306.941000", "114306.944000", "114306.946000", "114306.949000", "114306.951000", "114306.954000", "114322.768000", "114322.771000", "114322.773000", "114322.782000", "114322.784000", "114322.787000", "114322.789000", "114322.792000", "114322.795000", "114322.797000", "114322.800000", "114322.803000", "114322.805000", "114322.808000"],
      "InstanceNumber": [1, 2, 3, 4, 5, 6, 7, 8, 9, 10, 11, 12, 13, 14, 15, 16, 17, 18, 19, 20, 21, 22, 23, 24, 25, 26, 27, 28, 29, 30, 31, 32, 33, 34, 35, 36, 37, 38, 39, 40, 41, 42, 43, 44, 45, 46, 47, 48, 49, 50, 51, 52, 53, 54, 55, 56, 57, 58, 59, 60, 61, 62, 63, 64, 65, 66, 67, 68, 69, 70, 71, 72, 73, 74, 75, 76, 77, 78, 79, 80, 81, 82, 83, 84, 85, 86, 87, 88, 89, 90, 91, 92, 93, 94, 95, 96, 97, 98, 99, 100, 101, 102, 103, 104, 105, 106, 107, 108, 109, 110, 111, 112, 113, 114, 115, 116, 117, 118, 119, 120, 121, 122, 123, 124, 125],
      "LargestImagePixelValue": [2946, 2808, 2713, 2642, 2647, 2664, 2672, 2612, 2644, 2619, 2644, 2665, 2654, 2688, 2711, 2713, 2696, 2717, 2726, 2701, 2699, 2681, 2639, 2671, 2674, 2671, 2695, 2700, 2668, 2662, 2693, 2695, 2663, 2692, 2710, 2700, 2716, 2740, 2691, 2713, 2685, 2689, 2657, 2691, 2684, 2671, 2669, 2663, 2708, 2679, 2696, 2682, 2691, 2653, 2705, 2705, 2710, 2674, 2717, 2712, 2702, 2715, 2725, 2683, 2669, 2666, 2649, 2690, 2733, 2749, 2709, 2707, 2691, 2694, 2726, 2709, 2714, 2728, 2756, 2722, 2708, 2719, 2728, 2717, 2703, 2758, 2702, 2689, 2691, 2724, 2698, 2682, 2711, 2689, 2637, 2684, 2677, 2644, 2668, 2671, 2696, 2661, 2681, 2647, 2666, 2662, 2693, 2664, 2679, 2655, 2678, 2685, 2692, 2674, 2697, 2661, 2701, 2700, 2701, 2676, 2702, 2703, 2688, 2693, 2707],
      "WindowCenter": [651.0, 648.0, 647.0, 646.0, 646.0, 646.0, 645.0, 644.0, 644.0, 644.0, 644.0, 645.0, 645.0, 645.0, 646.0, 646.0, 647.0, 647.0, 646.0, 646.0, 647.0, 646.0, 646.0, 646.0, 645.0, 645.0, 645.0, 645.0, 645.0, 645.0, 646.0, 646.0, 645.0, 645.0, 645.0, 645.0, 646.0, 646.0, 646.0, 646.0, 645.0, 644.0, 644.0, 645.0, 645.0, 646.0, 646.0, 645.0, 645.0, 645.0, 645.0, 644.0, 645.0, 644.0, 644.0, 644.0, 645.0, 645.0, 646.0, 646.0, 645.0, 645.0, 645.0, 645.0, 645.0, 645.0, 645.0, 646.0, 646.0, 646.0, 645.0, 645.0, 645.0, 645.0, 645.0, 645.0, 646.0, 646.0, 647.0, 646.0, 645.0, 646.0, 645.0, 645.0, 645.0, 646.0, 645.0, 645.0, 644.0, 645.0, 644.0, 645.0, 645.0, 645.0, 645.0, 646.0, 646.0, 645.0, 645.0, 645.0, 645.0, 644.0, 645.0, 644.0, 644.0, 644.0, 645.0, 644.0, 645.0, 644.0, 644.0, 644.0, 644.0, 644.0, 645.0, 644.0, 645.0, 645.0, 644.0, 644.0, 644.0, 645.0, 646.0, 647.0, 646.0],
      "WindowWidth": [1387.0, 1379.0, 1376.0, 1375.0, 1375.0, 1374.0, 1373.0, 1370.0, 1370.0, 1370.0, 1369.0, 1371.0, 1372.0, 1372.0, 1373.0, 1375.0, 1376.0, 1375.0, 1375.0, 1374.0, 1375.0, 1375.0, 1374.0, 1374.0, 1372.0, 1371.0, 1372.0, 1371.0, 1371.0, 1372.0, 1373.0, 1373.0, 1371.0, 1372.0, 1372.0, 1372.0, 1373.0, 1374.0, 1373.0, 1374.0, 1372.0, 1370.0, 1371.0, 1372.0, 1372.0, 1373.0, 1374.0, 1372.0, 1373.0, 1372.0, 1371.0, 1370.0, 1370.0, 1369.0, 1369.0, 1368.0, 1370.0, 1371.0, 1375.0, 1374.0, 1373.0, 1372.0, 1372.0, 1372.0, 1371.0, 1372.0, 1371.0, 1373.0, 1375.0, 1374.0, 1372.0, 1372.0, 1372.0, 1372.0, 1372.0, 1372.0, 1374.0, 1374.0, 1375.0, 1373.0, 1372.0, 1373.0, 1372.0, 1372.0, 1372.0, 1373.0, 1372.0, 1370.0, 1370.0, 1370.0, 1370.0, 1370.0, 1372.0, 1370.0, 1372.0, 1374.0, 1374.0, 1372.0, 1371.0, 1371.0, 1372.0, 1370.0, 1371.0, 1369.0, 1370.0, 1369.0, 1370.0, 1370.0, 1371.0, 1370.0, 1370.0, 1369.0, 1369.0, 1370.0, 1371.0, 1370.0, 1371.0, 1370.0, 1368.0, 1368.0, 1370.0, 1372.0, 1373.0, 1376.0, 1375.0]
    },
    "slices": {}
  }
}