{
  "AcquisitionMatrixPE": 88,
  "AcquisitionNumber": 1,
  "AcquisitionTime": "11:32:22.522500",
  "BandwidthPerPixelPhaseEncode": 19.592,
  "BaseResolution": 88,
  "BodyPartExamined": "BRAIN",
  "ConsistencyInfo": "N4_VE11C_LATEST_20160120",
  "ConversionSoftware": "dcm2niix",
  "ConversionSoftwareVersion": "v1.0.20190902",
  "DerivedVendorReportedEchoSpacing": 0.000580014,
  "DeviceSerialNumber": "67050",
  "DwellTime": 2.6e-06,
  "EchoTime": 0.033,
  "EchoTrainLength": 88,
  "EffectiveEchoSpacing": 0.000580014,
  "FlipAngle": 62,
  "ImageOrientationPatientDICOM": [0.990031, -0.0283668, 0.137965, 0.0207381, 0.998192, 0.0564206],
  "ImageType": [
    "ORIGINAL",
    "PRIMARY",
    "M",
    "ND",
    "MOSAIC"
],
  "ImagingFrequency": 123.251,
  "InPlanePhaseEncodingDirectionDICOM": "COL",
  "InstitutionAddress": "Olive_Street_60_Providence_RI_US_02912",
  "InstitutionName": "BROWN_UNIVERSITY_MRF",
  "InstitutionalDepartmentName": "Department",
  "MRAcquisitionType": "2D",
  "MagneticFieldStrength": 3,
  "Manufacturer": "Siemens",
  "ManufacturersModelName": "Prisma_fit",
  "Modality": "MR",
  "MultibandAccelerationFactor": 4,
  "PartialFourier": 1,
  "PatientPosition": "HFS",
  "PercentPhaseFOV": 100,
  "PhaseEncodingDirection": "j-",
  "PhaseEncodingSteps": 88,
  "PhaseResolution": 1,
  "PixelBandwidth": 2185,
  "ProcedureStepDescription": "ASHENHAV_1222",
  "ProtocolName": "func-bold_task-RDMcolor_run-02",
  "PulseSequenceDetails": "%SiemensSeq%_ep2d_bold",
  "ReceiveCoilActiveElements": "HC1-7",
  "ReceiveCoilName": "HeadNeck_64",
  "ReconMatrixPE": 88,
  "RefLinesPE": 8,
  "RepetitionTime": 1.2,
  "SAR": 0.0511488,
  "ScanOptions": "FS",
  "ScanningSequence": "EP",
  "SequenceName": "_epfid2d1_88",
  "SequenceVariant": "SK",
  "SeriesDescription": "func-bold_task-RDMcolor_run-02",
  "SeriesNumber": 10,
  "ShimSetting": [1780, -9115, 4430, 504, -89, -74, 28, 29],
  "SliceThickness": 2.4,
  "SliceTiming": [0.55, 0, 0.63, 0.0775, 0.7075, 0.1575, 0.7875, 0.235, 0.865, 0.315, 0.945, 0.3925, 1.0225, 0.4725, 1.1, 0.55, 0, 0.63, 0.0775, 0.7075, 0.1575, 0.7875, 0.235, 0.865, 0.315, 0.945, 0.3925, 1.0225, 0.4725, 1.1, 0.55, 0, 0.63, 0.0775, 0.7075, 0.1575, 0.7875, 0.235, 0.865, 0.315, 0.945, 0.3925, 1.0225, 0.4725, 1.1, 0.55, 0, 0.63, 0.0775, 0.7075, 0.1575, 0.7875, 0.235, 0.865, 0.315, 0.945, 0.3925, 1.0225, 0.4725, 1.1],
  "SoftwareVersions": "syngo_MR_E11",
  "SpacingBetweenSlices": 2.4,
  "StationName": "AWP67050",
  "TaskName": "RDMcolor",
  "TotalReadoutTime": 0.0504612,
  "TxRefAmp": 245.896,
  "dcmmeta_affine": [
    [-2.373823642730713, 0.04972442239522934, 0.3343591094017029, 101.50154113769531],
    [0.06801580637693405, 2.3933913707733154, 0.12719270586967468, -92.10521697998047],
    [0.33080318570137024, -0.13528114557266235, 2.3731889724731445, -67.49132537841797],
    [0.0, 0.0, 0.0, 1.0]
],
  "dcmmeta_reorient_transform": [
    [0.0, -1.0, 0.0, 87.0],
    [1.0, 0.0, 0.0, 0.0],
    [0.0, 0.0, 1.0, 0.0],
    [0.0, 0.0, 0.0, 1.0]
],
  "dcmmeta_shape": [88, 88, 60, 392],
  "dcmmeta_slice_dim": 2,
  "dcmmeta_version": 0.6,
  "global": {
    "const": {
      "AcquisitionMatrix": [88, 0, 0, 88],
      "AngioFlag": "N",
      "BitsAllocated": 16,
      "BitsStored": 12,
      "BodyPartExamined": "BRAIN",
      "Columns": 704,
      "DeidentificationMethodCodeSequence": [
        {
          "CodeMeaning": "XNAT DicomEdit 6 Script",
          "CodeValue": "3",
          "CodingSchemeDesignator": "XNAT",
          "CodingSchemeVersion": "1.0"}
],
      "EchoNumbers": 1,
      "EchoTime": 33.0,
      "EchoTrainLength": 88,
      "FlipAngle": 62.0,
      "HighBit": 11,
      "ImageOrientationPatient": [0.99003075620664, -0.0283667822897, 0.13796531240654, 0.02073814802468, 0.9981916890948, 0.05642057283102],
      "ImagePositionPatient": [-852.28039799593, -832.33551957021, -222.81475648875],
      "ImageType": [
        "ORIGINAL",
        "PRIMARY",
        "M",
        "ND",
        "MOSAIC"
],
      "ImagedNucleus": "1H",
      "ImagingFrequency": 123.250738,
      "InPlanePhaseEncodingDirection": "COL",
      "MRAcquisitionType": "2D",
      "MagneticFieldStrength": 3.0,
      "Manufacturer": "SIEMENS",
      "ManufacturerModelName": "Prisma_fit",
      "Modality": "MR",
      "NumberOfAverages": 1.0,
      "NumberOfPhaseEncodingSteps": 88,
      "PercentPhaseFieldOfView": 100.0,
      "PercentSampling": 100.0,
      "PerformedProcedureStepStartTime": "104915.366000",
      "PhotometricInterpretation": "MONOCHROME2",
      "PixelBandwidth": 2185.0,
      "PixelRepresentation": 0,
      "PixelSpacing": [2.3977272510529, 2.3977272510529],
      "ProtocolName": "func-bold_task-RDMcolor_run-02",
      "RepetitionTime": 1200.0,
      "Rows": 704,
      "SAR": 0.05114879932756,
      "SamplesPerPixel": 1,
      "ScanOptions": "FS",
      "ScanningSequence": "EP",
      "SequenceName": "*epfid2d1_88",
      "SequenceVariant": "SK",
      "SeriesDescription": "func-bold_task-RDMcolor_run-02",
      "SeriesNumber": 10,
      "SeriesTime": "113305.975000",
      "SliceLocation": -57.477836350794,
      "SliceThickness": 2.4000000953674,
      "SmallestImagePixelValue": 0,
      "SoftwareVersions": "syngo MR E11",
      "SpacingBetweenSlices": 2.4000000583567,
      "SpecificCharacterSet": "ISO_IR 100",
      "StudyID": "1",
      "StudyTime": "104915.286000",
      "TransmitCoilName": "Body",
      "VariableFlipAngleFlag": "N",
      "WindowCenterWidthExplanation": "Algo1",
      "dBdt": 0.0},
    "slices": {}
  },
  "time": {
    "samples": {
      "AcquisitionNumber": [1, 2, 3, 4, 5, 6, 7, 8, 9, 10, 11, 12, 13, 14, 15, 16, 17, 18, 19, 20, 21, 22, 23, 24, 25, 26, 27, 28, 29, 30, 31, 32, 33, 34, 35, 36, 37, 38, 39, 40, 41, 42, 43, 44, 45, 46, 47, 48, 49, 50, 51, 52, 53, 54, 55, 56, 57, 58, 59, 60, 61, 62, 63, 64, 65, 66, 67, 68, 69, 70, 71, 72, 73, 74, 75, 76, 77, 78, 79, 80, 81, 82, 83, 84, 85, 86, 87, 88, 89, 90, 91, 92, 93, 94, 95, 96, 97, 98, 99, 100, 101, 102, 103, 104, 105, 106, 107, 108, 109, 110, 111, 112, 113, 114, 115, 116, 117, 118, 119, 120, 121, 122, 123, 124, 125, 126, 127, 128, 129, 130, 131, 132, 133, 134, 135, 136, 137, 138, 139, 140, 141, 142, 143, 144, 145, 146, 147, 148, 149, 150, 151, 152, 153, 154, 155, 156, 157, 158, 159, 160, 161, 162, 163, 164, 165, 166, 167, 168, 169, 170, 171, 172, 173, 174, 175, 176, 177, 178, 179, 180, 181, 182, 183, 184, 185, 186, 187, 188, 189, 190, 191, 192, 193, 194, 195, 196, 197, 198, 199, 200, 201, 202, 203, 204, 205, 206, 207, 208, 209, 210, 211, 212, 213, 214, 215, 216, 217, 218, 219, 220, 221, 222, 223, 224, 225, 226, 227, 228, 229, 230, 231, 232, 233, 234, 235, 236, 237, 238, 239, 240, 241, 242, 243, 244, 245, 246, 247, 248, 249, 250, 251, 252, 253, 254, 255, 256, 257, 258, 259, 260, 261, 262, 263, 264, 265, 266, 267, 268, 269, 270, 271, 272, 273, 274, 275, 276, 277, 278, 279, 280, 281, 282, 283, 284, 285, 286, 287, 288, 289, 290, 291, 292, 293, 294, 295, 296, 297, 298, 299, 300, 301, 302, 303, 304, 305, 306, 307, 308, 309, 310, 311, 312, 313, 314, 315, 316, 317, 318, 319, 320, 321, 322, 323, 324, 325, 326, 327, 328, 329, 330, 331, 332, 333, 334, 335, 336, 337, 338, 339, 340, 341, 342, 343, 344, 345, 346, 347, 348, 349, 350, 351, 352, 353, 354, 355, 356, 357, 358, 359, 360, 361, 362, 363, 364, 365, 366, 367, 368, 369, 370, 371, 372, 373, 374, 375, 376, 377, 378, 379, 380, 381, 382, 383, 384, 385, 386, 387, 388, 389, 390, 391, 392],
      "AcquisitionTime": ["113222.522500", "113223.722500", "113224.922500", "113226.122500", "113227.322500", "113228.522500", "113229.722500", "113230.922500", "113232.122500", "113233.322500", "113234.522500", "113235.722500", "113236.922500", "113238.122500", "113239.322500", "113240.522500", "113241.722500", "113242.922500", "113244.122500", "113245.322500", "113246.522500", "113247.722500", "113248.922500", "113250.122500", "113251.322500", "113252.522500", "113253.722500", "113254.922500", "113256.122500", "113257.322500", "113258.522500", "113259.722500", "113300.922500", "113302.122500", "113303.322500", "113304.522500", "113305.722500", "113306.922500", "113308.122500", "113309.322500", "113310.522500", "113311.722500", "113312.922500", "113314.122500", "113315.322500", "113316.522500", "113317.722500", "113318.922500", "113320.122500", "113321.322500", "113322.522500", "113323.722500", "113324.922500", "113326.122500", "113327.322500", "113328.522500", "113329.722500", "113330.922500", "113332.122500", "113333.322500", "113334.522500", "113335.722500", "113336.922500", "113338.122500", "113339.322500", "113340.522500", "113341.722500", "113342.922500", "113344.122500", "113345.322500", "113346.522500", "113347.722500", "113348.922500", "113350.122500", "113351.322500", "113352.522500", "113353.722500", "113354.922500", "113356.122500", "113357.322500", "113358.522500", "113359.722500", "113400.922500", "113402.122500", "113403.322500", "113404.522500", "113405.722500", "113406.922500", "113408.122500", "113409.322500", "113410.522500", "113411.722500", "113412.922500", "113414.122500", "113415.322500", "113416.522500", "113417.722500", "113418.922500", "113420.122500", "113421.322500", "113422.522500", "113423.722500", "113424.922500", "113426.122500", "113427.322500", "113428.522500", "113429.722500", "113430.922500", "113432.122500", "113433.322500", "113434.522500", "113435.722500", "113436.922500", "113438.122500", "113439.322500", "113440.522500", "113441.722500", "113442.922500", "113444.122500", "113445.322500", "113446.522500", "113447.722500", "113448.922500", "113450.122500", "113451.322500", "113452.522500", "113453.722500", "113454.922500", "113456.122500", "113457.322500", "113458.522500", "113459.722500", "113500.922500", "113502.122500", "113503.322500", "113504.522500", "113505.722500", "113506.922500", "113508.122500", "113509.322500", "113510.522500", "113511.722500", "113512.922500", "113514.122500", "113515.322500", "113516.522500", "113517.722500", "113518.922500", "113520.122500", "113521.322500", "113522.522500", "113523.722500", "113524.922500", "113526.122500", "113527.322500", "113528.522500", "113529.722500", "113530.922500", "113532.122500", "113533.322500", "113534.522500", "113535.722500", "113536.922500", "113538.122500", "113539.322500", "113540.522500", "113541.722500", "113542.922500", "113544.122500", "113545.322500", "113546.522500", "113547.722500", "113548.922500", "113550.122500", "113551.322500", "113552.522500", "113553.722500", "113554.922500", "113556.122500", "113557.322500", "113558.522500", "113559.722500", "113600.922500", "113602.122500", "113603.322500", "113604.522500", "113605.722500", "113606.922500", "113608.122500", "113609.322500", "113610.522500", "113611.722500", "113612.922500", "113614.122500", "113615.322500", "113616.522500", "113617.722500", "113618.922500", "113620.122500", "113621.322500", "113622.522500", "113623.722500", "113624.922500", "113626.122500", "113627.322500", "113628.522500", "113629.722500", "113630.922500", "113632.122500", "113633.322500", "113634.522500", "113635.722500", "113636.922500", "113638.122500", "113639.322500", "113640.522500", "113641.722500", "113642.922500", "113644.122500", "113645.322500", "113646.522500", "113647.722500", "113648.922500", "113650.122500", "113651.322500", "113652.522500", "113653.722500", "113654.922500", "113656.122500", "113657.322500", "113658.522500", "113659.722500", "113700.922500", "113702.122500", "113703.322500", "113704.522500", "113705.722500", "113706.922500", "113708.122500", "113709.322500", "113710.522500", "113711.722500", "113712.922500", "113714.122500", "113715.322500", "113716.522500", "113717.722500", "113718.922500", "113720.122500", "113721.322500", "113722.522500", "113723.722500", "113724.922500", "113726.122500", "113727.322500", "113728.522500", "113729.722500", "113730.922500", "113732.122500", "113733.322500", "113734.522500", "113735.722500", "113736.922500", "113738.122500", "113739.322500", "113740.522500", "113741.722500", "113742.922500", "113744.122500", "113745.322500", "113746.522500", "113747.722500", "113748.922500", "113750.122500", "113751.322500", "113752.522500", "113753.722500", "113754.922500", "113756.122500", "113757.322500", "113758.522500", "113759.722500", "113800.922500", "113802.122500", "113803.322500", "113804.522500", "113805.722500", "113806.922500", "113808.122500", "113809.322500", "113810.522500", "113811.722500", "113812.922500", "113814.122500", "113815.322500", "113816.522500", "113817.722500", "113818.922500", "113820.122500", "113821.322500", "113822.522500", "113823.722500", "113824.922500", "113826.122500", "113827.322500", "113828.522500", "113829.722500", "113830.922500", "113832.122500", "113833.322500", "113834.522500", "113835.722500", "113836.922500", "113838.122500", "113839.322500", "113840.522500", "113841.722500", "113842.922500", "113844.122500", "113845.322500", "113846.522500", "113847.722500", "113848.922500", "113850.122500", "113851.322500", "113852.522500", "113853.722500", "113854.922500", "113856.122500", "113857.322500", "113858.522500", "113859.722500", "113900.922500", "113902.122500", "113903.322500", "113904.522500", "113905.722500", "113906.922500", "113908.122500", "113909.322500", "113910.522500", "113911.722500", "113912.922500", "113914.122500", "113915.322500", "113916.522500", "113917.722500", "113918.922500", "113920.122500", "113921.322500", "113922.522500", "113923.722500", "113924.922500", "113926.122500", "113927.322500", "113928.522500", "113929.722500", "113930.922500", "113932.122500", "113933.322500", "113934.522500", "113935.722500", "113936.922500", "113938.122500", "113939.322500", "113940.522500", "113941.722500", "113942.922500", "113944.122500", "113945.322500", "113946.522500", "113947.722500", "113948.922500", "113950.122500", "113951.322500", "113952.522500", "113953.722500", "113954.922500", "113956.122500", "113957.322500", "113958.522500", "113959.722500", "114000.922500", "114002.122500", "114003.322500", "114004.522500", "114005.722500", "114006.922500", "114008.122500", "114009.322500", "114010.522500", "114011.722500"],
      "ContentTime": ["113305.978000", "113305.981000", "113305.984000", "113305.986000", "113305.989000", "113305.992000", "113305.994000", "113305.997000", "113306.000000", "113306.009000", "113306.011000", "113306.014000", "113306.017000", "113306.019000", "113306.022000", "113306.024000", "113306.027000", "113306.029000", "113306.032000", "113306.034000", "113306.037000", "113306.040000", "113306.042000", "113306.045000", "113306.047000", "113306.050000", "113306.069000", "113306.072000", "113306.081000", "113306.083000", "113306.086000", "113306.088000", "113306.091000", "113306.094000", "113306.096000", "113345.973000", "113345.975000", "113345.978000", "113345.980000", "113345.992000", "113345.995000", "113345.997000", "113346.001000", "113346.003000", "113346.006000", "113346.008000", "113346.011000", "113346.013000", "113346.016000", "113346.019000", "113346.022000", "113346.024000", "113346.033000", "113346.036000", "113346.039000", "113346.041000", "113346.044000", "113346.046000", "113346.049000", "113346.051000", "113346.054000", "113346.057000", "113346.059000", "113346.062000", "113346.064000", "113346.067000", "113346.070000", "113346.072000", "113425.972000", "113425.975000", "113425.978000", "113425.980000", "113425.983000", "113425.985000", "113425.988000", "113425.991000", "113425.993000", "113425.996000", "113425.998000", "113426.002000", "113426.004000", "113426.007000", "113426.010000", "113426.012000", "113426.015000", "113426.017000", "113426.020000", "113426.022000", "113426.025000", "113426.028000", "113426.030000", "113426.033000", "113426.035000", "113426.049000", "113426.051000", "113426.054000", "113426.056000", "113426.059000", "113426.061000", "113426.064000", "113426.067000", "113426.069000", "113505.973000", "113505.976000", "113505.989000", "113505.992000", "113505.994000", "113505.997000", "113506.001000", "113506.003000", "113506.006000", "113506.008000", "113506.011000", "113506.014000", "113506.016000", "113506.019000", "113506.021000", "113506.024000", "113506.027000", "113506.029000", "113506.032000", "113506.034000", "113506.037000", "113506.040000", "113506.042000", "113506.045000", "113506.047000", "113506.050000", "113506.052000", "113506.055000", "113506.058000", "113506.060000", "113506.063000", "113506.065000", "113506.068000", "113545.972000", "113545.975000", "113545.978000", "113545.981000", "113545.983000", "113545.986000", "113545.988000", "113545.991000", "113545.993000", "113545.996000", "113546.000000", "113546.002000", "113546.005000", "113546.007000", "113546.010000", "113546.013000", "113546.015000", "113546.018000", "113546.021000", "113546.024000", "113546.027000", "113546.030000", "113546.033000", "113546.036000", "113546.039000", "113546.041000", "113546.044000", "113546.046000", "113546.049000", "113546.052000", "113546.054000", "113546.057000", "113546.059000", "113625.973000", "113625.975000", "113625.978000", "113625.981000", "113625.983000", "113625.986000", "113625.989000", "113625.991000", "113625.998000", "113626.002000", "113626.004000", "113626.007000", "113626.009000", "113626.012000", "113626.015000", "113626.017000", "113626.020000", "113626.022000", "113626.025000", "113626.028000", "113626.030000", "113626.033000", "113626.035000", "113626.038000", "113626.040000", "113626.043000", "113626.046000", "113626.048000", "113626.051000", "113626.053000", "113626.056000", "113626.059000", "113626.061000", "113626.064000", "113705.973000", "113705.975000", "113705.983000", "113705.985000", "113705.988000", "113705.991000", "113705.993000", "113705.996000", "113706.000000", "113706.002000", "113706.005000", "113706.007000", "113706.010000", "113706.013000", "113706.015000", "113706.018000", "113706.021000", "113706.023000", "113706.026000", "113706.028000", "113706.051000", "113706.054000", "113706.056000", "113706.059000", "113706.066000", "113706.068000", "113706.071000", "113706.075000", "113706.078000", "113706.080000", "113706.083000", "113706.085000", "113706.088000", "113745.974000", "113745.977000", "113745.979000", "113745.982000", "113745.984000", "113745.987000", "113745.990000", "113745.992000", "113745.995000", "113745.997000", "113746.001000", "113746.003000", "113746.006000", "113746.009000", "113746.011000", "113746.014000", "113746.016000", "113746.019000", "113746.021000", "113746.024000", "113746.027000", "113746.030000", "113746.033000", "113746.036000", "113746.039000", "113746.041000", "113746.044000", "113746.047000", "113746.050000", "113746.052000", "113746.055000", "113746.058000", "113746.060000", "113825.972000", "113825.975000", "113825.978000", "113825.980000", "113825.983000", "113825.986000", "113825.989000", "113825.991000", "113825.994000", "113825.997000", "113826.000000", "113826.003000", "113826.005000", "113826.008000", "113826.011000", "113826.013000", "113826.016000", "113826.018000", "113826.021000", "113826.024000", "113826.026000", "113826.029000", "113826.032000", "113826.034000", "113826.037000", "113826.039000", "113826.042000", "113826.045000", "113826.047000", "113826.050000", "113826.052000", "113826.055000", "113826.058000", "113826.060000", "113905.973000", "113905.982000", "113905.984000", "113905.987000", "113905.990000", "113905.992000", "113905.995000", "113905.998000", "113906.001000", "113906.004000", "113906.006000", "113906.009000", "113906.012000", "113906.014000", "113906.017000", "113906.019000", "113906.022000", "113906.025000", "113906.027000", "113906.030000", "113906.032000", "113906.035000", "113906.038000", "113906.040000", "113906.043000", "113906.045000", "113906.048000", "113906.050000", "113906.053000", "113906.056000", "113906.058000", "113906.061000", "113906.063000", "113945.973000", "113945.976000", "113945.979000", "113945.982000", "113945.984000", "113945.987000", "113945.989000", "113945.992000", "113945.995000", "113945.997000", "113946.001000", "113946.003000", "113946.006000", "113946.008000", "113946.011000", "113946.014000", "113946.016000", "113946.019000", "113946.021000", "113946.024000", "113946.027000", "113946.030000", "113946.033000", "113946.036000", "113946.039000", "113946.042000", "113946.044000", "113946.047000", "113946.050000", "113946.053000", "113946.055000", "113946.058000", "113946.060000", "114013.708000", "114013.711000", "114013.714000", "114013.717000", "114013.720000", "114013.722000", "114013.725000", "114013.728000", "114013.731000", "114013.733000", "114013.736000", "114013.739000", "114013.742000", "114013.744000", "114013.747000", "114013.749000", "114013.752000", "114013.755000", "114013.757000", "114013.760000", "114013.763000", "114013.765000", "114013.774000", "114013.777000"],
      "InstanceCreationTime": ["113305.978000", "113305.981000", "113305.984000", "113305.986000", "113305.989000", "113305.992000", "113305.994000", "113305.997000", "113306.000000", "113306.009000", "113306.011000", "113306.014000", "113306.017000", "113306.019000", "113306.022000", "113306.024000", "113306.027000", "113306.029000", "113306.032000", "113306.034000", "113306.037000", "113306.040000", "113306.042000", "113306.045000", "113306.047000", "113306.050000", "113306.069000", "113306.072000", "113306.081000", "113306.083000", "113306.086000", "113306.088000", "113306.091000", "113306.094000", "113306.096000", "113345.973000", "113345.975000", "113345.978000", "113345.980000", "113345.992000", "113345.995000", "113345.997000", "113346.001000", "113346.003000", "113346.006000", "113346.008000", "113346.011000", "113346.013000", "113346.016000", "113346.019000", "113346.022000", "113346.024000", "113346.033000", "113346.036000", "113346.039000", "113346.041000", "113346.044000", "113346.046000", "113346.049000", "113346.051000", "113346.054000", "113346.057000", "113346.059000", "113346.062000", "113346.064000", "113346.067000", "113346.070000", "113346.072000", "113425.972000", "113425.975000", "113425.978000", "113425.980000", "113425.983000", "113425.985000", "113425.988000", "113425.991000", "113425.993000", "113425.996000", "113425.998000", "113426.002000", "113426.004000", "113426.007000", "113426.010000", "113426.012000", "113426.015000", "113426.017000", "113426.020000", "113426.022000", "113426.025000", "113426.028000", "113426.030000", "113426.033000", "113426.035000", "113426.049000", "113426.051000", "113426.054000", "113426.056000", "113426.059000", "113426.061000", "113426.064000", "113426.067000", "113426.069000", "113505.973000", "113505.976000", "113505.989000", "113505.992000", "113505.994000", "113505.997000", "113506.001000", "113506.003000", "113506.006000", "113506.008000", "113506.011000", "113506.014000", "113506.016000", "113506.019000", "113506.021000", "113506.024000", "113506.027000", "113506.029000", "113506.032000", "113506.034000", "113506.037000", "113506.040000", "113506.042000", "113506.045000", "113506.047000", "113506.050000", "113506.052000", "113506.055000", "113506.058000", "113506.060000", "113506.063000", "113506.065000", "113506.068000", "113545.972000", "113545.975000", "113545.978000", "113545.981000", "113545.983000", "113545.986000", "113545.988000", "113545.991000", "113545.993000", "113545.996000", "113546.000000", "113546.002000", "113546.005000", "113546.007000", "113546.010000", "113546.013000", "113546.015000", "113546.018000", "113546.021000", "113546.024000", "113546.027000", "113546.030000", "113546.033000", "113546.036000", "113546.039000", "113546.041000", "113546.044000", "113546.046000", "113546.049000", "113546.052000", "113546.054000", "113546.057000", "113546.059000", "113625.973000", "113625.975000", "113625.978000", "113625.981000", "113625.983000", "113625.986000", "113625.989000", "113625.991000", "113625.998000", "113626.002000", "113626.004000", "113626.007000", "113626.009000", "113626.012000", "113626.015000", "113626.017000", "113626.020000", "113626.022000", "113626.025000", "113626.028000", "113626.030000", "113626.033000", "113626.035000", "113626.038000", "113626.040000", "113626.043000", "113626.046000", "113626.048000", "113626.051000", "113626.053000", "113626.056000", "113626.059000", "113626.061000", "113626.064000", "113705.973000", "113705.975000", "113705.983000", "113705.985000", "113705.988000", "113705.991000", "113705.993000", "113705.996000", "113706.000000", "113706.002000", "113706.005000", "113706.007000", "113706.010000", "113706.013000", "113706.015000", "113706.018000", "113706.021000", "113706.023000", "113706.026000", "113706.028000", "113706.051000", "113706.054000", "113706.056000", "113706.059000", "113706.066000", "113706.068000", "113706.071000", "113706.075000", "113706.078000", "113706.080000", "113706.083000", "113706.085000", "113706.088000", "113745.974000", "113745.977000", "113745.979000", "113745.982000", "113745.984000", "113745.987000", "113745.990000", "113745.992000", "113745.995000", "113745.997000", "113746.001000", "113746.003000", "113746.006000", "113746.009000", "113746.011000", "113746.014000", "113746.016000", "113746.019000", "113746.021000", "113746.024000", "113746.027000", "113746.030000", "113746.033000", "113746.036000", "113746.039000", "113746.041000", "113746.044000", "113746.047000", "113746.050000", "113746.052000", "113746.055000", "113746.058000", "113746.060000", "113825.972000", "113825.975000", "113825.978000", "113825.980000", "113825.983000", "113825.986000", "113825.989000", "113825.991000", "113825.994000", "113825.997000", "113826.000000", "113826.003000", "113826.005000", "113826.008000", "113826.011000", "113826.013000", "113826.016000", "113826.018000", "113826.021000", "113826.024000", "113826.026000", "113826.029000", "113826.032000", "113826.034000", "113826.037000", "113826.039000", "113826.042000", "113826.045000", "113826.047000", "113826.050000", "113826.052000", "113826.055000", "113826.058000", "113826.060000", "113905.973000", "113905.982000", "113905.984000", "113905.987000", "113905.990000", "113905.992000", "113905.995000", "113905.998000", "113906.001000", "113906.004000", "113906.006000", "113906.009000", "113906.012000", "113906.014000", "113906.017000", "113906.019000", "113906.022000", "113906.025000", "113906.027000", "113906.030000", "113906.032000", "113906.035000", "113906.038000", "113906.040000", "113906.043000", "113906.045000", "113906.048000", "113906.050000", "113906.053000", "113906.056000", "113906.058000", "113906.061000", "113906.063000", "113945.973000", "113945.976000", "113945.979000", "113945.982000", "113945.984000", "113945.987000", "113945.989000", "113945.992000", "113945.995000", "113945.997000", "113946.001000", "113946.003000", "113946.006000", "113946.008000", "113946.011000", "113946.014000", "113946.016000", "113946.019000", "113946.021000", "113946.024000", "113946.027000", "113946.030000", "113946.033000", "113946.036000", "113946.039000", "113946.042000", "113946.044000", "113946.047000", "113946.050000", "113946.053000", "113946.055000", "113946.058000", "113946.060000", "114013.708000", "114013.711000", "114013.714000", "114013.717000", "114013.720000", "114013.722000", "114013.725000", "114013.728000", "114013.731000", "114013.733000", "114013.736000", "114013.739000", "114013.742000", "114013.744000", "114013.747000", "114013.749000", "114013.752000", "114013.755000", "114013.757000", "114013.760000", "114013.763000", "114013.765000", "114013.774000", "114013.777000"],
      "InstanceNumber": [1, 2, 3, 4, 5, 6, 7, 8, 9, 10, 11, 12, 13, 14, 15, 16, 17, 18, 19, 20, 21, 22, 23, 24, 25, 26, 27, 28, 29, 30, 31, 32, 33, 34, 35, 36, 37, 38, 39, 40, 41, 42, 43, 44, 45, 46, 47, 48, 49, 50, 51, 52, 53, 54, 55, 56, 57, 58, 59, 60, 61, 62, 63, 64, 65, 66, 67, 68, 69, 70, 71, 72, 73, 74, 75, 76, 77, 78, 79, 80, 81, 82, 83, 84, 85, 86, 87, 88, 89, 90, 91, 92, 93, 94, 95, 96, 97, 98, 99, 100, 101, 102, 103, 104, 105, 106, 107, 108, 109, 110, 111, 112, 113, 114, 115, 116, 117, 118, 119, 120, 121, 122, 123, 124, 125, 126, 127, 128, 129, 130, 131, 132, 133, 134, 135, 136, 137, 138, 139, 140, 141, 142, 143, 144, 145, 146, 147, 148, 149, 150, 151, 152, 153, 154, 155, 156, 157, 158, 159, 160, 161, 162, 163, 164, 165, 166, 167, 168, 169, 170, 171, 172, 173, 174, 175, 176, 177, 178, 179, 180, 181, 182, 183, 184, 185, 186, 187, 188, 189, 190, 191, 192, 193, 194, 195, 196, 197, 198, 199, 200, 201, 202, 203, 204, 205, 206, 207, 208, 209, 210, 211, 212, 213, 214, 215, 216, 217, 218, 219, 220, 221, 222, 223, 224, 225, 226, 227, 228, 229, 230, 231, 232, 233, 234, 235, 236, 237, 238, 239, 240, 241, 242, 243, 244, 245, 246, 247, 248, 249, 250, 251, 252, 253, 254, 255, 256, 257, 258, 259, 260, 261, 262, 263, 264, 265, 266, 267, 268, 269, 270, 271, 272, 273, 274, 275, 276, 277, 278, 279, 280, 281, 282, 283, 284, 285, 286, 287, 288, 289, 290, 291, 292, 293, 294, 295, 296, 297, 298, 299, 300, 301, 302, 303, 304, 305, 306, 307, 308, 309, 310, 311, 312, 313, 314, 315, 316, 317, 318, 319, 320, 321, 322, 323, 324, 325, 326, 327, 328, 329, 330, 331, 332, 333, 334, 335, 336, 337, 338, 339, 340, 341, 342, 343, 344, 345, 346, 347, 348, 349, 350, 351, 352, 353, 354, 355, 356, 357, 358, 359, 360, 361, 362, 363, 364, 365, 366, 367, 368, 369, 370, 371, 372, 373, 374, 375, 376, 377, 378, 379, 380, 381, 382, 383, 384, 385, 386, 387, 388, 389, 390, 391, 392],
