{
  "AcquisitionMatrixPE": 88,
  "AcquisitionNumber": 1,
  "AcquisitionTime": "11:29:16.015000",
  "BandwidthPerPixelPhaseEncode": 19.592,
  "BaseResolution": 88,
  "BodyPartExamined": "BRAIN",
  "ConsistencyInfo": "N4_VE11C_LATEST_20160120",
  "ConversionSoftware": "dcm2niix",
  "ConversionSoftwareVersion": "v1.0.20190902",
  "DerivedVendorReportedEchoSpacing": 0.000580014,
  "DeviceSerialNumber": "67050",
  "DwellTime": 2.6e-06,
  "EchoTime": 0.033,
  "EchoTrainLength": 88,
  "EffectiveEchoSpacing": 0.000580014,
  "FlipAngle": 62,
  "ImageOrientationPatientDICOM": [0.990031, -0.0283668, 0.137965, 0.0207381, 0.998192, 0.0564206],
  "ImageType": [
    "ORIGINAL",
    "PRIMARY",
    "M",
    "ND",
    "MOSAIC"
],
  "ImagingFrequency": 123.251,
  "InPlanePhaseEncodingDirectionDICOM": "COL",
  "InstitutionAddress": "Olive_Street_60_Providence_RI_US_02912",
  "InstitutionName": "BROWN_UNIVERSITY_MRF",
  "InstitutionalDepartmentName": "Department",
  "MRAcquisitionType": "2D",
  "MagneticFieldStrength": 3,
  "Manufacturer": "Siemens",
  "ManufacturersModelName": "Prisma_fit",
  "Modality": "MR",
  "MultibandAccelerationFactor": 4,
  "PartialFourier": 1,
  "PatientPosition": "HFS",
  "PercentPhaseFOV": 100,
  "PhaseEncodingDirection": "j-",
  "PhaseEncodingSteps": 88,
  "PhaseResolution": 1,
  "PixelBandwidth": 2185,
  "ProcedureStepDescription": "ASHENHAV_1222",
  "ProtocolName": "func-bold_task-RDMmotion_run-02",
  "PulseSequenceDetails": "%SiemensSeq%_ep2d_bold",
  "ReceiveCoilActiveElements": "HC1-7",
  "ReceiveCoilName": "HeadNeck_64",
  "ReconMatrixPE": 88,
  "RefLinesPE": 8,
  "RepetitionTime": 1.2,
  "SAR": 0.0506296,
  "ScanOptions": "FS",
  "ScanningSequence": "EP",
  "SequenceName": "_epfid2d1_88",
  "SequenceVariant": "SK",
  "SeriesDescription": "func-bold_task-RDMmotion_run-02",
  "SeriesNumber": 9,
  "ShimSetting": [1780, -9115, 4430, 504, -89, -74, 28, 29],
  "SliceThickness": 2.4,
  "SliceTiming": [0.55, 0, 0.63, 0.08, 0.7075, 0.1575, 0.7875, 0.235, 0.865, 0.315, 0.945, 0.3925, 1.0225, 0.4725, 1.1025, 0.55, 0, 0.63, 0.08, 0.7075, 0.1575, 0.7875, 0.235, 0.865, 0.315, 0.945, 0.3925, 1.0225, 0.4725, 1.1025, 0.55, 0, 0.63, 0.08, 0.7075, 0.1575, 0.7875, 0.235, 0.865, 0.315, 0.945, 0.3925, 1.0225, 0.4725, 1.1025, 0.55, 0, 0.63, 0.08, 0.7075, 0.1575, 0.7875, 0.235, 0.865, 0.315, 0.945, 0.3925, 1.0225, 0.4725, 1.1025],
  "SoftwareVersions": "syngo_MR_E11",
  "SpacingBetweenSlices": 2.4,
  "StationName": "AWP67050",
  "TaskName": "RDMmotion",
  "TotalReadoutTime": 0.0504612,
  "TxRefAmp": 245.896,
  "dcmmeta_affine": [
    [-2.373823642730713, 0.04972442239522934, 0.3343591094017029, 101.50154113769531],
    [0.06801580637693405, 2.3933913707733154, 0.12719270586967468, -92.10521697998047],
    [0.33080318570137024, -0.13528114557266235, 2.3731889724731445, -67.49132537841797],
    [0.0, 0.0, 0.0, 1.0]
],
  "dcmmeta_reorient_transform": [
    [0.0, -1.0, 0.0, 87.0],
    [1.0, 0.0, 0.0, 0.0],
    [0.0, 0.0, 1.0, 0.0],
    [0.0, 0.0, 0.0, 1.0]
],
  "dcmmeta_shape": [88, 88, 60, 125],
  "dcmmeta_slice_dim": 2,
  "dcmmeta_version": 0.6,
  "global": {
    "const": {
      "AcquisitionMatrix": [88, 0, 0, 88],
      "AngioFlag": "N",
      "BitsAllocated": 16,
      "BitsStored": 12,
      "BodyPartExamined": "BRAIN",
      "Columns": 704,
      "DeidentificationMethodCodeSequence": [
        {
          "CodeMeaning": "XNAT DicomEdit 6 Script",
          "CodeValue": "3",
          "CodingSchemeDesignator": "XNAT",
          "CodingSchemeVersion": "1.0"}
],
      "EchoNumbers": 1,
      "EchoTime": 33.0,
      "EchoTrainLength": 88,
      "FlipAngle": 62.0,
      "HighBit": 11,
      "ImageOrientationPatient": [0.99003075620664, -0.0283667822897, 0.13796531240654, 0.02073814802468, 0.9981916890948, 0.05642057283102],
      "ImagePositionPatient": [-852.28039799593, -832.33551957021, -222.81475648875],
      "ImageType": [
        "ORIGINAL",
        "PRIMARY",
        "M",
        "ND",
        "MOSAIC"
],
      "ImagedNucleus": "1H",
      "ImagingFrequency": 123.250735,
      "InPlanePhaseEncodingDirection": "COL",
      "MRAcquisitionType": "2D",
      "MagneticFieldStrength": 3.0,
      "Manufacturer": "SIEMENS",
      "ManufacturerModelName": "Prisma_fit",
      "Modality": "MR",
      "NumberOfAverages": 1.0,
      "NumberOfPhaseEncodingSteps": 88,
      "PercentPhaseFieldOfView": 100.0,
      "PercentSampling": 100.0,
      "PerformedProcedureStepStartTime": "104915.366000",
      "PhotometricInterpretation": "MONOCHROME2",
      "PixelBandwidth": 2185.0,
      "PixelRepresentation": 0,
      "PixelSpacing": [2.3977272510529, 2.3977272510529],
      "ProtocolName": "func-bold_task-RDMmotion_run-02",
      "RepetitionTime": 1200.0,
      "Rows": 704,
      "SAR": 0.05062961971393,
      "SamplesPerPixel": 1,
      "ScanOptions": "FS",
      "ScanningSequence": "EP",
      "SequenceName": "*epfid2d1_88",
      "SequenceVariant": "SK",
      "SeriesDescription": "func-bold_task-RDMmotion_run-02",
      "SeriesNumber": 9,
      "SeriesTime": "112957.973000",
      "SliceLocation": -57.477836350794,
      "SliceThickness": 2.4000000953674,
      "SmallestImagePixelValue": 0,
      "SoftwareVersions": "syngo MR E11",
      "SpacingBetweenSlices": 2.4000000583567,
      "SpecificCharacterSet": "ISO_IR 100",
      "StudyID": "1",
      "StudyTime": "104915.286000",
      "TransmitCoilName": "Body",
      "VariableFlipAngleFlag": "N",
      "WindowCenterWidthExplanation": "Algo1",
      "dBdt": 0.0},
    "slices": {}
  },
  "time": {
    "samples": {
      "AcquisitionNumber": [1, 2, 3, 4, 5, 6, 7, 8, 9, 10, 11, 12, 13, 14, 15, 16, 17, 18, 19, 20, 21, 22, 23, 24, 25, 26, 27, 28, 29, 30, 31, 32, 33, 34, 35, 36, 37, 38, 39, 40, 41, 42, 43, 44, 45, 46, 47, 48, 49, 50, 51, 52, 53, 54, 55, 56, 57, 58, 59, 60, 61, 62, 63, 64, 65, 66, 67, 68, 69, 70, 71, 72, 73, 74, 75, 76, 77, 78, 79, 80, 81, 82, 83, 84, 85, 86, 87, 88, 89, 90, 91, 92, 93, 94, 95, 96, 97, 98, 99, 100, 101, 102, 103, 104, 105, 106, 107, 108, 109, 110, 111, 112, 113, 114, 115, 116, 117, 118, 119, 120, 121, 122, 123, 124, 125],
      "AcquisitionTime": ["112916.015000", "112917.215000", "112918.415000", "112919.615000", "112920.815000", "112922.015000", "112923.215000", "112924.415000", "112925.615000", "112926.815000", "112928.015000", "112929.215000", "112930.415000", "112931.615000", "112932.815000", "112934.015000", "112935.215000", "112936.415000", "112937.615000", "112938.815000", "112940.015000", "112941.215000", "112942.415000", "112943.615000", "112944.815000", "112946.015000", "112947.215000", "112948.415000", "112949.615000", "112950.815000", "112952.015000", "112953.215000", "112954.415000", "112955.615000", "112956.815000", "112958.015000", "112959.215000", "113000.415000", "113001.615000", "113002.815000", "113004.015000", "113005.215000", "113006.415000", "113007.615000", "113008.815000", "113010.015000", "113011.215000", "113012.415000", "113013.615000", "113014.815000", "113016.015000", "113017.215000", "113018.415000", "113019.615000", "113020.815000", "113022.015000", "113023.215000", "113024.415000", "113025.615000", "113026.815000", "113028.015000", "113029.215000", "113030.415000", "113031.615000", "113032.815000", "113034.015000", "113035.215000", "113036.415000", "113037.615000", "113038.815000", "113040.015000", "113041.215000", "113042.415000", "113043.615000", "113044.815000", "113046.015000", "113047.215000", "113048.415000", "113049.615000", "113050.815000", "113052.015000", "113053.215000", "113054.415000", "113055.615000", "113056.815000", "113058.015000", "113059.215000", "113100.415000", "113101.615000", "113102.815000", "113104.015000", "113105.215000", "113106.415000", "113107.615000", "113108.815000", "113110.015000", "113111.215000", "113112.415000", "113113.615000", "113114.815000", "113116.015000", "113117.215000", "113118.415000", "113119.615000", "113120.815000", "113122.015000", "113123.215000", "113124.415000", "113125.615000", "113126.815000", "113128.015000", "113129.215000", "113130.415000", "113131.615000", "113132.815000", "113134.015000", "113135.215000", "113136.415000", "113137.615000", "113138.815000", "113140.015000", "113141.215000", "113142.415000", "113143.615000", "113144.815000"],
      "ContentTime": ["112957.977000", "112957.980000", "112957.983000", "112957.985000", "112957.988000", "112957.991000", "112957.993000", "112957.996000", "112957.998000", "112958.002000", "112958.006000", "112958.009000", "112958.011000", "112958.014000", "112958.017000", "112958.019000", "112958.022000", "112958.024000", "112958.027000", "112958.030000", "112958.032000", "112958.035000", "112958.037000", "112958.040000", "112958.043000", "112958.045000", "112958.048000", "112958.050000", "112958.053000", "112958.056000", "112958.058000", "112958.061000", "112958.064000", "112958.066000", "113037.973000", "113037.976000", "113037.978000", "113037.981000", "113037.983000", "113037.986000", "113037.989000", "113037.991000", "113037.994000", "113038.000000", "113038.003000", "113038.005000", "113038.008000", "113038.011000", "113038.013000", "113038.016000", "113038.018000", "113038.021000", "113038.024000", "113038.026000", "113038.029000", "113038.032000", "113038.034000", "113038.037000", "113038.039000", "113038.042000", "113038.044000", "113038.047000", "113038.049000", "113038.052000", "113038.055000", "113038.057000", "113038.060000", "113038.063000", "113117.973000", "113117.976000", "113117.979000", "113117.981000", "113117.984000", "113117.987000", "113117.989000", "113117.992000", "113117.995000", "113117.997000", "113118.000000", "113118.002000", "113118.005000", "113118.008000", "113118.010000", "113118.013000", "113118.016000", "113118.018000", "113118.021000", "113118.023000", "113118.026000", "113118.029000", "113118.031000", "113118.034000", "113118.036000", "113118.039000", "113118.042000", "113118.044000", "113118.047000", "113118.049000", "113118.052000", "113118.063000", "113118.066000", "113137.973000", "113137.976000", "113137.979000", "113137.982000", "113137.985000", "113137.988000", "113137.991000", "113138.002000", "113138.004000", "113138.007000", "113138.010000", "113138.012000", "113138.015000", "113138.017000", "113138.020000", "113138.023000", "113146.403000", "113146.406000", "113146.409000", "113146.412000", "113146.414000", "113146.417000", "113146.420000", "113146.422000"],
      "InstanceCreationTime": ["112957.977000", "112957.980000", "112957.983000", "112957.985000", "112957.988000", "112957.991000", "112957.993000", "112957.996000", "112957.998000", "112958.002000", "112958.006000", "112958.009000", "112958.011000", "112958.014000", "112958.017000", "112958.019000", "112958.022000", "112958.024000", "112958.027000", "112958.030000", "112958.032000", "112958.035000", "112958.037000", "112958.040000", "112958.043000", "112958.045000", "112958.048000", "112958.050000", "112958.053000", "112958.056000", "112958.058000", "112958.061000", "112958.064000", "112958.066000", "113037.973000", "113037.976000", "113037.978000", "113037.981000", "113037.983000", "113037.986000", "113037.989000", "113037.991000", "113037.994000", "113038.000000", "113038.003000", "113038.005000", "113038.008000", "113038.011000", "113038.013000", "113038.016000", "113038.018000", "113038.021000", "113038.024000", "113038.026000", "113038.029000", "113038.032000", "113038.034000", "113038.037000", "113038.039000", "113038.042000", "113038.044000", "113038.047000", "113038.049000", "113038.052000", "113038.055000", "113038.057000", "113038.060000", "113038.063000", "113117.973000", "113117.976000", "113117.979000", "113117.981000", "113117.984000", "113117.987000", "113117.989000", "113117.992000", "113117.995000", "113117.997000", "113118.000000", "113118.002000", "113118.005000", "113118.008000", "113118.010000", "113118.013000", "113118.016000", "113118.018000", "113118.021000", "113118.023000", "113118.026000", "113118.029000", "113118.031000", "113118.034000", "113118.036000", "113118.039000", "113118.042000", "113118.044000", "113118.047000", "113118.049000", "113118.052000", "113118.063000", "113118.066000", "113137.973000", "113137.976000", "113137.979000", "113137.982000", "113137.985000", "113137.988000", "113137.991000", "113138.002000", "113138.004000", "113138.007000", "113138.010000", "113138.012000", "113138.015000", "113138.017000", "113138.020000", "113138.023000", "113146.403000", "113146.406000", "113146.409000", "113146.412000", "113146.414000", "113146.417000", "113146.420000", "113146.422000"],
      "InstanceNumber": [1, 2, 3, 4, 5, 6, 7, 8, 9, 10, 11, 12, 13, 14, 15, 16, 17, 18, 19, 20, 21, 22, 23, 24, 25, 26, 27, 28, 29, 30, 31, 32, 33, 34, 35, 36, 37, 38, 39, 40, 41, 42, 43, 44, 45, 46, 47, 48, 49, 50, 51, 52, 53, 54, 55, 56, 57, 58, 59, 60, 61, 62, 63, 64, 65, 66, 67, 68, 69, 70, 71, 72, 73, 74, 75, 76, 77, 78, 79, 80, 81, 82, 83, 84, 85, 86, 87, 88, 89, 90, 91, 92, 93, 94, 95, 96, 97, 98, 99, 100, 101, 102, 103, 104, 105, 106, 107, 108, 109, 110, 111, 112, 113, 114, 115, 116, 117, 118, 119, 120, 121, 122, 123, 124, 125],
      "LargestImagePixelValue": [3021, 2839, 2771, 2735, 2709, 2714, 2687, 2681, 2666, 2672, 2684, 2680, 2711, 2641, 2698, 2687, 2702, 2645, 2721, 2671, 2709, 2672, 2719, 2678, 2687, 2718, 2672, 2697, 2633, 2709, 2700, 2690, 2651, 2708, 2640, 2641, 2713, 2664, 2709, 2664, 2667, 2693, 2628, 2688, 2636, 2679, 2622, 2668, 2640, 2691, 2628, 2657, 2628, 2696, 2649, 2681, 2666, 2661, 2657, 2644, 2669, 2662, 2675, 2654, 2681, 2661, 2680, 2682, 2661, 2665, 2683, 2649, 2696, 2679, 2709, 2699, 2664, 2716, 2670, 2694, 2686, 2690, 2710, 2733, 2718, 2716, 2688, 2726, 2738, 2711, 2734, 2721, 2726, 2751, 2711, 2729, 2717, 2711, 2721, 2679, 2714, 2698, 2728, 2700, 2705, 2705, 2718, 2709, 2708, 2739, 2713, 2752, 2719, 2743, 2727, 2728, 2713, 2753, 2735, 2732, 2730, 2710, 2730, 2716, 2711],
      "WindowCenter": [658.0, 655.0, 653.0, 653.0, 653.0, 654.0, 653.0, 653.0, 652.0, 651.0, 651.0, 651.0, 652.0, 651.0, 652.0, 651.0, 651.0, 650.0, 651.0, 651.0, 652.0, 652.0, 652.0, 651.0, 652.0, 652.0, 651.0, 651.0, 651.0, 652.0, 652.0, 652.0, 651.0, 651.0, 650.0, 650.0, 651.0, 652.0, 652.0, 651.0, 651.0, 651.0, 650.0, 652.0, 651.0, 652.0, 651.0, 651.0, 650.0, 650.0, 650.0, 650.0, 650.0, 650.0, 649.0, 650.0, 650.0, 651.0, 650.0, 650.0, 650.0, 651.0, 651.0, 650.0, 650.0, 650.0, 650.0, 651.0, 650.0, 650.0, 650.0, 650.0, 651.0, 652.0, 652.0, 652.0, 651.0, 652.0, 651.0, 651.0, 651.0, 651.0, 652.0, 652.0, 652.0, 652.0, 651.0, 651.0, 652.0, 652.0, 652.0, 653.0, 653.0, 654.0, 653.0, 653.0, 652.0, 652.0, 652.0, 652.0, 652.0, 651.0, 651.0, 651.0, 651.0, 651.0, 651.0, 651.0, 651.0, 651.0, 651.0, 651.0, 650.0, 650.0, 651.0, 651.0, 651.0, 651.0, 650.0, 650.0, 651.0, 651.0, 652.0, 652.0, 652.0],
      "WindowWidth": [1403.0, 1395.0, 1392.0, 1392.0, 1391.0, 1393.0, 1392.0, 1391.0, 1389.0, 1387.0, 1386.0, 1387.0, 1388.0, 1387.0, 1388.0, 1387.0, 1387.0, 1386.0, 1387.0, 1387.0, 1388.0, 1388.0, 1388.0, 1387.0, 1388.0, 1389.0, 1387.0, 1387.0, 1388.0, 1389.0, 1388.0, 1389.0, 1387.0, 1388.0, 1385.0, 1385.0, 1387.0, 1388.0, 1389.0, 1388.0, 1386.0, 1386.0, 1386.0, 1388.0, 1388.0, 1388.0, 1386.0, 1386.0, 1384.0, 1384.0, 1384.0, 1384.0, 1384.0, 1385.0, 1383.0, 1383.0, 1384.0, 1385.0, 1385.0, 1385.0, 1385.0, 1387.0, 1387.0, 1384.0, 1384.0, 1384.0, 1385.0, 1386.0, 1385.0, 1384.0, 1385.0, 1385.0, 1387.0, 1388.0, 1389.0, 1389.0, 1387.0, 1388.0, 1388.0, 1387.0, 1386.0, 1387.0, 1389.0, 1388.0, 1388.0, 1388.0, 1386.0, 1387.0, 1388.0, 1390.0, 1390.0, 1390.0, 1391.0, 1393.0, 1392.0, 1391.0, 1389.0, 1389.0, 1389.0, 1389.0, 1389.0, 1387.0, 1386.0, 1386.0, 1386.0, 1386.0, 1387.0, 1386.0, 1386.0, 1386.0, 1387.0, 1386.0, 1385.0, 1385.0, 1386.0, 1386.0, 1386.0, 1386.0, 1384.0, 1384.0, 1385.0, 1387.0, 1388.0, 1389.0, 1389.0]
    },
    "slices": {}
  }
}