{
  "AcquisitionMatrixPE": 88,
  "AcquisitionNumber": 1,
  "AcquisitionTime": "13:23:10.817500",
  "BandwidthPerPixelPhaseEncode": 19.592,
  "BaseResolution": 88,
  "BodyPartExamined": "BRAIN",
  "ConsistencyInfo": "N4_VE11C_LATEST_20160120",
  "ConversionSoftware": "dcm2niix",
  "ConversionSoftwareVersion": "v1.0.20190902",
  "DerivedVendorReportedEchoSpacing": 0.000580014,
  "DeviceSerialNumber": "67050",
  "DwellTime": 2.6e-06,
  "EchoTime": 0.033,
  "EchoTrainLength": 88,
  "EffectiveEchoSpacing": 0.000580014,
  "FlipAngle": 62,
  "ImageOrientationPatientDICOM": [0.988856, -0.0243481, 0.146871, 0.0500932, 0.983429, -0.174237],
  "ImageType": [
    "ORIGINAL",
    "PRIMARY",
    "M",
    "ND",
    "MOSAIC"
],
  "ImagingFrequency": 123.251,
  "InPlanePhaseEncodingDirectionDICOM": "COL",
  "InstitutionAddress": "Olive_Street_60_Providence_RI_US_02912",
  "InstitutionName": "BROWN_UNIVERSITY_MRF",
  "InstitutionalDepartmentName": "Department",
  "MRAcquisitionType": "2D",
  "MagneticFieldStrength": 3,
  "Manufacturer": "Siemens",
  "ManufacturersModelName": "Prisma_fit",
  "Modality": "MR",
  "MultibandAccelerationFactor": 4,
  "PartialFourier": 1,
  "PatientPosition": "HFS",
  "PercentPhaseFOV": 100,
  "PhaseEncodingDirection": "j-",
  "PhaseEncodingSteps": 88,
  "PhaseResolution": 1,
  "PixelBandwidth": 2185,
  "ProcedureStepDescription": "ASHENHAV_1222",
  "ProtocolName": "func-bold_task-RDMmotion_run-03",
  "PulseSequenceDetails": "%SiemensSeq%_ep2d_bold",
  "ReceiveCoilActiveElements": "HC1-7;NC1",
  "ReceiveCoilName": "HeadNeck_64",
  "ReconMatrixPE": 88,
  "RefLinesPE": 8,
  "RepetitionTime": 1.2,
  "SAR": 0.0541391,
  "ScanOptions": "FS",
  "ScanningSequence": "EP",
  "SequenceName": "_epfid2d1_88",
  "SequenceVariant": "SK",
  "SeriesDescription": "func-bold_task-RDMmotion_run-03",
  "SeriesNumber": 11,
  "ShimSetting": [1794, -9124, 4395, 416, 3, -419, -67, -127],
  "SliceThickness": 2.4,
  "SliceTiming": [0.55, 0, 0.63, 0.0775, 0.7075, 0.1575, 0.7875, 0.235, 0.865, 0.315, 0.945, 0.3925, 1.0225, 0.4725, 1.1, 0.55, 0, 0.63, 0.0775, 0.7075, 0.1575, 0.7875, 0.235, 0.865, 0.315, 0.945, 0.3925, 1.0225, 0.4725, 1.1, 0.55, 0, 0.63, 0.0775, 0.7075, 0.1575, 0.7875, 0.235, 0.865, 0.315, 0.945, 0.3925, 1.0225, 0.4725, 1.1, 0.55, 0, 0.63, 0.0775, 0.7075, 0.1575, 0.7875, 0.235, 0.865, 0.315, 0.945, 0.3925, 1.0225, 0.4725, 1.1],
  "SoftwareVersions": "syngo_MR_E11",
  "SpacingBetweenSlices": 2.4,
  "StationName": "AWP67050",
  "TaskName": "RDMmotion",
  "TotalReadoutTime": 0.0504612,
  "TxRefAmp": 215.57,
  "dcmmeta_affine": [
    [-2.371006965637207, 0.1201099082827568, 0.33646735548973083, 94.85494232177734],
    [0.05838017538189888, 2.3579940795898438, -0.4311659634113312, -83.82442474365234],
    [0.3521563708782196, 0.41777268052101135, 2.3368537425994873, -85.03907012939453],
    [0.0, 0.0, 0.0, 1.0]
],
  "dcmmeta_reorient_transform": [
    [0.0, -1.0, 0.0, 87.0],
    [1.0, 0.0, 0.0, 0.0],
    [0.0, 0.0, 1.0, 0.0],
    [0.0, 0.0, 0.0, 1.0]
],
  "dcmmeta_shape": [88, 88, 60, 125],
  "dcmmeta_slice_dim": 2,
  "dcmmeta_version": 0.6,
  "global": {
    "const": {
      "AcquisitionMatrix": [88, 0, 0, 88],
      "AngioFlag": "N",
      "BitsAllocated": 16,
      "BitsStored": 12,
      "BodyPartExamined": "BRAIN",
      "Columns": 704,
      "DeidentificationMethodCodeSequence": [
        {
          "CodeMeaning": "XNAT DicomEdit 6 Script",
          "CodeValue": "3",
          "CodingSchemeDesignator": "XNAT",
          "CodingSchemeVersion": "1.0"}
],
      "EchoNumbers": 1,
      "EchoTime": 33.0,
      "EchoTrainLength": 88,
      "FlipAngle": 62.0,
      "HighBit": 11,
      "ImageOrientationPatient": [0.98885595786801, -0.0243481295229, 0.14687090650529, 0.05009323098221, 0.98342877403154, -0.1742369496306],
      "ImagePositionPatient": [-872.56847479931, -829.60209909805, -28.48302349509],
      "ImageType": [
        "ORIGINAL",
        "PRIMARY",
        "M",
        "ND",
        "MOSAIC"
],
      "ImagedNucleus": "1H",
      "ImagingFrequency": 123.25076,
      "InPlanePhaseEncodingDirection": "COL",
      "MRAcquisitionType": "2D",
      "MagneticFieldStrength": 3.0,
      "Manufacturer": "SIEMENS",
      "ManufacturerModelName": "Prisma_fit",
      "Modality": "MR",
      "NumberOfAverages": 1.0,
      "NumberOfPhaseEncodingSteps": 88,
      "PercentPhaseFieldOfView": 100.0,
      "PercentSampling": 100.0,
      "PerformedProcedureStepStartTime": "125256.752000",
      "PhotometricInterpretation": "MONOCHROME2",
      "PixelBandwidth": 2185.0,
      "PixelRepresentation": 0,
      "PixelSpacing": [2.3977272510529, 2.3977272510529],
      "ProtocolName": "func-bold_task-RDMmotion_run-03",
      "RepetitionTime": 1200.0,
      "Rows": 704,
      "SAR": 0.05413913239686,
      "SamplesPerPixel": 1,
      "ScanOptions": "FS",
      "ScanningSequence": "EP",
      "SequenceName": "*epfid2d1_88",
      "SequenceVariant": "SK",
      "SeriesDescription": "func-bold_task-RDMmotion_run-03",
      "SeriesNumber": 11,
      "SeriesTime": "132338.582000",
      "SliceLocation": -54.444183494684,
      "SliceThickness": 2.4000000953674,
      "SmallestImagePixelValue": 0,
      "SoftwareVersions": "syngo MR E11",
      "SpacingBetweenSlices": 2.4000000205378,
      "SpecificCharacterSet": "ISO_IR 100",
      "StudyID": "1",
      "StudyTime": "125256.653000",
      "TransmitCoilName": "Body",
      "VariableFlipAngleFlag": "N",
      "WindowCenterWidthExplanation": "Algo1",
      "dBdt": 0.0},
    "slices": {}
  },
  "time": {
    "samples": {
      "AcquisitionNumber": [1, 2, 3, 4, 5, 6, 7, 8, 9, 10, 11, 12, 13, 14, 15, 16, 17, 18, 19, 20, 21, 22, 23, 24, 25, 26, 27, 28, 29, 30, 31, 32, 33, 34, 35, 36, 37, 38, 39, 40, 41, 42, 43, 44, 45, 46, 47, 48, 49, 50, 51, 52, 53, 54, 55, 56, 57, 58, 59, 60, 61, 62, 63, 64, 65, 66, 67, 68, 69, 70, 71, 72, 73, 74, 75, 76, 77, 78, 79, 80, 81, 82, 83, 84, 85, 86, 87, 88, 89, 90, 91, 92, 93, 94, 95, 96, 97, 98, 99, 100, 101, 102, 103, 104, 105, 106, 107, 108, 109, 110, 111, 112, 113, 114, 115, 116, 117, 118, 119, 120, 121, 122, 123, 124, 125],
      "AcquisitionTime": ["132310.817500", "132312.017500", "132313.217500", "132314.417500", "132315.617500", "132316.817500", "132318.017500", "132319.217500", "132320.417500", "132321.617500", "132322.817500", "132324.017500", "132325.217500", "132326.417500", "132327.617500", "132328.817500", "132330.017500", "132331.217500", "132332.417500", "132333.617500", "132334.817500", "132336.017500", "132337.217500", "132338.417500", "132339.617500", "132340.817500", "132342.017500", "132343.217500", "132344.417500", "132345.617500", "132346.817500", "132348.017500", "132349.217500", "132350.417500", "132351.617500", "132352.817500", "132354.017500", "132355.217500", "132356.417500", "132357.617500", "132358.817500", "132400.017500", "132401.217500", "132402.417500", "132403.617500", "132404.817500", "132406.017500", "132407.217500", "132408.417500", "132409.617500", "132410.817500", "132412.017500", "132413.217500", "132414.417500", "132415.617500", "132416.817500", "132418.017500", "132419.217500", "132420.417500", "132421.617500", "132422.817500", "132424.017500", "132425.217500", "132426.417500", "132427.617500", "132428.817500", "132430.017500", "132431.217500", "132432.417500", "132433.617500", "132434.817500", "132436.017500", "132437.217500", "132438.417500", "132439.617500", "132440.817500", "132442.017500", "132443.217500", "132444.417500", "132445.617500", "132446.817500", "132448.017500", "132449.217500", "132450.417500", "132451.617500", "132452.817500", "132454.017500", "132455.217500", "132456.417500", "132457.617500", "132458.817500", "132500.017500", "132501.217500", "132502.417500", "132503.617500", "132504.817500", "132506.017500", "132507.217500", "132508.417500", "132509.617500", "132510.817500", "132512.017500", "132513.217500", "132514.417500", "132515.617500", "132516.817500", "132518.017500", "132519.217500", "132520.417500", "132521.617500", "132522.817500", "132524.017500", "132525.217500", "132526.417500", "132527.617500", "132528.817500", "132530.017500", "132531.217500", "132532.417500", "132533.617500", "132534.817500", "132536.017500", "132537.217500", "132538.417500", "132539.617500"],
      "ContentTime": ["132338.586000", "132338.589000", "132338.605000", "132338.621000", "132338.624000", "132338.626000", "132338.629000", "132338.632000", "132338.634000", "132338.647000", "132338.650000", "132338.652000", "132338.655000", "132338.658000", "132338.660000", "132338.663000", "132338.666000", "132338.668000", "132338.671000", "132338.673000", "132338.676000", "132338.679000", "132418.581000", "132418.584000", "132418.586000", "132418.589000", "132418.608000", "132418.610000", "132418.613000", "132418.615000", "132418.618000", "132418.620000", "132418.623000", "132418.625000", "132418.628000", "132418.631000", "132418.633000", "132418.636000", "132418.638000", "132418.641000", "132418.643000", "132418.646000", "132418.648000", "132418.651000", "132418.653000", "132418.656000", "132418.658000", "132418.661000", "132418.663000", "132418.666000", "132418.669000", "132418.671000", "132418.674000", "132418.676000", "132418.679000", "132418.681000", "132458.582000", "132458.584000", "132458.587000", "132458.590000", "132458.592000", "132458.595000", "132458.598000", "132458.600000", "132458.603000", "132458.605000", "132458.608000", "132458.611000", "132458.614000", "132458.617000", "132458.619000", "132458.622000", "132458.624000", "132458.627000", "132458.629000", "132458.632000", "132458.635000", "132458.637000", "132458.640000", "132458.642000", "132458.645000", "132458.648000", "132458.650000", "132458.653000", "132458.655000", "132458.658000", "132458.660000", "132458.663000", "132458.665000", "132538.581000", "132538.584000", "132538.587000", "132538.590000", "132538.592000", "132538.595000", "132538.597000", "132538.600000", "132538.602000", "132538.605000", "132538.607000", "132538.610000", "132538.613000", "132538.615000", "132538.618000", "132538.621000", "132538.623000", "132538.626000", "132538.628000", "132538.631000", "132538.633000", "132538.636000", "132538.638000", "132538.641000", "132538.643000", "132538.646000", "132538.648000", "132538.651000", "132538.654000", "132538.656000", "132538.659000", "132538.661000", "132538.664000", "132541.061000", "132541.064000", "132541.067000"],
      "InstanceCreationTime": ["132338.586000", "132338.589000", "132338.605000", "132338.621000", "132338.624000", "132338.626000", "132338.629000", "132338.632000", "132338.634000", "132338.647000", "132338.650000", "132338.652000", "132338.655000", "132338.658000", "132338.660000", "132338.663000", "132338.666000", "132338.668000", "132338.671000", "132338.673000", "132338.676000", "132338.679000", "132418.581000", "132418.584000", "132418.586000", "132418.589000", "132418.608000", "132418.610000", "132418.613000", "132418.615000", "132418.618000", "132418.620000", "132418.623000", "132418.625000", "132418.628000", "132418.631000", "132418.633000", "132418.636000", "132418.638000", "132418.641000", "132418.643000", "132418.646000", "132418.648000", "132418.651000", "132418.653000", "132418.656000", "132418.658000", "132418.661000", "132418.663000", "132418.666000", "132418.669000", "132418.671000", "132418.674000", "132418.676000", "132418.679000", "132418.681000", "132458.582000", "132458.584000", "132458.587000", "132458.590000", "132458.592000", "132458.595000", "132458.598000", "132458.600000", "132458.603000", "132458.605000", "132458.608000", "132458.611000", "132458.614000", "132458.617000", "132458.619000", "132458.622000", "132458.624000", "132458.627000", "132458.629000", "132458.632000", "132458.635000", "132458.637000", "132458.640000", "132458.642000", "132458.645000", "132458.648000", "132458.650000", "132458.653000", "132458.655000", "132458.658000", "132458.660000", "132458.663000", "132458.665000", "132538.581000", "132538.584000", "132538.587000", "132538.590000", "132538.592000", "132538.595000", "132538.597000", "132538.600000", "132538.602000", "132538.605000", "132538.607000", "132538.610000", "132538.613000", "132538.615000", "132538.618000", "132538.621000", "132538.623000", "132538.626000", "132538.628000", "132538.631000", "132538.633000", "132538.636000", "132538.638000", "132538.641000", "132538.643000", "132538.646000", "132538.648000", "132538.651000", "132538.654000", "132538.656000", "132538.659000", "132538.661000", "132538.664000", "132541.061000", "132541.064000", "132541.067000"],
      "InstanceNumber": [1, 2, 3, 4, 5, 6, 7, 8, 9, 10, 11, 12, 13, 14, 15, 16, 17, 18, 19, 20, 21, 22, 23, 24, 25, 26, 27, 28, 29, 30, 31, 32, 33, 34, 35, 36, 37, 38, 39, 40, 41, 42, 43, 44, 45, 46, 47, 48, 49, 50, 51, 52, 53, 54, 55, 56, 57, 58, 59, 60, 61, 62, 63, 64, 65, 66, 67, 68, 69, 70, 71, 72, 73, 74, 75, 76, 77, 78, 79, 80, 81, 82, 83, 84, 85, 86, 87, 88, 89, 90, 91, 92, 93, 94, 95, 96, 97, 98, 99, 100, 101, 102, 103, 104, 105, 106, 107, 108, 109, 110, 111, 112, 113, 114, 115, 116, 117, 118, 119, 120, 121, 122, 123, 124, 125],
      "LargestImagePixelValue": [2312, 2251, 2168, 2163, 2155, 2137, 2142, 2141, 2123, 2119, 2106, 2105, 2113, 2117, 2121, 2143, 2127, 2120, 2152, 2156, 2149, 2154, 2153, 2148, 2136, 2160, 2162, 2167, 2171, 2182, 2176, 2151, 2138, 2131, 2143, 2125, 2123, 2140, 2141, 2139, 2147, 2139, 2110, 2130, 2133, 2112, 2116, 2137, 2119, 2106, 2116, 2135, 2134, 2128, 2139, 2138, 2135, 2159, 2159, 2158, 2155, 2159, 2140, 2153, 2143, 2133, 2137, 2130, 2113, 2126, 2128, 2118, 2128, 2123, 2103, 2103, 2118, 2156, 2142, 2155, 2164, 2127, 2142, 2133, 2136, 2134, 2141, 2119, 2133, 2118, 2121, 2129, 2137, 2126, 2136, 2129, 2138, 2125, 2118, 2139, 2118, 2116, 2109, 2121, 2138, 2128, 2128, 2127, 2132, 2127, 2104, 2088, 2106, 2100, 2087, 2092, 2108, 2096, 2108, 2092, 2095, 2094, 2102, 2096, 2091],
      "WindowCenter": [609.0, 606.0, 604.0, 604.0, 604.0, 604.0, 603.0, 603.0, 601.0, 601.0, 600.0, 599.0, 600.0, 600.0, 600.0, 600.0, 599.0, 600.0, 601.0, 601.0, 602.0, 602.0, 603.0, 602.0, 602.0, 603.0, 603.0, 603.0, 604.0, 605.0, 605.0, 604.0, 603.0, 602.0, 601.0, 600.0, 600.0, 601.0, 601.0, 602.0, 602.0, 602.0, 601.0, 602.0, 602.0, 602.0, 601.0, 602.0, 601.0, 601.0, 601.0, 601.0, 601.0, 601.0, 601.0, 601.0, 603.0, 604.0, 605.0, 605.0, 604.0, 603.0, 604.0, 604.0, 604.0, 604.0, 602.0, 601.0, 601.0, 600.0, 599.0, 600.0, 601.0, 602.0, 602.0, 603.0, 603.0, 604.0, 604.0, 605.0, 606.0, 605.0, 605.0, 605.0, 604.0, 603.0, 603.0, 603.0, 603.0, 602.0, 601.0, 602.0, 602.0, 602.0, 603.0, 602.0, 603.0, 602.0, 602.0, 602.0, 602.0, 602.0, 601.0, 601.0, 602.0, 601.0, 602.0, 603.0, 603.0, 602.0, 601.0, 600.0, 599.0, 598.0, 598.0, 598.0, 598.0, 597.0, 598.0, 598.0, 599.0, 600.0, 600.0, 601.0, 601.0],
      "WindowWidth": [1302.0, 1294.0, 1288.0, 1289.0, 1288.0, 1287.0, 1286.0, 1285.0, 1281.0, 1280.0, 1279.0, 1277.0, 1279.0, 1278.0, 1278.0, 1278.0, 1277.0, 1279.0, 1281.0, 1281.0, 1282.0, 1283.0, 1285.0, 1284.0, 1284.0, 1284.0, 1285.0, 1285.0, 1289.0, 1290.0, 1289.0, 1288.0, 1285.0, 1283.0, 1282.0, 1279.0, 1279.0, 1281.0, 1282.0, 1282.0, 1282.0, 1283.0, 1282.0, 1283.0, 1282.0, 1282.0, 1282.0, 1282.0, 1282.0, 1281.0, 1282.0, 1281.0, 1281.0, 1281.0, 1282.0, 1282.0, 1285.0, 1288.0, 1289.0, 1290.0, 1288.0, 1287.0, 1287.0, 1287.0, 1288.0, 1287.0, 1284.0, 1282.0, 1280.0, 1278.0, 1277.0, 1278.0, 1281.0, 1283.0, 1283.0, 1286.0, 1286.0, 1287.0, 1288.0, 1291.0, 1292.0, 1290.0, 1290.0, 1290.0, 1288.0, 1287.0, 1286.0, 1286.0, 1285.0, 1283.0, 1282.0, 1283.0, 1284.0, 1284.0, 1285.0, 1284.0, 1285.0, 1285.0, 1285.0, 1285.0, 1285.0, 1285.0, 1283.0, 1282.0, 1283.0, 1282.0, 1284.0, 1285.0, 1286.0, 1283.0, 1281.0, 1279.0, 1276.0, 1274.0, 1274.0, 1274.0, 1273.0, 1272.0, 1274.0, 1275.0, 1277.0, 1279.0, 1280.0, 1281.0, 1281.0]
    },
    "slices": {}
  }
}