{
  "AcquisitionMatrixPE": 88,
  "AcquisitionNumber": 1,
  "AcquisitionTime": "13:11:23.867500",
  "BandwidthPerPixelPhaseEncode": 19.592,
  "BaseResolution": 88,
  "BodyPartExamined": "BRAIN",
  "ConsistencyInfo": "N4_VE11C_LATEST_20160120",
  "ConversionSoftware": "dcm2niix",
  "ConversionSoftwareVersion": "v1.0.20190902",
  "DerivedVendorReportedEchoSpacing": 0.000580014,
  "DeviceSerialNumber": "67050",
  "DwellTime": 2.6e-06,
  "EchoTime": 0.033,
  "EchoTrainLength": 88,
  "EffectiveEchoSpacing": 0.000580014,
  "FlipAngle": 62,
  "ImageOrientationPatientDICOM": [0.988856, -0.0243481, 0.146871, 0.0500932, 0.983429, -0.174237],
  "ImageType": [
    "ORIGINAL",
    "PRIMARY",
    "M",
    "ND",
    "MOSAIC"
],
  "ImagingFrequency": 123.251,
  "InPlanePhaseEncodingDirectionDICOM": "COL",
  "InstitutionAddress": "Olive_Street_60_Providence_RI_US_02912",
  "InstitutionName": "BROWN_UNIVERSITY_MRF",
  "InstitutionalDepartmentName": "Department",
  "MRAcquisitionType": "2D",
  "MagneticFieldStrength": 3,
  "Manufacturer": "Siemens",
  "ManufacturersModelName": "Prisma_fit",
  "Modality": "MR",
  "MultibandAccelerationFactor": 4,
  "PartialFourier": 1,
  "PatientPosition": "HFS",
  "PercentPhaseFOV": 100,
  "PhaseEncodingDirection": "j-",
  "PhaseEncodingSteps": 88,
  "PhaseResolution": 1,
  "PixelBandwidth": 2185,
  "ProcedureStepDescription": "ASHENHAV_1222",
  "ProtocolName": "func-bold_task-RDMmotion_run-02",
  "PulseSequenceDetails": "%SiemensSeq%_ep2d_bold",
  "ReceiveCoilActiveElements": "HC1-7;NC1",
  "ReceiveCoilName": "HeadNeck_64",
  "ReconMatrixPE": 88,
  "RefLinesPE": 8,
  "RepetitionTime": 1.2,
  "SAR": 0.0541391,
  "ScanOptions": "FS",
  "ScanningSequence": "EP",
  "SequenceName": "_epfid2d1_88",
  "SequenceVariant": "SK",
  "SeriesDescription": "func-bold_task-RDMmotion_run-02",
  "SeriesNumber": 9,
  "ShimSetting": [1794, -9124, 4395, 416, 3, -419, -67, -127],
  "SliceThickness": 2.4,
  "SliceTiming": [0.55, 0, 0.63, 0.0775, 0.7075, 0.1575, 0.7875, 0.235, 0.865, 0.315, 0.945, 0.3925, 1.0225, 0.4725, 1.1025, 0.55, 0, 0.63, 0.0775, 0.7075, 0.1575, 0.7875, 0.235, 0.865, 0.315, 0.945, 0.3925, 1.0225, 0.4725, 1.1025, 0.55, 0, 0.63, 0.0775, 0.7075, 0.1575, 0.7875, 0.235, 0.865, 0.315, 0.945, 0.3925, 1.0225, 0.4725, 1.1025, 0.55, 0, 0.63, 0.0775, 0.7075, 0.1575, 0.7875, 0.235, 0.865, 0.315, 0.945, 0.3925, 1.0225, 0.4725, 1.1025],
  "SoftwareVersions": "syngo_MR_E11",
  "SpacingBetweenSlices": 2.4,
  "StationName": "AWP67050",
  "TaskName": "RDMmotion",
  "TotalReadoutTime": 0.0504612,
  "TxRefAmp": 215.57,
  "dcmmeta_affine": [
    [-2.371006965637207, 0.1201099082827568, 0.33646735548973083, 94.85494232177734],
    [0.05838017538189888, 2.3579940795898438, -0.4311659634113312, -83.82442474365234],
    [0.3521563708782196, 0.41777268052101135, 2.3368537425994873, -85.03907012939453],
    [0.0, 0.0, 0.0, 1.0]
],
  "dcmmeta_reorient_transform": [
    [0.0, -1.0, 0.0, 87.0],
    [1.0, 0.0, 0.0, 0.0],
    [0.0, 0.0, 1.0, 0.0],
    [0.0, 0.0, 0.0, 1.0]
],
  "dcmmeta_shape": [88, 88, 60, 125],
  "dcmmeta_slice_dim": 2,
  "dcmmeta_version": 0.6,
  "global": {
    "const": {
      "AcquisitionMatrix": [88, 0, 0, 88],
      "AngioFlag": "N",
      "BitsAllocated": 16,
      "BitsStored": 12,
      "BodyPartExamined": "BRAIN",
      "Columns": 704,
      "DeidentificationMethodCodeSequence": [
        {
          "CodeMeaning": "XNAT DicomEdit 6 Script",
          "CodeValue": "3",
          "CodingSchemeDesignator": "XNAT",
          "CodingSchemeVersion": "1.0"}
],
      "EchoNumbers": 1,
      "EchoTime": 33.0,
      "EchoTrainLength": 88,
      "FlipAngle": 62.0,
      "HighBit": 11,
      "ImageOrientationPatient": [0.98885595786801, -0.0243481295229, 0.14687090650529, 0.05009323098221, 0.98342877403154, -0.1742369496306],
      "ImagePositionPatient": [-872.56847479931, -829.60209909805, -28.48302349509],
      "ImageType": [
        "ORIGINAL",
        "PRIMARY",
        "M",
        "ND",
        "MOSAIC"
],
      "ImagedNucleus": "1H",
      "ImagingFrequency": 123.250758,
      "InPlanePhaseEncodingDirection": "COL",
      "MRAcquisitionType": "2D",
      "MagneticFieldStrength": 3.0,
      "Manufacturer": "SIEMENS",
      "ManufacturerModelName": "Prisma_fit",
      "Modality": "MR",
      "NumberOfAverages": 1.0,
      "NumberOfPhaseEncodingSteps": 88,
      "PercentPhaseFieldOfView": 100.0,
      "PercentSampling": 100.0,
      "PerformedProcedureStepStartTime": "125256.752000",
      "PhotometricInterpretation": "MONOCHROME2",
      "PixelBandwidth": 2185.0,
      "PixelRepresentation": 0,
      "PixelSpacing": [2.3977272510529, 2.3977272510529],
      "ProtocolName": "func-bold_task-RDMmotion_run-02",
      "RepetitionTime": 1200.0,
      "Rows": 704,
      "SAR": 0.05413913239686,
      "SamplesPerPixel": 1,
      "ScanOptions": "FS",
      "ScanningSequence": "EP",
      "SequenceName": "*epfid2d1_88",
      "SequenceVariant": "SK",
      "SeriesDescription": "func-bold_task-RDMmotion_run-02",
      "SeriesNumber": 9,
      "SeriesTime": "131131.934000",
      "SliceLocation": -54.444183494684,
      "SliceThickness": 2.4000000953674,
      "SmallestImagePixelValue": 0,
      "SoftwareVersions": "syngo MR E11",
      "SpacingBetweenSlices": 2.4000000205378,
      "SpecificCharacterSet": "ISO_IR 100",
      "StudyID": "1",
      "StudyTime": "125256.653000",
      "TransmitCoilName": "Body",
      "VariableFlipAngleFlag": "N",
      "WindowCenterWidthExplanation": "Algo1",
      "dBdt": 0.0},
    "slices": {}
  },
  "time": {
    "samples": {
      "AcquisitionNumber": [1, 2, 3, 4, 5, 6, 7, 8, 9, 10, 11, 12, 13, 14, 15, 16, 17, 18, 19, 20, 21, 22, 23, 24, 25, 26, 27, 28, 29, 30, 31, 32, 33, 34, 35, 36, 37, 38, 39, 40, 41, 42, 43, 44, 45, 46, 47, 48, 49, 50, 51, 52, 53, 54, 55, 56, 57, 58, 59, 60, 61, 62, 63, 64, 65, 66, 67, 68, 69, 70, 71, 72, 73, 74, 75, 76, 77, 78, 79, 80, 81, 82, 83, 84, 85, 86, 87, 88, 89, 90, 91, 92, 93, 94, 95, 96, 97, 98, 99, 100, 101, 102, 103, 104, 105, 106, 107, 108, 109, 110, 111, 112, 113, 114, 115, 116, 117, 118, 119, 120, 121, 122, 123, 124, 125],
      "AcquisitionTime": ["131123.867500", "131125.067500", "131126.267500", "131127.467500", "131128.667500", "131129.867500", "131131.067500", "131132.267500", "131133.467500", "131134.667500", "131135.867500", "131137.067500", "131138.267500", "131139.467500", "131140.667500", "131141.867500", "131143.067500", "131144.267500", "131145.467500", "131146.667500", "131147.867500", "131149.067500", "131150.267500", "131151.467500", "131152.667500", "131153.867500", "131155.067500", "131156.267500", "131157.467500", "131158.667500", "131159.867500", "131201.067500", "131202.267500", "131203.467500", "131204.667500", "131205.867500", "131207.067500", "131208.267500", "131209.467500", "131210.667500", "131211.867500", "131213.067500", "131214.267500", "131215.467500", "131216.667500", "131217.867500", "131219.067500", "131220.267500", "131221.467500", "131222.667500", "131223.867500", "131225.067500", "131226.267500", "131227.467500", "131228.667500", "131229.867500", "131231.067500", "131232.267500", "131233.467500", "131234.667500", "131235.867500", "131237.067500", "131238.267500", "131239.467500", "131240.667500", "131241.867500", "131243.067500", "131244.267500", "131245.467500", "131246.667500", "131247.867500", "131249.067500", "131250.267500", "131251.467500", "131252.667500", "131253.867500", "131255.067500", "131256.267500", "131257.467500", "131258.667500", "131259.867500", "131301.067500", "131302.267500", "131303.467500", "131304.667500", "131305.867500", "131307.067500", "131308.267500", "131309.467500", "131310.667500", "131311.867500", "131313.067500", "131314.267500", "131315.467500", "131316.667500", "131317.867500", "131319.067500", "131320.267500", "131321.467500", "131322.667500", "131323.867500", "131325.067500", "131326.267500", "131327.467500", "131328.667500", "131329.867500", "131331.067500", "131332.267500", "131333.467500", "131334.667500", "131335.867500", "131337.067500", "131338.267500", "131339.467500", "131340.667500", "131341.867500", "131343.067500", "131344.267500", "131345.467500", "131346.667500", "131347.867500", "131349.067500", "131350.267500", "131351.467500", "131352.667500"],
      "ContentTime": ["131131.938000", "131131.946000", "131131.949000", "131131.951000", "131131.954000", "131131.957000", "131211.934000", "131211.936000", "131211.939000", "131211.942000", "131211.944000", "131211.947000", "131211.950000", "131211.952000", "131211.955000", "131211.957000", "131211.960000", "131211.962000", "131211.965000", "131211.968000", "131211.970000", "131211.982000", "131211.985000", "131211.987000", "131211.990000", "131211.992000", "131211.995000", "131211.997000", "131212.001000", "131212.004000", "131212.007000", "131212.009000", "131212.012000", "131212.014000", "131212.017000", "131212.020000", "131212.022000", "131212.025000", "131212.027000", "131251.933000", "131251.936000", "131251.939000", "131251.942000", "131251.944000", "131251.947000", "131251.949000", "131251.952000", "131251.954000", "131251.957000", "131251.960000", "131251.962000", "131251.965000", "131251.967000", "131251.970000", "131251.973000", "131251.975000", "131251.981000", "131251.983000", "131251.986000", "131251.988000", "131251.991000", "131251.993000", "131251.996000", "131252.000000", "131252.002000", "131252.005000", "131252.007000", "131252.010000", "131252.013000", "131252.015000", "131252.018000", "131252.020000", "131252.023000", "131331.934000", "131331.939000", "131331.941000", "131331.944000", "131331.946000", "131331.949000", "131331.952000", "131331.954000", "131331.957000", "131331.959000", "131331.962000", "131331.965000", "131331.967000", "131331.970000", "131331.972000", "131331.975000", "131331.977000", "131331.980000", "131331.983000", "131331.985000", "131331.988000", "131331.990000", "131331.993000", "131331.995000", "131331.998000", "131332.002000", "131332.004000", "131332.007000", "131332.009000", "131332.012000", "131332.014000", "131332.017000", "131332.019000", "131354.285000", "131354.289000", "131354.292000", "131354.294000", "131354.297000", "131354.299000", "131354.302000", "131354.305000", "131354.307000", "131354.310000", "131354.312000", "131354.315000", "131354.318000", "131354.320000", "131354.323000", "131354.326000", "131354.328000", "131354.331000", "131354.333000"],
      "InstanceCreationTime": ["131131.938000", "131131.946000", "131131.949000", "131131.951000", "131131.954000", "131131.957000", "131211.934000", "131211.936000", "131211.939000", "131211.942000", "131211.944000", "131211.947000", "131211.950000", "131211.952000", "131211.955000", "131211.957000", "131211.960000", "131211.962000", "131211.965000", "131211.968000", "131211.970000", "131211.982000", "131211.985000", "131211.987000", "131211.990000", "131211.992000", "131211.995000", "131211.997000", "131212.001000", "131212.004000", "131212.007000", "131212.009000", "131212.012000", "131212.014000", "131212.017000", "131212.020000", "131212.022000", "131212.025000", "131212.027000", "131251.933000", "131251.936000", "131251.939000", "131251.942000", "131251.944000", "131251.947000", "131251.949000", "131251.952000", "131251.954000", "131251.957000", "131251.960000", "131251.962000", "131251.965000", "131251.967000", "131251.970000", "131251.973000", "131251.975000", "131251.981000", "131251.983000", "131251.986000", "131251.988000", "131251.991000", "131251.993000", "131251.996000", "131252.000000", "131252.002000", "131252.005000", "131252.007000", "131252.010000", "131252.013000", "131252.015000", "131252.018000", "131252.020000", "131252.023000", "131331.934000", "131331.939000", "131331.941000", "131331.944000", "131331.946000", "131331.949000", "131331.952000", "131331.954000", "131331.957000", "131331.959000", "131331.962000", "131331.965000", "131331.967000", "131331.970000", "131331.972000", "131331.975000", "131331.977000", "131331.980000", "131331.983000", "131331.985000", "131331.988000", "131331.990000", "131331.993000", "131331.995000", "131331.998000", "131332.002000", "131332.004000", "131332.007000", "131332.009000", "131332.012000", "131332.014000", "131332.017000", "131332.019000", "131354.285000", "131354.289000", "131354.292000", "131354.294000", "131354.297000", "131354.299000", "131354.302000", "131354.305000", "131354.307000", "131354.310000", "131354.312000", "131354.315000", "131354.318000", "131354.320000", "131354.323000", "131354.326000", "131354.328000", "131354.331000", "131354.333000"],
      "InstanceNumber": [1, 2, 3, 4, 5, 6, 7, 8, 9, 10, 11, 12, 13, 14, 15, 16, 17, 18, 19, 20, 21, 22, 23, 24, 25, 26, 27, 28, 29, 30, 31, 32, 33, 34, 35, 36, 37, 38, 39, 40, 41, 42, 43, 44, 45, 46, 47, 48, 49, 50, 51, 52, 53, 54, 55, 56, 57, 58, 59, 60, 61, 62, 63, 64, 65, 66, 67, 68, 69, 70, 71, 72, 73, 74, 75, 76, 77, 78, 79, 80, 81, 82, 83, 84, 85, 86, 87, 88, 89, 90, 91, 92, 93, 94, 95, 96, 97, 98, 99, 100, 101, 102, 103, 104, 105, 106, 107, 108, 109, 110, 111, 112, 113, 114, 115, 116, 117, 118, 119, 120, 121, 122, 123, 124, 125],
      "LargestImagePixelValue": [2254, 2164, 2155, 2120, 2108, 2101, 2079, 2104, 2083, 2103, 2088, 2124, 2109, 2085, 2120, 2105, 2125, 2116, 2139, 2116, 2137, 2129, 2126, 2111, 2136, 2112, 2114, 2123, 2126, 2126, 2125, 2134, 2128, 2130, 2148, 2164, 2165, 2158, 2118, 2112, 2123, 2104, 2113, 2123, 2106, 2112, 2100, 2109, 2086, 2075, 2078, 2061, 2103, 2093, 2079, 2096, 2075, 2076, 2093, 2086, 2099, 2083, 2077, 2085, 2094, 2107, 2121, 2126, 2122, 2126, 2113, 2088, 2114, 2110, 2088, 2109, 2111, 2101, 2113, 2114, 2127, 2114, 2114, 2119, 2121, 2108, 2132, 2118, 2121, 2108, 2127, 2118, 2096, 2119, 2108, 2111, 2123, 2089, 2107, 2097, 2068, 2082, 2100, 2084, 2085, 2105, 2087, 2104, 2097, 2087, 2089, 2118, 2113, 2099, 2099, 2092, 2120, 2127, 2109, 2110, 2128, 2113, 2105, 2100, 2091],
      "WindowCenter": [609.0, 605.0, 604.0, 603.0, 602.0, 602.0, 602.0, 603.0, 602.0, 602.0, 601.0, 602.0, 601.0, 600.0, 601.0, 601.0, 601.0, 601.0, 602.0, 602.0, 602.0, 603.0, 602.0, 602.0, 603.0, 602.0, 602.0, 602.0, 601.0, 601.0, 602.0, 602.0, 602.0, 603.0, 603.0, 604.0, 604.0, 604.0, 604.0, 604.0, 603.0, 602.0, 601.0, 600.0, 599.0, 598.0, 598.0, 598.0, 598.0, 599.0, 599.0, 599.0, 601.0, 601.0, 601.0, 601.0, 601.0, 600.0, 600.0, 599.0, 600.0, 600.0, 600.0, 600.0, 601.0, 601.0, 602.0, 602.0, 603.0, 603.0, 603.0, 602.0, 602.0, 602.0, 603.0, 603.0, 604.0, 604.0, 605.0, 605.0, 605.0, 605.0, 605.0, 604.0, 604.0, 604.0, 604.0, 604.0, 604.0, 604.0, 603.0, 604.0, 604.0, 605.0, 603.0, 603.0, 602.0, 600.0, 599.0, 598.0, 598.0, 599.0, 599.0, 599.0, 600.0, 600.0, 600.0, 601.0, 601.0, 601.0, 601.0, 602.0, 602.0, 601.0, 601.0, 601.0, 601.0, 601.0, 600.0, 601.0, 602.0, 602.0, 602.0, 602.0, 602.0],
      "WindowWidth": [1301.0, 1293.0, 1289.0, 1286.0, 1285.0, 1285.0, 1284.0, 1285.0, 1284.0, 1283.0, 1281.0, 1282.0, 1280.0, 1280.0, 1281.0, 1280.0, 1282.0, 1282.0, 1283.0, 1283.0, 1285.0, 1285.0, 1284.0, 1284.0, 1285.0, 1283.0, 1284.0, 1283.0, 1282.0, 1282.0, 1283.0, 1285.0, 1284.0, 1286.0, 1286.0, 1287.0, 1287.0, 1289.0, 1288.0, 1287.0, 1286.0, 1284.0, 1282.0, 1279.0, 1276.0, 1275.0, 1275.0, 1275.0, 1275.0, 1276.0, 1277.0, 1276.0, 1281.0, 1282.0, 1282.0, 1282.0, 1282.0, 1280.0, 1280.0, 1277.0, 1279.0, 1278.0, 1279.0, 1280.0, 1281.0, 1281.0, 1283.0, 1285.0, 1287.0, 1286.0, 1286.0, 1283.0, 1284.0, 1284.0, 1285.0, 1285.0, 1287.0, 1288.0, 1290.0, 1290.0, 1290.0, 1290.0, 1290.0, 1289.0, 1289.0, 1288.0, 1289.0, 1288.0, 1289.0, 1288.0, 1287.0, 1287.0, 1288.0, 1289.0, 1286.0, 1285.0, 1283.0, 1279.0, 1276.0, 1274.0, 1274.0, 1275.0, 1275.0, 1275.0, 1278.0, 1279.0, 1279.0, 1281.0, 1281.0, 1281.0, 1282.0, 1283.0, 1282.0, 1281.0, 1282.0, 1282.0, 1282.0, 1282.0, 1280.0, 1280.0, 1282.0, 1283.0, 1284.0, 1284.0, 1284.0]
    },
    "slices": {}
  }
}