{
  "AcquisitionMatrixPE": 88,
  "AcquisitionNumber": 1,
  "AcquisitionTime": "13:07:5.175000",
  "BandwidthPerPixelPhaseEncode": 19.592,
  "BaseResolution": 88,
  "BodyPartExamined": "BRAIN",
  "ConsistencyInfo": "N4_VE11C_LATEST_20160120",
  "ConversionSoftware": "dcm2niix",
  "ConversionSoftwareVersion": "v1.0.20190902",
  "DerivedVendorReportedEchoSpacing": 0.000580014,
  "DeviceSerialNumber": "67050",
  "DwellTime": 2.6e-06,
  "EchoTime": 0.033,
  "EchoTrainLength": 88,
  "EffectiveEchoSpacing": 0.000580014,
  "FlipAngle": 62,
  "ImageOrientationPatientDICOM": [0.992185, 0.116564, 0.0445073, -0.104633, 0.971625, -0.212124],
  "ImageType": [
    "ORIGINAL",
    "PRIMARY",
    "M",
    "ND",
    "MOSAIC"
],
  "ImagingFrequency": 123.251,
  "InPlanePhaseEncodingDirectionDICOM": "COL",
  "InstitutionAddress": "Olive_Street_60_Providence_RI_US_02912",
  "InstitutionName": "BROWN_UNIVERSITY_MRF",
  "InstitutionalDepartmentName": "Department",
  "MRAcquisitionType": "2D",
  "MagneticFieldStrength": 3,
  "Manufacturer": "Siemens",
  "ManufacturersModelName": "Prisma_fit",
  "Modality": "MR",
  "MultibandAccelerationFactor": 4,
  "PartialFourier": 1,
  "PatientPosition": "HFS",
  "PercentPhaseFOV": 100,
  "PhaseEncodingDirection": "j-",
  "PhaseEncodingSteps": 88,
  "PhaseResolution": 1,
  "PixelBandwidth": 2185,
  "ProcedureStepDescription": "ASHENHAV_1222",
  "ProtocolName": "func-bold_task-RDMcolor_run-02",
  "PulseSequenceDetails": "%SiemensSeq%_ep2d_bold",
  "ReceiveCoilActiveElements": "HC1-7;NC1",
  "ReceiveCoilName": "HeadNeck_64",
  "ReconMatrixPE": 88,
  "RefLinesPE": 8,
  "RepetitionTime": 1.2,
  "SAR": 0.0441591,
  "ScanOptions": "FS",
  "ScanningSequence": "EP",
  "SequenceName": "_epfid2d1_88",
  "SequenceVariant": "SK",
  "SeriesDescription": "func-bold_task-RDMcolor_run-02",
  "SeriesNumber": 10,
  "ShimSetting": [1753, -9105, 4379, 399, -75, -372, -126, -1],
  "SliceThickness": 2.4,
  "SliceTiming": [0.55, 0, 0.6275, 0.0775, 0.7075, 0.1575, 0.785, 0.235, 0.865, 0.315, 0.9425, 0.3925, 1.0225, 0.4725, 1.1, 0.55, 0, 0.6275, 0.0775, 0.7075, 0.1575, 0.785, 0.235, 0.865, 0.315, 0.9425, 0.3925, 1.0225, 0.4725, 1.1, 0.55, 0, 0.6275, 0.0775, 0.7075, 0.1575, 0.785, 0.235, 0.865, 0.315, 0.9425, 0.3925, 1.0225, 0.4725, 1.1, 0.55, 0, 0.6275, 0.0775, 0.7075, 0.1575, 0.785, 0.235, 0.865, 0.315, 0.9425, 0.3925, 1.0225, 0.4725, 1.1],
  "SoftwareVersions": "syngo_MR_E11",
  "SpacingBetweenSlices": 2.4,
  "StationName": "AWP67050",
  "TaskName": "RDMcolor",
  "TotalReadoutTime": 0.0504612,
  "TxRefAmp": 218.152,
  "dcmmeta_affine": [
    [-2.3789901733398438, -0.25088149309158325, 0.16312886774539948, 113.1288833618164],
    [-0.2794884443283081, 2.3296921253204346, -0.4939415156841278, -67.01716613769531],
    [0.10671635717153549, 0.5086144208908081, 2.342949151992798, -94.04196166992188],
    [0.0, 0.0, 0.0, 1.0]
],
  "dcmmeta_reorient_transform": [
    [0.0, -1.0, 0.0, 87.0],
    [1.0, 0.0, 0.0, 0.0],
    [0.0, 0.0, 1.0, 0.0],
    [0.0, 0.0, 0.0, 1.0]
],
  "dcmmeta_shape": [88, 88, 60, 392],
  "dcmmeta_slice_dim": 2,
  "dcmmeta_version": 0.6,
  "global": {
    "const": {
      "AcquisitionMatrix": [88, 0, 0, 88],
      "AngioFlag": "N",
      "BitsAllocated": 16,
      "BitsStored": 12,
      "BodyPartExamined": "BRAIN",
      "Columns": 704,
      "DeidentificationMethodCodeSequence": [
        {
          "CodeMeaning": "XNAT DicomEdit 6 Script",
          "CodeValue": "3",
          "CodingSchemeDesignator": "XNAT",
          "CodingSchemeVersion": "1.0"}
],
      "EchoNumbers": 1,
      "EchoTime": 33.0,
      "EchoTrainLength": 88,
      "FlipAngle": 62.0,
      "HighBit": 11,
      "ImageOrientationPatient": [0.99218544443487, 0.1165639069301, 0.04450729662394, -0.104633044433, 0.97162519899935, -0.2121235457986],
      "ImagePositionPatient": [-746.75963101767, -939.29370724017, 73.992092211587],
      "ImageType": [
        "ORIGINAL",
        "PRIMARY",
        "M",
        "ND",
        "MOSAIC"
],
      "ImagedNucleus": "1H",
      "ImagingFrequency": 123.250593,
      "InPlanePhaseEncodingDirection": "COL",
      "MRAcquisitionType": "2D",
      "MagneticFieldStrength": 3.0,
      "Manufacturer": "SIEMENS",
      "ManufacturerModelName": "Prisma_fit",
      "Modality": "MR",
      "NumberOfAverages": 1.0,
      "NumberOfPhaseEncodingSteps": 88,
      "PercentPhaseFieldOfView": 100.0,
      "PercentSampling": 100.0,
      "PerformedProcedureStepStartTime": "121325.150000",
      "PhotometricInterpretation": "MONOCHROME2",
      "PixelBandwidth": 2185.0,
      "PixelRepresentation": 0,
      "PixelSpacing": [2.3977272510529, 2.3977272510529],
      "ProtocolName": "func-bold_task-RDMcolor_run-02",
      "RepetitionTime": 1200.0,
      "Rows": 704,
      "SAR": 0.04415911874986,
      "SamplesPerPixel": 1,
      "ScanOptions": "FS",
      "ScanningSequence": "EP",
      "SequenceName": "*epfid2d1_88",
      "SequenceVariant": "SK",
      "SeriesDescription": "func-bold_task-RDMcolor_run-02",
      "SeriesNumber": 10,
      "SeriesTime": "130747.971000",
      "SliceLocation": -70.32432790832,
      "SliceThickness": 2.4000000953674,
      "SmallestImagePixelValue": 0,
      "SoftwareVersions": "syngo MR E11",
      "SpacingBetweenSlices": 2.400000012327,
      "SpecificCharacterSet": "ISO_IR 100",
      "StudyID": "1",
      "StudyTime": "121325.008000",
      "TransmitCoilName": "Body",
      "VariableFlipAngleFlag": "N",
      "WindowCenterWidthExplanation": "Algo1",
      "dBdt": 0.0},
    "slices": {}
  },
  "time": {
    "samples": {
      "AcquisitionNumber": [1, 2, 3, 4, 5, 6, 7, 8, 9, 10, 11, 12, 13, 14, 15, 16, 17, 18, 19, 20, 21, 22, 23, 24, 25, 26, 27, 28, 29, 30, 31, 32, 33, 34, 35, 36, 37, 38, 39, 40, 41, 42, 43, 44, 45, 46, 47, 48, 49, 50, 51, 52, 53, 54, 55, 56, 57, 58, 59, 60, 61, 62, 63, 64, 65, 66, 67, 68, 69, 70, 71, 72, 73, 74, 75, 76, 77, 78, 79, 80, 81, 82, 83, 84, 85, 86, 87, 88, 89, 90, 91, 92, 93, 94, 95, 96, 97, 98, 99, 100, 101, 102, 103, 104, 105, 106, 107, 108, 109, 110, 111, 112, 113, 114, 115, 116, 117, 118, 119, 120, 121, 122, 123, 124, 125, 126, 127, 128, 129, 130, 131, 132, 133, 134, 135, 136, 137, 138, 139, 140, 141, 142, 143, 144, 145, 146, 147, 148, 149, 150, 151, 152, 153, 154, 155, 156, 157, 158, 159, 160, 161, 162, 163, 164, 165, 166, 167, 168, 169, 170, 171, 172, 173, 174, 175, 176, 177, 178, 179, 180, 181, 182, 183, 184, 185, 186, 187, 188, 189, 190, 191, 192, 193, 194, 195, 196, 197, 198, 199, 200, 201, 202, 203, 204, 205, 206, 207, 208, 209, 210, 211, 212, 213, 214, 215, 216, 217, 218, 219, 220, 221, 222, 223, 224, 225, 226, 227, 228, 229, 230, 231, 232, 233, 234, 235, 236, 237, 238, 239, 240, 241, 242, 243, 244, 245, 246, 247, 248, 249, 250, 251, 252, 253, 254, 255, 256, 257, 258, 259, 260, 261, 262, 263, 264, 265, 266, 267, 268, 269, 270, 271, 272, 273, 274, 275, 276, 277, 278, 279, 280, 281, 282, 283, 284, 285, 286, 287, 288, 289, 290, 291, 292, 293, 294, 295, 296, 297, 298, 299, 300, 301, 302, 303, 304, 305, 306, 307, 308, 309, 310, 311, 312, 313, 314, 315, 316, 317, 318, 319, 320, 321, 322, 323, 324, 325, 326, 327, 328, 329, 330, 331, 332, 333, 334, 335, 336, 337, 338, 339, 340, 341, 342, 343, 344, 345, 346, 347, 348, 349, 350, 351, 352, 353, 354, 355, 356, 357, 358, 359, 360, 361, 362, 363, 364, 365, 366, 367, 368, 369, 370, 371, 372, 373, 374, 375, 376, 377, 378, 379, 380, 381, 382, 383, 384, 385, 386, 387, 388, 389, 390, 391, 392],
      "AcquisitionTime": ["130705.175000", "130706.375000", "130707.575000", "130708.775000", "130709.975000", "130711.175000", "130712.375000", "130713.575000", "130714.775000", "130715.975000", "130717.175000", "130718.375000", "130719.575000", "130720.775000", "130721.975000", "130723.175000", "130724.375000", "130725.575000", "130726.775000", "130727.975000", "130729.175000", "130730.375000", "130731.575000", "130732.775000", "130733.975000", "130735.175000", "130736.375000", "130737.575000", "130738.775000", "130739.975000", "130741.175000", "130742.375000", "130743.575000", "130744.775000", "130745.975000", "130747.175000", "130748.375000", "130749.575000", "130750.775000", "130751.975000", "130753.175000", "130754.375000", "130755.575000", "130756.775000", "130757.975000", "130759.175000", "130800.375000", "130801.575000", "130802.775000", "130803.975000", "130805.175000", "130806.375000", "130807.575000", "130808.775000", "130809.975000", "130811.175000", "130812.375000", "130813.575000", "130814.775000", "130815.975000", "130817.175000", "130818.375000", "130819.575000", "130820.775000", "130821.975000", "130823.175000", "130824.375000", "130825.575000", "130826.775000", "130827.975000", "130829.175000", "130830.375000", "130831.575000", "130832.775000", "130833.975000", "130835.175000", "130836.375000", "130837.575000", "130838.775000", "130839.975000", "130841.175000", "130842.375000", "130843.575000", "130844.775000", "130845.975000", "130847.175000", "130848.375000", "130849.575000", "130850.775000", "130851.975000", "130853.175000", "130854.375000", "130855.575000", "130856.775000", "130857.975000", "130859.175000", "130900.375000", "130901.575000", "130902.775000", "130903.975000", "130905.175000", "130906.375000", "130907.575000", "130908.775000", "130909.975000", "130911.175000", "130912.375000", "130913.575000", "130914.775000", "130915.975000", "130917.175000", "130918.375000", "130919.575000", "130920.775000", "130921.975000", "130923.175000", "130924.375000", "130925.575000", "130926.775000", "130927.975000", "130929.175000", "130930.375000", "130931.575000", "130932.775000", "130933.975000", "130935.175000", "130936.375000", "130937.575000", "130938.775000", "130939.975000", "130941.175000", "130942.375000", "130943.575000", "130944.775000", "130945.975000", "130947.175000", "130948.375000", "130949.575000", "130950.775000", "130951.975000", "130953.175000", "130954.375000", "130955.575000", "130956.775000", "130957.975000", "130959.175000", "131000.375000", "131001.575000", "131002.775000", "131003.975000", "131005.175000", "131006.375000", "131007.575000", "131008.775000", "131009.975000", "131011.175000", "131012.375000", "131013.575000", "131014.775000", "131015.975000", "131017.175000", "131018.375000", "131019.575000", "131020.775000", "131021.975000", "131023.175000", "131024.375000", "131025.575000", "131026.775000", "131027.975000", "131029.175000", "131030.375000", "131031.575000", "131032.775000", "131033.975000", "131035.175000", "131036.375000", "131037.575000", "131038.775000", "131039.975000", "131041.175000", "131042.375000", "131043.575000", "131044.775000", "131045.975000", "131047.175000", "131048.375000", "131049.575000", "131050.775000", "131051.975000", "131053.175000", "131054.375000", "131055.575000", "131056.775000", "131057.975000", "131059.175000", "131100.375000", "131101.575000", "131102.775000", "131103.975000", "131105.175000", "131106.375000", "131107.575000", "131108.775000", "131109.975000", "131111.175000", "131112.375000", "131113.575000", "131114.775000", "131115.975000", "131117.175000", "131118.375000", "131119.575000", "131120.775000", "131121.975000", "131123.175000", "131124.375000", "131125.575000", "131126.775000", "131127.975000", "131129.175000", "131130.375000", "131131.575000", "131132.775000", "131133.975000", "131135.175000", "131136.375000", "131137.575000", "131138.775000", "131139.975000", "131141.175000", "131142.375000", "131143.575000", "131144.775000", "131145.975000", "131147.175000", "131148.375000", "131149.575000", "131150.775000", "131151.975000", "131153.175000", "131154.375000", "131155.575000", "131156.775000", "131157.975000", "131159.175000", "131200.375000", "131201.575000", "131202.775000", "131203.975000", "131205.175000", "131206.375000", "131207.575000", "131208.775000", "131209.975000", "131211.175000", "131212.375000", "131213.575000", "131214.775000", "131215.975000", "131217.175000", "131218.375000", "131219.575000", "131220.775000", "131221.975000", "131223.175000", "131224.375000", "131225.575000", "131226.775000", "131227.975000", "131229.175000", "131230.375000", "131231.575000", "131232.775000", "131233.975000", "131235.175000", "131236.375000", "131237.575000", "131238.775000", "131239.975000", "131241.175000", "131242.375000", "131243.575000", "131244.775000", "131245.975000", "131247.175000", "131248.375000", "131249.575000", "131250.775000", "131251.975000", "131253.175000", "131254.375000", "131255.575000", "131256.775000", "131257.975000", "131259.175000", "131300.375000", "131301.575000", "131302.775000", "131303.975000", "131305.175000", "131306.375000", "131307.575000", "131308.775000", "131309.975000", "131311.175000", "131312.375000", "131313.575000", "131314.775000", "131315.975000", "131317.175000", "131318.375000", "131319.575000", "131320.775000", "131321.975000", "131323.175000", "131324.375000", "131325.575000", "131326.775000", "131327.975000", "131329.175000", "131330.375000", "131331.575000", "131332.775000", "131333.975000", "131335.175000", "131336.375000", "131337.575000", "131338.775000", "131339.975000", "131341.175000", "131342.375000", "131343.575000", "131344.775000", "131345.975000", "131347.175000", "131348.375000", "131349.575000", "131350.775000", "131351.975000", "131353.175000", "131354.375000", "131355.575000", "131356.775000", "131357.975000", "131359.175000", "131400.375000", "131401.575000", "131402.775000", "131403.975000", "131405.175000", "131406.375000", "131407.575000", "131408.775000", "131409.975000", "131411.175000", "131412.375000", "131413.575000", "131414.775000", "131415.975000", "131417.175000", "131418.375000", "131419.575000", "131420.775000", "131421.975000", "131423.175000", "131424.375000", "131425.575000", "131426.775000", "131427.975000", "131429.175000", "131430.375000", "131431.575000", "131432.775000", "131433.975000", "131435.175000", "131436.375000", "131437.575000", "131438.775000", "131439.975000", "131441.175000", "131442.375000", "131443.575000", "131444.775000", "131445.975000", "131447.175000", "131448.375000", "131449.575000", "131450.775000", "131451.975000", "131453.175000", "131454.375000"],
      "ContentTime": ["130747.975000", "130747.978000", "130747.981000", "130747.983000", "130747.986000", "130747.989000", "130747.991000", "130747.994000", "130747.997000", "130748.000000", "130748.003000", "130748.012000", "130748.015000", "130748.018000", "130748.020000", "130748.023000", "130748.025000", "130748.028000", "130748.030000", "130748.033000", "130748.035000", "130748.038000", "130748.040000", "130748.043000", "130748.045000", "130748.048000", "130748.051000", "130748.053000", "130748.056000", "130748.058000", "130748.061000", "130748.063000", "130748.066000", "130748.068000", "130748.071000", "130827.971000", "130827.974000", "130827.977000", "130827.979000", "130827.982000", "130827.984000", "130827.987000", "130827.990000", "130827.992000", "130827.995000", "130827.997000", "130828.000000", "130828.002000", "130828.005000", "130828.007000", "130828.010000", "130828.025000", "130828.027000", "130828.030000", "130828.033000", "130828.035000", "130828.038000", "130828.040000", "130828.043000", "130828.045000", "130828.048000", "130828.050000", "130828.053000", "130828.055000", "130828.058000", "130828.061000", "130828.063000", "130828.066000", "130907.972000", "130907.974000", "130907.977000", "130907.979000", "130907.983000", "130907.985000", "130907.988000", "130907.990000", "130907.993000", "130907.996000", "130908.002000", "130908.005000", "130908.008000", "130908.011000", "130908.014000", "130908.017000", "130908.019000", "130908.022000", "130908.025000", "130908.027000", "130908.030000", "130908.033000", "130908.035000", "130908.038000", "130908.040000", "130908.043000", "130908.046000", "130908.048000", "130908.051000", "130908.053000", "130908.056000", "130908.059000", "130908.061000", "130947.970000", "130947.973000", "130947.976000", "130947.979000", "130947.981000", "130947.984000", "130947.986000", "130947.989000", "130947.991000", "130947.994000", "130947.996000", "130948.000000", "130948.003000", "130948.005000", "130948.008000", "130948.010000", "130948.013000", "130948.016000", "130948.018000", "130948.021000", "130948.023000", "130948.026000", "130948.029000", "130948.031000", "130948.034000", "130948.036000", "130948.039000", "130948.041000", "130948.044000", "130948.047000", "130948.049000", "130948.052000", "130948.054000", "130948.057000", "131027.971000", "131027.973000", "131027.976000", "131027.979000", "131027.981000", "131027.984000", "131027.986000", "131027.989000", "131027.992000", "131027.994000", "131027.997000", "131028.000000", "131028.003000", "131028.006000", "131028.008000", "131028.011000", "131028.013000", "131028.016000", "131028.018000", "131028.022000", "131028.025000", "131028.027000", "131028.030000", "131028.033000", "131028.035000", "131028.038000", "131028.040000", "131028.043000", "131028.046000", "131028.048000", "131028.051000", "131028.053000", "131028.056000", "131107.971000", "131107.975000", "131107.977000", "131107.980000", "131107.982000", "131107.985000", "131107.988000", "131107.990000", "131107.993000", "131107.995000", "131107.998000", "131108.002000", "131108.005000", "131108.008000", "131108.011000", "131108.031000", "131108.034000", "131108.036000", "131108.039000", "131108.042000", "131108.044000", "131108.047000", "131108.049000", "131108.052000", "131108.055000", "131108.057000", "131108.060000", "131108.062000", "131108.065000", "131108.067000", "131108.070000", "131108.073000", "131108.075000", "131147.972000", "131147.974000", "131147.977000", "131147.980000", "131147.982000", "131147.985000", "131147.988000", "131147.990000", "131147.993000", "131147.996000", "131147.998000", "131148.002000", "131148.004000", "131148.007000", "131148.010000", "131148.012000", "131148.015000", "131148.017000", "131148.020000", "131148.023000", "131148.025000", "131148.028000", "131148.030000", "131148.033000", "131148.035000", "131148.038000", "131148.040000", "131148.043000", "131148.045000", "131148.048000", "131148.051000", "131148.053000", "131148.056000", "131148.058000", "131227.970000", "131227.973000", "131227.976000", "131227.979000", "131227.981000", "131227.989000", "131227.991000", "131227.994000", "131227.997000", "131228.000000", "131228.003000", "131228.005000", "131228.008000", "131228.010000", "131228.013000", "131228.016000", "131228.018000", "131228.022000", "131228.025000", "131228.027000", "131228.030000", "131228.032000", "131228.035000", "131228.038000", "131228.040000", "131228.043000", "131228.045000", "131228.048000", "131228.051000", "131228.053000", "131228.056000", "131228.058000", "131228.061000", "131307.972000", "131307.974000", "131307.977000", "131307.979000", "131307.982000", "131307.985000", "131307.987000", "131307.990000", "131307.993000", "131307.996000", "131307.998000", "131308.001000", "131308.004000", "131308.007000", "131308.009000", "131308.012000", "131308.015000", "131308.018000", "131308.020000", "131308.023000", "131308.026000", "131308.028000", "131308.031000", "131308.034000", "131308.036000", "131308.039000", "131308.041000", "131308.044000", "131308.046000", "131308.049000", "131308.052000", "131308.054000", "131308.057000", "131347.972000", "131347.975000", "131347.977000", "131347.980000", "131347.982000", "131347.985000", "131347.988000", "131347.990000", "131347.993000", "131347.995000", "131347.998000", "131348.002000", "131348.004000", "131348.007000", "131348.009000", "131348.012000", "131348.015000", "131348.017000", "131348.020000", "131348.022000", "131348.025000", "131348.028000", "131348.030000", "131348.033000", "131348.035000", "131348.038000", "131348.041000", "131348.043000", "131348.046000", "131348.048000", "131348.051000", "131348.053000", "131348.056000", "131348.058000", "131427.971000", "131427.973000", "131427.976000", "131427.979000", "131427.981000", "131427.984000", "131427.987000", "131427.989000", "131427.992000", "131427.994000", "131427.997000", "131428.001000", "131428.003000", "131428.006000", "131428.008000", "131428.011000", "131428.013000", "131428.016000", "131428.019000", "131428.023000", "131428.025000", "131428.028000", "131428.030000", "131428.033000", "131428.035000", "131428.038000", "131428.041000", "131428.043000", "131428.046000", "131428.048000", "131428.051000", "131428.053000", "131428.072000", "131456.069000", "131456.072000", "131456.075000", "131456.077000", "131456.080000", "131456.082000", "131456.085000", "131456.088000", "131456.090000", "131456.093000", "131456.096000", "131456.098000", "131456.101000", "131456.103000", "131456.106000", "131456.109000", "131456.116000", "131456.118000", "131456.121000", "131456.124000", "131456.126000", "131456.129000", "131456.131000", "131456.134000"],
      "InstanceCreationTime": ["130747.975000", "130747.978000", "130747.981000", "130747.983000", "130747.986000", "130747.989000", "130747.991000", "130747.994000", "130747.997000", "130748.000000", "130748.003000", "130748.012000", "130748.015000", "130748.018000", "130748.020000", "130748.023000", "130748.025000", "130748.028000", "130748.030000", "130748.033000", "130748.035000", "130748.038000", "130748.040000", "130748.043000", "130748.045000", "130748.048000", "130748.051000", "130748.053000", "130748.056000", "130748.058000", "130748.061000", "130748.063000", "130748.066000", "130748.068000", "130748.071000", "130827.971000", "130827.974000", "130827.977000", "130827.979000", "130827.982000", "130827.984000", "130827.987000", "130827.990000", "130827.992000", "130827.995000", "130827.997000", "130828.000000", "130828.002000", "130828.005000", "130828.007000", "130828.010000", "130828.025000", "130828.027000", "130828.030000", "130828.033000", "130828.035000", "130828.038000", "130828.040000", "130828.043000", "130828.045000", "130828.048000", "130828.050000", "130828.053000", "130828.055000", "130828.058000", "130828.061000", "130828.063000", "130828.066000", "130907.972000", "130907.974000", "130907.977000", "130907.979000", "130907.983000", "130907.985000", "130907.988000", "130907.990000", "130907.993000", "130907.996000", "130908.002000", "130908.005000", "130908.008000", "130908.011000", "130908.014000", "130908.017000", "130908.019000", "130908.022000", "130908.025000", "130908.027000", "130908.030000", "130908.033000", "130908.035000", "130908.038000", "130908.040000", "130908.043000", "130908.046000", "130908.048000", "130908.051000", "130908.053000", "130908.056000", "130908.059000", "130908.061000", "130947.970000", "130947.973000", "130947.976000", "130947.979000", "130947.981000", "130947.984000", "130947.986000", "130947.989000", "130947.991000", "130947.994000", "130947.996000", "130948.000000", "130948.003000", "130948.005000", "130948.008000", "130948.010000", "130948.013000", "130948.016000", "130948.018000", "130948.021000", "130948.023000", "130948.026000", "130948.029000", "130948.031000", "130948.034000", "130948.036000", "130948.039000", "130948.041000", "130948.044000", "130948.047000", "130948.049000", "130948.052000", "130948.054000", "130948.057000", "131027.971000", "131027.973000", "131027.976000", "131027.979000", "131027.981000", "131027.984000", "131027.986000", "131027.989000", "131027.992000", "131027.994000", "131027.997000", "131028.000000", "131028.003000", "131028.006000", "131028.008000", "131028.011000", "131028.013000", "131028.016000", "131028.018000", "131028.022000", "131028.025000", "131028.027000", "131028.030000", "131028.033000", "131028.035000", "131028.038000", "131028.040000", "131028.043000", "131028.046000", "131028.048000", "131028.051000", "131028.053000", "131028.056000", "131107.971000", "131107.975000", "131107.977000", "131107.980000", "131107.982000", "131107.985000", "131107.988000", "131107.990000", "131107.993000", "131107.995000", "131107.998000", "131108.002000", "131108.005000", "131108.008000", "131108.011000", "131108.031000", "131108.034000", "131108.036000", "131108.039000", "131108.042000", "131108.044000", "131108.047000", "131108.049000", "131108.052000", "131108.055000", "131108.057000", "131108.060000", "131108.062000", "131108.065000", "131108.067000", "131108.070000", "131108.073000", "131108.075000", "131147.972000", "131147.974000", "131147.977000", "131147.980000", "131147.982000", "131147.985000", "131147.988000", "131147.990000", "131147.993000", "131147.996000", "131147.998000", "131148.002000", "131148.004000", "131148.007000", "131148.010000", "131148.012000", "131148.015000", "131148.017000", "131148.020000", "131148.023000", "131148.025000", "131148.028000", "131148.030000", "131148.033000", "131148.035000", "131148.038000", "131148.040000", "131148.043000", "131148.045000", "131148.048000", "131148.051000", "131148.053000", "131148.056000", "131148.058000", "131227.970000", "131227.973000", "131227.976000", "131227.979000", "131227.981000", "131227.989000", "131227.991000", "131227.994000", "131227.997000", "131228.000000", "131228.003000", "131228.005000", "131228.008000", "131228.010000", "131228.013000", "131228.016000", "131228.018000", "131228.022000", "131228.025000", "131228.027000", "131228.030000", "131228.032000", "131228.035000", "131228.038000", "131228.040000", "131228.043000", "131228.045000", "131228.048000", "131228.051000", "131228.053000", "131228.056000", "131228.058000", "131228.061000", "131307.972000", "131307.974000", "131307.977000", "131307.979000", "131307.982000", "131307.985000", "131307.987000", "131307.990000", "131307.993000", "131307.996000", "131307.998000", "131308.001000", "131308.004000", "131308.007000", "131308.009000", "131308.012000", "131308.015000", "131308.018000", "131308.020000", "131308.023000", "131308.026000", "131308.028000", "131308.031000", "131308.034000", "131308.036000", "131308.039000", "131308.041000", "131308.044000", "131308.046000", "131308.049000", "131308.052000", "131308.054000", "131308.057000", "131347.972000", "131347.975000", "131347.977000", "131347.980000", "131347.982000", "131347.985000", "131347.988000", "131347.990000", "131347.993000", "131347.995000", "131347.998000", "131348.002000", "131348.004000", "131348.007000", "131348.009000", "131348.012000", "131348.015000", "131348.017000", "131348.020000", "131348.022000", "131348.025000", "131348.028000", "131348.030000", "131348.033000", "131348.035000", "131348.038000", "131348.041000", "131348.043000", "131348.046000", "131348.048000", "131348.051000", "131348.053000", "131348.056000", "131348.058000", "131427.971000", "131427.973000", "131427.976000", "131427.979000", "131427.981000", "131427.984000", "131427.987000", "131427.989000", "131427.992000", "131427.994000", "131427.997000", "131428.001000", "131428.003000", "131428.006000", "131428.008000", "131428.011000", "131428.013000", "131428.016000", "131428.019000", "131428.023000", "131428.025000", "131428.028000", "131428.030000", "131428.033000", "131428.035000", "131428.038000", "131428.041000", "131428.043000", "131428.046000", "131428.048000", "131428.051000", "131428.053000", "131428.072000", "131456.069000", "131456.072000", "131456.075000", "131456.077000", "131456.080000", "131456.082000", "131456.085000", "131456.088000", "131456.090000", "131456.093000", "131456.096000", "131456.098000", "131456.101000", "131456.103000", "131456.106000", "131456.109000", "131456.116000", "131456.118000", "131456.121000", "131456.124000", "131456.126000", "131456.129000", "131456.131000", "131456.134000"],
      "InstanceNumber": [1, 2, 3, 4, 5, 6, 7, 8, 9, 10, 11, 12, 13, 14, 15, 16, 17, 18, 19, 20, 21, 22, 23, 24, 25, 26, 27, 28, 29, 30, 31, 32, 33, 34, 35, 36, 37, 38, 39, 40, 41, 42, 43, 44, 45, 46, 47, 48, 49, 50, 51, 52, 53, 54, 55, 56, 57, 58, 59, 60, 61, 62, 63, 64, 65, 66, 67, 68, 69, 70, 71, 72, 73, 74, 75, 76, 77, 78, 79, 80, 81, 82, 83, 84, 85, 86, 87, 88, 89, 90, 91, 92, 93, 94, 95, 96, 97, 98, 99, 100, 101, 102, 103, 104, 105, 106, 107, 108, 109, 110, 111, 112, 113, 114, 115, 116, 117, 118, 119, 120, 121, 122, 123, 124, 125, 126, 127, 128, 129, 130, 131, 132, 133, 134, 135, 136, 137, 138, 139, 140, 141, 142, 143, 144, 145, 146, 147, 148, 149, 150, 151, 152, 153, 154, 155, 156, 157, 158, 159, 160, 161, 162, 163, 164, 165, 166, 167, 168, 169, 170, 171, 172, 173, 174, 175, 176, 177, 178, 179, 180, 181, 182, 183, 184, 185, 186, 187, 188, 189, 190, 191, 192, 193, 194, 195, 196, 197, 198, 199, 200, 201, 202, 203, 204, 205, 206, 207, 208, 209, 210, 211, 212, 213, 214, 215, 216, 217, 218, 219, 220, 221, 222, 223, 224, 225, 226, 227, 228, 229, 230, 231, 232, 233, 234, 235, 236, 237, 238, 239, 240, 241, 242, 243, 244, 245, 246, 247, 248, 249, 250, 251, 252, 253, 254, 255, 256, 257, 258, 259, 260, 261, 262, 263, 264, 265, 266, 267, 268, 269, 270, 271, 272, 273, 274, 275, 276, 277, 278, 279, 280, 281, 282, 283, 284, 285, 286, 287, 288, 289, 290, 291, 292, 293, 294, 295, 296, 297, 298, 299, 300, 301, 302, 303, 304, 305, 306, 307, 308, 309, 310, 311, 312, 313, 314, 315, 316, 317, 318, 319, 320, 321, 322, 323, 324, 325, 326, 327, 328, 329, 330, 331, 332, 333, 334, 335, 336, 337, 338, 339, 340, 341, 342, 343, 344, 345, 346, 347, 348, 349, 350, 351, 352, 353, 354, 355, 356, 357, 358, 359, 360, 361, 362, 363, 364, 365, 366, 367, 368, 369, 370, 371, 372, 373, 374, 375, 376, 377, 378, 379, 380, 381, 382, 383, 384, 385, 386, 387, 388, 389, 390, 391, 392],
