{
  "AcquisitionMatrixPE": 88,
  "AcquisitionNumber": 1,
  "AcquisitionTime": "13:40:26.242500",
  "BandwidthPerPixelPhaseEncode": 19.592,
  "BaseResolution": 88,
  "BodyPartExamined": "BRAIN",
  "ConsistencyInfo": "N4_VE11C_LATEST_20160120",
  "ConversionSoftware": "dcm2niix",
  "ConversionSoftwareVersion": "v1.0.20190902",
  "DerivedVendorReportedEchoSpacing": 0.000580014,
  "DeviceSerialNumber": "67050",
  "DwellTime": 2.6e-06,
  "EchoTime": 0.033,
  "EchoTrainLength": 88,
  "EffectiveEchoSpacing": 0.000580014,
  "FlipAngle": 62,
  "ImageOrientationPatientDICOM": [0.992185, 0.116564, 0.0445073, -0.104633, 0.971625, -0.212124],
  "ImageType": [
    "ORIGINAL",
    "PRIMARY",
    "M",
    "ND",
    "MOSAIC"
],
  "ImagingFrequency": 123.251,
  "InPlanePhaseEncodingDirectionDICOM": "COL",
  "InstitutionAddress": "Olive_Street_60_Providence_RI_US_02912",
  "InstitutionName": "BROWN_UNIVERSITY_MRF",
  "InstitutionalDepartmentName": "Department",
  "MRAcquisitionType": "2D",
  "MagneticFieldStrength": 3,
  "Manufacturer": "Siemens",
  "ManufacturersModelName": "Prisma_fit",
  "Modality": "MR",
  "MultibandAccelerationFactor": 4,
  "PartialFourier": 1,
  "PatientPosition": "HFS",
  "PercentPhaseFOV": 100,
  "PhaseEncodingDirection": "j-",
  "PhaseEncodingSteps": 88,
  "PhaseResolution": 1,
  "PixelBandwidth": 2185,
  "ProcedureStepDescription": "ASHENHAV_1222",
  "ProtocolName": "func-bold_task-RDMmotion_run-05",
  "PulseSequenceDetails": "%SiemensSeq%_ep2d_bold",
  "ReceiveCoilActiveElements": "HC1-7;NC1",
  "ReceiveCoilName": "HeadNeck_64",
  "ReconMatrixPE": 88,
  "RefLinesPE": 8,
  "RepetitionTime": 1.2,
  "SAR": 0.0437109,
  "ScanOptions": "FS",
  "ScanningSequence": "EP",
  "SequenceName": "_epfid2d1_88",
  "SequenceVariant": "SK",
  "SeriesDescription": "func-bold_task-RDMmotion_run-05",
  "SeriesNumber": 15,
  "ShimSetting": [1753, -9105, 4379, 399, -75, -372, -126, -1],
  "SliceThickness": 2.4,
  "SliceTiming": [0.55, 0, 0.63, 0.0775, 0.7075, 0.1575, 0.7875, 0.235, 0.865, 0.315, 0.945, 0.3925, 1.0225, 0.4725, 1.1025, 0.55, 0, 0.63, 0.0775, 0.7075, 0.1575, 0.7875, 0.235, 0.865, 0.315, 0.945, 0.3925, 1.0225, 0.4725, 1.1025, 0.55, 0, 0.63, 0.0775, 0.7075, 0.1575, 0.7875, 0.235, 0.865, 0.315, 0.945, 0.3925, 1.0225, 0.4725, 1.1025, 0.55, 0, 0.63, 0.0775, 0.7075, 0.1575, 0.7875, 0.235, 0.865, 0.315, 0.945, 0.3925, 1.0225, 0.4725, 1.1025],
  "SoftwareVersions": "syngo_MR_E11",
  "SpacingBetweenSlices": 2.4,
  "StationName": "AWP67050",
  "TaskName": "RDMmotion",
  "TotalReadoutTime": 0.0504612,
  "TxRefAmp": 218.152,
  "dcmmeta_affine": [
    [-2.3789901733398438, -0.25088149309158325, 0.16312886774539948, 113.1288833618164],
    [-0.2794884443283081, 2.3296921253204346, -0.4939415156841278, -67.01716613769531],
    [0.10671635717153549, 0.5086144208908081, 2.342949151992798, -94.04196166992188],
    [0.0, 0.0, 0.0, 1.0]
],
  "dcmmeta_reorient_transform": [
    [0.0, -1.0, 0.0, 87.0],
    [1.0, 0.0, 0.0, 0.0],
    [0.0, 0.0, 1.0, 0.0],
    [0.0, 0.0, 0.0, 1.0]
],
  "dcmmeta_shape": [88, 88, 60, 125],
  "dcmmeta_slice_dim": 2,
  "dcmmeta_version": 0.6,
  "global": {
    "const": {
      "AcquisitionMatrix": [88, 0, 0, 88],
      "AngioFlag": "N",
      "BitsAllocated": 16,
      "BitsStored": 12,
      "BodyPartExamined": "BRAIN",
      "Columns": 704,
      "DeidentificationMethodCodeSequence": [
        {
          "CodeMeaning": "XNAT DicomEdit 6 Script",
          "CodeValue": "3",
          "CodingSchemeDesignator": "XNAT",
          "CodingSchemeVersion": "1.0"}
],
      "EchoNumbers": 1,
      "EchoTime": 33.0,
      "EchoTrainLength": 88,
      "FlipAngle": 62.0,
      "HighBit": 11,
      "ImageOrientationPatient": [0.99218544443487, 0.1165639069301, 0.04450729662394, -0.104633044433, 0.97162519899935, -0.2121235457986],
      "ImagePositionPatient": [-746.75963101767, -939.29370724017, 73.992092211587],
      "ImageType": [
        "ORIGINAL",
        "PRIMARY",
        "M",
        "ND",
        "MOSAIC"
],
      "ImagedNucleus": "1H",
      "ImagingFrequency": 123.250611,
      "InPlanePhaseEncodingDirection": "COL",
      "MRAcquisitionType": "2D",
      "MagneticFieldStrength": 3.0,
      "Manufacturer": "SIEMENS",
      "ManufacturerModelName": "Prisma_fit",
      "Modality": "MR",
      "NumberOfAverages": 1.0,
      "NumberOfPhaseEncodingSteps": 88,
      "PercentPhaseFieldOfView": 100.0,
      "PercentSampling": 100.0,
      "PerformedProcedureStepStartTime": "121325.150000",
      "PhotometricInterpretation": "MONOCHROME2",
      "PixelBandwidth": 2185.0,
      "PixelRepresentation": 0,
      "PixelSpacing": [2.3977272510529, 2.3977272510529],
      "ProtocolName": "func-bold_task-RDMmotion_run-05",
      "RepetitionTime": 1200.0,
      "Rows": 704,
      "SAR": 0.04371088419442,
      "SamplesPerPixel": 1,
      "ScanOptions": "FS",
      "ScanningSequence": "EP",
      "SequenceName": "*epfid2d1_88",
      "SequenceVariant": "SK",
      "SeriesDescription": "func-bold_task-RDMmotion_run-05",
      "SeriesNumber": 15,
      "SeriesTime": "134105.793000",
      "SliceLocation": -70.32432790832,
      "SliceThickness": 2.4000000953674,
      "SmallestImagePixelValue": 0,
      "SoftwareVersions": "syngo MR E11",
      "SpacingBetweenSlices": 2.400000012327,
      "SpecificCharacterSet": "ISO_IR 100",
      "StudyID": "1",
      "StudyTime": "121325.008000",
      "TransmitCoilName": "Body",
      "VariableFlipAngleFlag": "N",
      "WindowCenterWidthExplanation": "Algo1",
      "dBdt": 0.0},
    "slices": {}
  },
  "time": {
    "samples": {
      "AcquisitionNumber": [1, 2, 3, 4, 5, 6, 7, 8, 9, 10, 11, 12, 13, 14, 15, 16, 17, 18, 19, 20, 21, 22, 23, 24, 25, 26, 27, 28, 29, 30, 31, 32, 33, 34, 35, 36, 37, 38, 39, 40, 41, 42, 43, 44, 45, 46, 47, 48, 49, 50, 51, 52, 53, 54, 55, 56, 57, 58, 59, 60, 61, 62, 63, 64, 65, 66, 67, 68, 69, 70, 71, 72, 73, 74, 75, 76, 77, 78, 79, 80, 81, 82, 83, 84, 85, 86, 87, 88, 89, 90, 91, 92, 93, 94, 95, 96, 97, 98, 99, 100, 101, 102, 103, 104, 105, 106, 107, 108, 109, 110, 111, 112, 113, 114, 115, 116, 117, 118, 119, 120, 121, 122, 123, 124, 125],
      "AcquisitionTime": ["134026.242500", "134027.442500", "134028.642500", "134029.842500", "134031.042500", "134032.242500", "134033.442500", "134034.642500", "134035.842500", "134037.042500", "134038.242500", "134039.442500", "134040.642500", "134041.842500", "134043.042500", "134044.242500", "134045.442500", "134046.642500", "134047.842500", "134049.042500", "134050.242500", "134051.442500", "134052.642500", "134053.842500", "134055.042500", "134056.242500", "134057.442500", "134058.642500", "134059.842500", "134101.042500", "134102.242500", "134103.442500", "134104.642500", "134105.842500", "134107.042500", "134108.242500", "134109.442500", "134110.642500", "134111.842500", "134113.042500", "134114.242500", "134115.442500", "134116.642500", "134117.842500", "134119.042500", "134120.242500", "134121.442500", "134122.642500", "134123.842500", "134125.042500", "134126.242500", "134127.442500", "134128.642500", "134129.842500", "134131.042500", "134132.242500", "134133.442500", "134134.642500", "134135.842500", "134137.042500", "134138.242500", "134139.442500", "134140.642500", "134141.842500", "134143.042500", "134144.242500", "134145.442500", "134146.642500", "134147.842500", "134149.042500", "134150.242500", "134151.442500", "134152.642500", "134153.842500", "134155.042500", "134156.242500", "134157.442500", "134158.642500", "134159.842500", "134201.042500", "134202.242500", "134203.442500", "134204.642500", "134205.842500", "134207.042500", "134208.242500", "134209.442500", "134210.642500", "134211.842500", "134213.042500", "134214.242500", "134215.442500", "134216.642500", "134217.842500", "134219.042500", "134220.242500", "134221.442500", "134222.642500", "134223.842500", "134225.042500", "134226.242500", "134227.442500", "134228.642500", "134229.842500", "134231.042500", "134232.242500", "134233.442500", "134234.642500", "134235.842500", "134237.042500", "134238.242500", "134239.442500", "134240.642500", "134241.842500", "134243.042500", "134244.242500", "134245.442500", "134246.642500", "134247.842500", "134249.042500", "134250.242500", "134251.442500", "134252.642500", "134253.842500", "134255.042500"],
      "ContentTime": ["134105.797000", "134105.800000", "134105.803000", "134105.805000", "134105.808000", "134105.810000", "134105.813000", "134105.816000", "134105.818000", "134105.821000", "134105.823000", "134105.826000", "134105.829000", "134105.851000", "134105.854000", "134105.856000", "134105.859000", "134105.861000", "134105.864000", "134105.867000", "134105.869000", "134105.872000", "134105.874000", "134105.877000", "134105.880000", "134105.882000", "134105.885000", "134105.893000", "134105.895000", "134105.898000", "134105.901000", "134105.903000", "134145.792000", "134145.794000", "134145.797000", "134145.800000", "134145.812000", "134145.815000", "134145.818000", "134145.820000", "134145.823000", "134145.825000", "134145.829000", "134145.832000", "134145.834000", "134145.837000", "134145.839000", "134145.842000", "134145.845000", "134145.847000", "134145.850000", "134145.852000", "134145.855000", "134145.858000", "134145.860000", "134145.863000", "134145.865000", "134145.868000", "134145.871000", "134145.873000", "134145.876000", "134145.878000", "134145.881000", "134145.883000", "134145.886000", "134225.791000", "134225.795000", "134225.797000", "134225.800000", "134225.802000", "134225.805000", "134225.807000", "134225.810000", "134225.812000", "134225.815000", "134225.818000", "134225.821000", "134225.824000", "134225.827000", "134225.830000", "134225.833000", "134225.836000", "134225.838000", "134225.841000", "134225.844000", "134225.846000", "134225.849000", "134225.851000", "134225.854000", "134225.857000", "134225.859000", "134225.862000", "134225.865000", "134225.867000", "134225.870000", "134225.872000", "134225.875000", "134225.877000", "134257.062000", "134257.065000", "134257.068000", "134257.071000", "134257.074000", "134257.076000", "134257.084000", "134257.087000", "134257.089000", "134257.092000", "134257.095000", "134257.097000", "134257.100000", "134257.103000", "134257.106000", "134257.108000", "134257.111000", "134257.114000", "134257.117000", "134257.120000", "134257.122000", "134257.125000", "134257.127000", "134257.130000", "134257.133000", "134257.135000", "134257.138000"],
      "InstanceCreationTime": ["134105.797000", "134105.800000", "134105.803000", "134105.805000", "134105.808000", "134105.810000", "134105.813000", "134105.816000", "134105.818000", "134105.821000", "134105.823000", "134105.826000", "134105.829000", "134105.851000", "134105.854000", "134105.856000", "134105.859000", "134105.861000", "134105.864000", "134105.867000", "134105.869000", "134105.872000", "134105.874000", "134105.877000", "134105.880000", "134105.882000", "134105.885000", "134105.893000", "134105.895000", "134105.898000", "134105.901000", "134105.903000", "134145.792000", "134145.794000", "134145.797000", "134145.800000", "134145.812000", "134145.815000", "134145.818000", "134145.820000", "134145.823000", "134145.825000", "134145.829000", "134145.832000", "134145.834000", "134145.837000", "134145.839000", "134145.842000", "134145.845000", "134145.847000", "134145.850000", "134145.852000", "134145.855000", "134145.858000", "134145.860000", "134145.863000", "134145.865000", "134145.868000", "134145.871000", "134145.873000", "134145.876000", "134145.878000", "134145.881000", "134145.883000", "134145.886000", "134225.791000", "134225.795000", "134225.797000", "134225.800000", "134225.802000", "134225.805000", "134225.807000", "134225.810000", "134225.812000", "134225.815000", "134225.818000", "134225.821000", "134225.824000", "134225.827000", "134225.830000", "134225.833000", "134225.836000", "134225.838000", "134225.841000", "134225.844000", "134225.846000", "134225.849000", "134225.851000", "134225.854000", "134225.857000", "134225.859000", "134225.862000", "134225.865000", "134225.867000", "134225.870000", "134225.872000", "134225.875000", "134225.877000", "134257.062000", "134257.065000", "134257.068000", "134257.071000", "134257.074000", "134257.076000", "134257.084000", "134257.087000", "134257.089000", "134257.092000", "134257.095000", "134257.097000", "134257.100000", "134257.103000", "134257.106000", "134257.108000", "134257.111000", "134257.114000", "134257.117000", "134257.120000", "134257.122000", "134257.125000", "134257.127000", "134257.130000", "134257.133000", "134257.135000", "134257.138000"],
      "InstanceNumber": [1, 2, 3, 4, 5, 6, 7, 8, 9, 10, 11, 12, 13, 14, 15, 16, 17, 18, 19, 20, 21, 22, 23, 24, 25, 26, 27, 28, 29, 30, 31, 32, 33, 34, 35, 36, 37, 38, 39, 40, 41, 42, 43, 44, 45, 46, 47, 48, 49, 50, 51, 52, 53, 54, 55, 56, 57, 58, 59, 60, 61, 62, 63, 64, 65, 66, 67, 68, 69, 70, 71, 72, 73, 74, 75, 76, 77, 78, 79, 80, 81, 82, 83, 84, 85, 86, 87, 88, 89, 90, 91, 92, 93, 94, 95, 96, 97, 98, 99, 100, 101, 102, 103, 104, 105, 106, 107, 108, 109, 110, 111, 112, 113, 114, 115, 116, 117, 118, 119, 120, 121, 122, 123, 124, 125],
      "LargestImagePixelValue": [2085, 2011, 1989, 1966, 1938, 1934, 1937, 1945, 1929, 1929, 1938, 1938, 1936, 1948, 1932, 1916, 1943, 1921, 1920, 1934, 1925, 1926, 1939, 1940, 1952, 1938, 1950, 1939, 1943, 1951, 1944, 1951, 1950, 1948, 1985, 1998, 1959, 1967, 1963, 1948, 1947, 1967, 1973, 1972, 1972, 1992, 1992, 1984, 1984, 1978, 1959, 1967, 1970, 1976, 1963, 1934, 1937, 1945, 1926, 1936, 1925, 1917, 1928, 1942, 1926, 1944, 1923, 1943, 1935, 1945, 1953, 1945, 1934, 1915, 1920, 1917, 1909, 1936, 1910, 1930, 1951, 1975, 1972, 1963, 1922, 1920, 1949, 1942, 1930, 1938, 1960, 1945, 1971, 1942, 1969, 1926, 1938, 1939, 1914, 1929, 1934, 1920, 1912, 1903, 1900, 1906, 1914, 1896, 1889, 1911, 1909, 1911, 1910, 1890, 1904, 1904, 1888, 1894, 1907, 1901, 1887, 1900, 1895, 1898, 1895],
      "WindowCenter": [600.0, 597.0, 596.0, 596.0, 595.0, 595.0, 595.0, 595.0, 594.0, 594.0, 594.0, 593.0, 593.0, 593.0, 592.0, 592.0, 593.0, 592.0, 593.0, 593.0, 594.0, 594.0, 594.0, 593.0, 593.0, 592.0, 593.0, 592.0, 591.0, 592.0, 592.0, 592.0, 592.0, 592.0, 593.0, 593.0, 592.0, 593.0, 594.0, 593.0, 593.0, 594.0, 593.0, 593.0, 593.0, 593.0, 593.0, 593.0, 592.0, 592.0, 591.0, 592.0, 593.0, 593.0, 594.0, 593.0, 595.0, 594.0, 593.0, 592.0, 591.0, 590.0, 590.0, 591.0, 590.0, 590.0, 590.0, 591.0, 592.0, 592.0, 592.0, 591.0, 592.0, 593.0, 592.0, 591.0, 591.0, 592.0, 590.0, 589.0, 589.0, 589.0, 590.0, 590.0, 590.0, 590.0, 590.0, 591.0, 592.0, 593.0, 593.0, 592.0, 592.0, 591.0, 591.0, 591.0, 591.0, 591.0, 590.0, 591.0, 592.0, 593.0, 594.0, 595.0, 595.0, 596.0, 596.0, 595.0, 594.0, 594.0, 593.0, 592.0, 592.0, 591.0, 591.0, 591.0, 590.0, 590.0, 590.0, 591.0, 591.0, 593.0, 592.0, 592.0, 592.0],
      "WindowWidth": [1278.0, 1271.0, 1268.0, 1267.0, 1267.0, 1266.0, 1266.0, 1265.0, 1263.0, 1262.0, 1262.0, 1261.0, 1261.0, 1261.0, 1259.0, 1259.0, 1260.0, 1259.0, 1260.0, 1262.0, 1262.0, 1263.0, 1263.0, 1261.0, 1259.0, 1258.0, 1260.0, 1258.0, 1257.0, 1258.0, 1258.0, 1259.0, 1259.0, 1258.0, 1259.0, 1260.0, 1258.0, 1260.0, 1262.0, 1261.0, 1261.0, 1261.0, 1261.0, 1261.0, 1260.0, 1260.0, 1260.0, 1260.0, 1259.0, 1259.0, 1257.0, 1258.0, 1260.0, 1261.0, 1262.0, 1262.0, 1264.0, 1263.0, 1260.0, 1258.0, 1256.0, 1255.0, 1254.0, 1255.0, 1254.0, 1254.0, 1255.0, 1256.0, 1258.0, 1257.0, 1258.0, 1257.0, 1259.0, 1261.0, 1259.0, 1257.0, 1256.0, 1258.0, 1255.0, 1252.0, 1251.0, 1251.0, 1253.0, 1255.0, 1253.0, 1255.0, 1254.0, 1256.0, 1258.0, 1259.0, 1260.0, 1258.0, 1258.0, 1255.0, 1256.0, 1256.0, 1256.0, 1256.0, 1255.0, 1256.0, 1258.0, 1260.0, 1263.0, 1265.0, 1266.0, 1267.0, 1268.0, 1265.0, 1263.0, 1264.0, 1261.0, 1259.0, 1259.0, 1257.0, 1257.0, 1256.0, 1253.0, 1254.0, 1255.0, 1256.0, 1257.0, 1261.0, 1260.0, 1259.0, 1258.0]
    },
    "slices": {}
  }
}