{
  "AcquisitionMatrixPE": 88,
  "AcquisitionNumber": 1,
  "AcquisitionTime": "13:52:39.002500",
  "BandwidthPerPixelPhaseEncode": 19.592,
  "BaseResolution": 88,
  "BodyPartExamined": "BRAIN",
  "ConsistencyInfo": "N4_VE11C_LATEST_20160120",
  "ConversionSoftware": "dcm2niix",
  "ConversionSoftwareVersion": "v1.0.20190902",
  "DerivedVendorReportedEchoSpacing": 0.000580014,
  "DeviceSerialNumber": "67050",
  "DwellTime": 2.6e-06,
  "EchoTime": 0.033,
  "EchoTrainLength": 88,
  "EffectiveEchoSpacing": 0.000580014,
  "FlipAngle": 62,
  "ImageOrientationPatientDICOM": [0.992185, 0.116564, 0.0445073, -0.104633, 0.971625, -0.212124],
  "ImageType": [
    "ORIGINAL",
    "PRIMARY",
    "M",
    "ND",
    "MOSAIC"
],
  "ImagingFrequency": 123.251,
  "InPlanePhaseEncodingDirectionDICOM": "COL",
  "InstitutionAddress": "Olive_Street_60_Providence_RI_US_02912",
  "InstitutionName": "BROWN_UNIVERSITY_MRF",
  "InstitutionalDepartmentName": "Department",
  "MRAcquisitionType": "2D",
  "MagneticFieldStrength": 3,
  "Manufacturer": "Siemens",
  "ManufacturersModelName": "Prisma_fit",
  "Modality": "MR",
  "MultibandAccelerationFactor": 4,
  "PartialFourier": 1,
  "PatientPosition": "HFS",
  "PercentPhaseFOV": 100,
  "PhaseEncodingDirection": "j-",
  "PhaseEncodingSteps": 88,
  "PhaseResolution": 1,
  "PixelBandwidth": 2185,
  "ProcedureStepDescription": "ASHENHAV_1222",
  "ProtocolName": "func-bold_task-RDMmotion_run-06",
  "PulseSequenceDetails": "%SiemensSeq%_ep2d_bold",
  "ReceiveCoilActiveElements": "HC1-7;NC1",
  "ReceiveCoilName": "HeadNeck_64",
  "ReconMatrixPE": 88,
  "RefLinesPE": 8,
  "RepetitionTime": 1.2,
  "SAR": 0.0437109,
  "ScanOptions": "FS",
  "ScanningSequence": "EP",
  "SequenceName": "_epfid2d1_88",
  "SequenceVariant": "SK",
  "SeriesDescription": "func-bold_task-RDMmotion_run-06",
  "SeriesNumber": 17,
  "ShimSetting": [1753, -9105, 4379, 399, -75, -372, -126, -1],
  "SliceThickness": 2.4,
  "SliceTiming": [0.5525, 0, 0.63, 0.08, 0.7075, 0.1575, 0.7875, 0.2375, 0.865, 0.315, 0.945, 0.395, 1.0225, 0.4725, 1.1025, 0.5525, 0, 0.63, 0.08, 0.7075, 0.1575, 0.7875, 0.2375, 0.865, 0.315, 0.945, 0.395, 1.0225, 0.4725, 1.1025, 0.5525, 0, 0.63, 0.08, 0.7075, 0.1575, 0.7875, 0.2375, 0.865, 0.315, 0.945, 0.395, 1.0225, 0.4725, 1.1025, 0.5525, 0, 0.63, 0.08, 0.7075, 0.1575, 0.7875, 0.2375, 0.865, 0.315, 0.945, 0.395, 1.0225, 0.4725, 1.1025],
  "SoftwareVersions": "syngo_MR_E11",
  "SpacingBetweenSlices": 2.4,
  "StationName": "AWP67050",
  "TaskName": "RDMmotion",
  "TotalReadoutTime": 0.0504612,
  "TxRefAmp": 218.152,
  "dcmmeta_affine": [
    [-2.3789901733398438, -0.25088149309158325, 0.16312886774539948, 113.1288833618164],
    [-0.2794884443283081, 2.3296921253204346, -0.4939415156841278, -67.01716613769531],
    [0.10671635717153549, 0.5086144208908081, 2.342949151992798, -94.04196166992188],
    [0.0, 0.0, 0.0, 1.0]
],
  "dcmmeta_reorient_transform": [
    [0.0, -1.0, 0.0, 87.0],
    [1.0, 0.0, 0.0, 0.0],
    [0.0, 0.0, 1.0, 0.0],
    [0.0, 0.0, 0.0, 1.0]
],
  "dcmmeta_shape": [88, 88, 60, 125],
  "dcmmeta_slice_dim": 2,
  "dcmmeta_version": 0.6,
  "global": {
    "const": {
      "AcquisitionMatrix": [88, 0, 0, 88],
      "AngioFlag": "N",
      "BitsAllocated": 16,
      "BitsStored": 12,
      "BodyPartExamined": "BRAIN",
      "Columns": 704,
      "DeidentificationMethodCodeSequence": [
        {
          "CodeMeaning": "XNAT DicomEdit 6 Script",
          "CodeValue": "3",
          "CodingSchemeDesignator": "XNAT",
          "CodingSchemeVersion": "1.0"}
],
      "EchoNumbers": 1,
      "EchoTime": 33.0,
      "EchoTrainLength": 88,
      "FlipAngle": 62.0,
      "HighBit": 11,
      "ImageOrientationPatient": [0.99218544443487, 0.1165639069301, 0.04450729662394, -0.104633044433, 0.97162519899935, -0.2121235457986],
      "ImagePositionPatient": [-746.75963101767, -939.29370724017, 73.992092211587],
      "ImageType": [
        "ORIGINAL",
        "PRIMARY",
        "M",
        "ND",
        "MOSAIC"
],
      "ImagedNucleus": "1H",
      "ImagingFrequency": 123.250616,
      "InPlanePhaseEncodingDirection": "COL",
      "MRAcquisitionType": "2D",
      "MagneticFieldStrength": 3.0,
      "Manufacturer": "SIEMENS",
      "ManufacturerModelName": "Prisma_fit",
      "Modality": "MR",
      "NumberOfAverages": 1.0,
      "NumberOfPhaseEncodingSteps": 88,
      "PercentPhaseFieldOfView": 100.0,
      "PercentSampling": 100.0,
      "PerformedProcedureStepStartTime": "121325.150000",
      "PhotometricInterpretation": "MONOCHROME2",
      "PixelBandwidth": 2185.0,
      "PixelRepresentation": 0,
      "PixelSpacing": [2.3977272510529, 2.3977272510529],
      "ProtocolName": "func-bold_task-RDMmotion_run-06",
      "RepetitionTime": 1200.0,
      "Rows": 704,
      "SAR": 0.04371088419442,
      "SamplesPerPixel": 1,
      "ScanOptions": "FS",
      "ScanningSequence": "EP",
      "SequenceName": "*epfid2d1_88",
      "SequenceVariant": "SK",
      "SeriesDescription": "func-bold_task-RDMmotion_run-06",
      "SeriesNumber": 17,
      "SeriesTime": "135321.138000",
      "SliceLocation": -70.32432790832,
      "SliceThickness": 2.4000000953674,
      "SmallestImagePixelValue": 0,
      "SoftwareVersions": "syngo MR E11",
      "SpacingBetweenSlices": 2.400000012327,
      "SpecificCharacterSet": "ISO_IR 100",
      "StudyID": "1",
      "StudyTime": "121325.008000",
      "TransmitCoilName": "Body",
      "VariableFlipAngleFlag": "N",
      "WindowCenterWidthExplanation": "Algo1",
      "dBdt": 0.0},
    "slices": {}
  },
  "time": {
    "samples": {
      "AcquisitionNumber": [1, 2, 3, 4, 5, 6, 7, 8, 9, 10, 11, 12, 13, 14, 15, 16, 17, 18, 19, 20, 21, 22, 23, 24, 25, 26, 27, 28, 29, 30, 31, 32, 33, 34, 35, 36, 37, 38, 39, 40, 41, 42, 43, 44, 45, 46, 47, 48, 49, 50, 51, 52, 53, 54, 55, 56, 57, 58, 59, 60, 61, 62, 63, 64, 65, 66, 67, 68, 69, 70, 71, 72, 73, 74, 75, 76, 77, 78, 79, 80, 81, 82, 83, 84, 85, 86, 87, 88, 89, 90, 91, 92, 93, 94, 95, 96, 97, 98, 99, 100, 101, 102, 103, 104, 105, 106, 107, 108, 109, 110, 111, 112, 113, 114, 115, 116, 117, 118, 119, 120, 121, 122, 123, 124, 125],
      "AcquisitionTime": ["135239.002500", "135240.202500", "135241.402500", "135242.602500", "135243.802500", "135245.002500", "135246.202500", "135247.402500", "135248.602500", "135249.802500", "135251.002500", "135252.202500", "135253.402500", "135254.602500", "135255.802500", "135257.002500", "135258.202500", "135259.402500", "135300.602500", "135301.802500", "135303.002500", "135304.202500", "135305.402500", "135306.602500", "135307.802500", "135309.002500", "135310.202500", "135311.402500", "135312.602500", "135313.802500", "135315.002500", "135316.202500", "135317.402500", "135318.602500", "135319.802500", "135321.002500", "135322.202500", "135323.402500", "135324.602500", "135325.802500", "135327.002500", "135328.202500", "135329.402500", "135330.602500", "135331.802500", "135333.002500", "135334.202500", "135335.402500", "135336.602500", "135337.802500", "135339.002500", "135340.202500", "135341.402500", "135342.602500", "135343.802500", "135345.002500", "135346.202500", "135347.402500", "135348.602500", "135349.802500", "135351.002500", "135352.202500", "135353.402500", "135354.602500", "135355.802500", "135357.002500", "135358.202500", "135359.402500", "135400.602500", "135401.802500", "135403.002500", "135404.202500", "135405.402500", "135406.602500", "135407.802500", "135409.002500", "135410.202500", "135411.402500", "135412.602500", "135413.802500", "135415.002500", "135416.202500", "135417.402500", "135418.602500", "135419.802500", "135421.002500", "135422.202500", "135423.402500", "135424.602500", "135425.802500", "135427.002500", "135428.202500", "135429.402500", "135430.602500", "135431.802500", "135433.002500", "135434.202500", "135435.402500", "135436.602500", "135437.802500", "135439.002500", "135440.202500", "135441.402500", "135442.602500", "135443.802500", "135445.002500", "135446.202500", "135447.402500", "135448.602500", "135449.802500", "135451.002500", "135452.202500", "135453.402500", "135454.602500", "135455.802500", "135457.002500", "135458.202500", "135459.402500", "135500.602500", "135501.802500", "135503.002500", "135504.202500", "135505.402500", "135506.602500", "135507.802500"],
      "ContentTime": ["135321.142000", "135321.145000", "135321.148000", "135321.150000", "135321.153000", "135321.155000", "135321.158000", "135321.160000", "135321.163000", "135321.166000", "135321.168000", "135321.171000", "135321.173000", "135321.176000", "135321.178000", "135321.181000", "135321.183000", "135321.186000", "135321.188000", "135321.191000", "135321.194000", "135321.196000", "135321.199000", "135321.207000", "135321.210000", "135321.212000", "135321.215000", "135321.217000", "135321.220000", "135321.222000", "135321.225000", "135321.228000", "135321.230000", "135321.233000", "135401.137000", "135401.140000", "135401.143000", "135401.146000", "135401.148000", "135401.151000", "135401.153000", "135401.160000", "135401.163000", "135401.166000", "135401.168000", "135401.170000", "135401.173000", "135401.176000", "135401.178000", "135401.181000", "135401.183000", "135401.186000", "135401.208000", "135401.211000", "135401.213000", "135401.220000", "135401.223000", "135401.225000", "135401.236000", "135401.239000", "135401.241000", "135401.244000", "135401.246000", "135401.249000", "135401.254000", "135401.257000", "135401.259000", "135401.262000", "135441.138000", "135441.141000", "135441.143000", "135441.146000", "135441.148000", "135441.151000", "135441.154000", "135441.156000", "135441.159000", "135441.161000", "135441.164000", "135441.166000", "135441.169000", "135441.172000", "135441.174000", "135441.177000", "135441.179000", "135441.182000", "135441.184000", "135441.187000", "135441.200000", "135441.203000", "135441.206000", "135441.208000", "135441.211000", "135441.214000", "135441.216000", "135441.219000", "135441.221000", "135441.224000", "135441.227000", "135441.229000", "135441.232000", "135509.393000", "135509.396000", "135509.399000", "135509.401000", "135509.404000", "135509.406000", "135509.409000", "135509.412000", "135509.414000", "135509.417000", "135509.419000", "135509.422000", "135509.425000", "135509.427000", "135509.430000", "135509.432000", "135509.435000", "135509.438000", "135509.440000", "135509.443000", "135509.445000", "135509.448000", "135509.451000", "135509.453000"],
      "InstanceCreationTime": ["135321.142000", "135321.145000", "135321.148000", "135321.150000", "135321.153000", "135321.155000", "135321.158000", "135321.160000", "135321.163000", "135321.166000", "135321.168000", "135321.171000", "135321.173000", "135321.176000", "135321.178000", "135321.181000", "135321.183000", "135321.186000", "135321.188000", "135321.191000", "135321.194000", "135321.196000", "135321.199000", "135321.207000", "135321.210000", "135321.212000", "135321.215000", "135321.217000", "135321.220000", "135321.222000", "135321.225000", "135321.228000", "135321.230000", "135321.233000", "135401.137000", "135401.140000", "135401.143000", "135401.146000", "135401.148000", "135401.151000", "135401.153000", "135401.160000", "135401.163000", "135401.166000", "135401.168000", "135401.170000", "135401.173000", "135401.176000", "135401.178000", "135401.181000", "135401.183000", "135401.186000", "135401.208000", "135401.211000", "135401.213000", "135401.220000", "135401.223000", "135401.225000", "135401.236000", "135401.239000", "135401.241000", "135401.244000", "135401.246000", "135401.249000", "135401.254000", "135401.257000", "135401.259000", "135401.262000", "135441.138000", "135441.141000", "135441.143000", "135441.146000", "135441.148000", "135441.151000", "135441.154000", "135441.156000", "135441.159000", "135441.161000", "135441.164000", "135441.166000", "135441.169000", "135441.172000", "135441.174000", "135441.177000", "135441.179000", "135441.182000", "135441.184000", "135441.187000", "135441.200000", "135441.203000", "135441.206000", "135441.208000", "135441.211000", "135441.214000", "135441.216000", "135441.219000", "135441.221000", "135441.224000", "135441.227000", "135441.229000", "135441.232000", "135509.393000", "135509.396000", "135509.399000", "135509.401000", "135509.404000", "135509.406000", "135509.409000", "135509.412000", "135509.414000", "135509.417000", "135509.419000", "135509.422000", "135509.425000", "135509.427000", "135509.430000", "135509.432000", "135509.435000", "135509.438000", "135509.440000", "135509.443000", "135509.445000", "135509.448000", "135509.451000", "135509.453000"],
      "InstanceNumber": [1, 2, 3, 4, 5, 6, 7, 8, 9, 10, 11, 12, 13, 14, 15, 16, 17, 18, 19, 20, 21, 22, 23, 24, 25, 26, 27, 28, 29, 30, 31, 32, 33, 34, 35, 36, 37, 38, 39, 40, 41, 42, 43, 44, 45, 46, 47, 48, 49, 50, 51, 52, 53, 54, 55, 56, 57, 58, 59, 60, 61, 62, 63, 64, 65, 66, 67, 68, 69, 70, 71, 72, 73, 74, 75, 76, 77, 78, 79, 80, 81, 82, 83, 84, 85, 86, 87, 88, 89, 90, 91, 92, 93, 94, 95, 96, 97, 98, 99, 100, 101, 102, 103, 104, 105, 106, 107, 108, 109, 110, 111, 112, 113, 114, 115, 116, 117, 118, 119, 120, 121, 122, 123, 124, 125],
      "LargestImagePixelValue": [2198, 2062, 2005, 1986, 1917, 1993, 1919, 1891, 1943, 1900, 1912, 1916, 1904, 1952, 1910, 1937, 1937, 1909, 1921, 1909, 1956, 1901, 1948, 1967, 1957, 1928, 1959, 1939, 1906, 1984, 1947, 1956, 1925, 2004, 1957, 1907, 1967, 1947, 1984, 1927, 1975, 1997, 1922, 1989, 1958, 1934, 2001, 1956, 2016, 2000, 1966, 1944, 2003, 1974, 1955, 1965, 1971, 2013, 1977, 1940, 1999, 1970, 2008, 1992, 1992, 1994, 2009, 1980, 1966, 1974, 2002, 2003, 1951, 2011, 1999, 1998, 1990, 1919, 1917, 1975, 1949, 1922, 1918, 1964, 1967, 1956, 1967, 1942, 1935, 1961, 1919, 1977, 1981, 1936, 1973, 1990, 1942, 1967, 2011, 1975, 1939, 2001, 1961, 1931, 1936, 1986, 1982, 1952, 1990, 1929, 1942, 1933, 1934, 1975, 1933, 1975, 1962, 1960, 1975, 1985, 1962, 1964, 1992, 1983, 1947],
      "WindowCenter": [600.0, 596.0, 594.0, 594.0, 593.0, 594.0, 592.0, 592.0, 592.0, 591.0, 591.0, 591.0, 590.0, 591.0, 591.0, 592.0, 591.0, 590.0, 591.0, 591.0, 592.0, 591.0, 591.0, 591.0, 591.0, 591.0, 592.0, 591.0, 590.0, 591.0, 590.0, 590.0, 591.0, 592.0, 592.0, 591.0, 592.0, 592.0, 592.0, 592.0, 593.0, 594.0, 593.0, 593.0, 591.0, 591.0, 592.0, 591.0, 593.0, 593.0, 592.0, 592.0, 593.0, 593.0, 593.0, 593.0, 594.0, 595.0, 594.0, 593.0, 593.0, 592.0, 593.0, 594.0, 595.0, 595.0, 594.0, 593.0, 591.0, 591.0, 591.0, 591.0, 591.0, 593.0, 595.0, 594.0, 593.0, 591.0, 590.0, 590.0, 589.0, 589.0, 589.0, 591.0, 592.0, 593.0, 593.0, 593.0, 592.0, 592.0, 592.0, 592.0, 592.0, 591.0, 592.0, 591.0, 590.0, 590.0, 591.0, 591.0, 592.0, 593.0, 592.0, 591.0, 591.0, 591.0, 591.0, 593.0, 595.0, 594.0, 594.0, 593.0, 591.0, 590.0, 590.0, 591.0, 590.0, 589.0, 589.0, 588.0, 588.0, 588.0, 588.0, 589.0, 588.0],
      "WindowWidth": [1275.0, 1267.0, 1263.0, 1262.0, 1260.0, 1261.0, 1259.0, 1257.0, 1258.0, 1256.0, 1257.0, 1257.0, 1255.0, 1257.0, 1255.0, 1257.0, 1256.0, 1254.0, 1256.0, 1256.0, 1258.0, 1256.0, 1256.0, 1256.0, 1256.0, 1256.0, 1258.0, 1257.0, 1254.0, 1254.0, 1253.0, 1254.0, 1255.0, 1258.0, 1257.0, 1257.0, 1258.0, 1257.0, 1258.0, 1258.0, 1261.0, 1262.0, 1260.0, 1259.0, 1257.0, 1255.0, 1258.0, 1257.0, 1260.0, 1260.0, 1258.0, 1258.0, 1260.0, 1260.0, 1260.0, 1260.0, 1263.0, 1265.0, 1262.0, 1260.0, 1260.0, 1259.0, 1259.0, 1262.0, 1264.0, 1264.0, 1263.0, 1261.0, 1256.0, 1255.0, 1255.0, 1255.0, 1254.0, 1259.0, 1264.0, 1263.0, 1261.0, 1255.0, 1253.0, 1253.0, 1250.0, 1251.0, 1252.0, 1256.0, 1258.0, 1260.0, 1259.0, 1260.0, 1258.0, 1258.0, 1257.0, 1258.0, 1257.0, 1255.0, 1256.0, 1256.0, 1254.0, 1254.0, 1255.0, 1256.0, 1257.0, 1259.0, 1257.0, 1255.0, 1255.0, 1255.0, 1256.0, 1259.0, 1264.0, 1262.0, 1262.0, 1260.0, 1255.0, 1254.0, 1254.0, 1255.0, 1253.0, 1251.0, 1250.0, 1249.0, 1249.0, 1248.0, 1249.0, 1250.0, 1248.0]
    },
    "slices": {}
  }
}