{
  "AcquisitionMatrixPE": 88,
  "AcquisitionNumber": 1,
  "AcquisitionTime": "13:15:48.317500",
  "BandwidthPerPixelPhaseEncode": 19.592,
  "BaseResolution": 88,
  "BodyPartExamined": "BRAIN",
  "ConsistencyInfo": "N4_VE11C_LATEST_20160120",
  "ConversionSoftware": "dcm2niix",
  "ConversionSoftwareVersion": "v1.0.20190902",
  "DerivedVendorReportedEchoSpacing": 0.000580014,
  "DeviceSerialNumber": "67050",
  "DwellTime": 2.6e-06,
  "EchoTime": 0.033,
  "EchoTrainLength": 88,
  "EffectiveEchoSpacing": 0.000580014,
  "FlipAngle": 62,
  "ImageOrientationPatientDICOM": [0.992185, 0.116564, 0.0445073, -0.104633, 0.971625, -0.212124],
  "ImageType": [
    "ORIGINAL",
    "PRIMARY",
    "M",
    "ND",
    "MOSAIC"
],
  "ImagingFrequency": 123.251,
  "InPlanePhaseEncodingDirectionDICOM": "COL",
  "InstitutionAddress": "Olive_Street_60_Providence_RI_US_02912",
  "InstitutionName": "BROWN_UNIVERSITY_MRF",
  "InstitutionalDepartmentName": "Department",
  "MRAcquisitionType": "2D",
  "MagneticFieldStrength": 3,
  "Manufacturer": "Siemens",
  "ManufacturersModelName": "Prisma_fit",
  "Modality": "MR",
  "MultibandAccelerationFactor": 4,
  "PartialFourier": 1,
  "PatientPosition": "HFS",
  "PercentPhaseFOV": 100,
  "PhaseEncodingDirection": "j-",
  "PhaseEncodingSteps": 88,
  "PhaseResolution": 1,
  "PixelBandwidth": 2185,
  "ProcedureStepDescription": "ASHENHAV_1222",
  "ProtocolName": "func-bold_task-RDMmotion_run-03",
  "PulseSequenceDetails": "%SiemensSeq%_ep2d_bold",
  "ReceiveCoilActiveElements": "HC1-7;NC1",
  "ReceiveCoilName": "HeadNeck_64",
  "ReconMatrixPE": 88,
  "RefLinesPE": 8,
  "RepetitionTime": 1.2,
  "SAR": 0.0437109,
  "ScanOptions": "FS",
  "ScanningSequence": "EP",
  "SequenceName": "_epfid2d1_88",
  "SequenceVariant": "SK",
  "SeriesDescription": "func-bold_task-RDMmotion_run-03",
  "SeriesNumber": 11,
  "ShimSetting": [1753, -9105, 4379, 399, -75, -372, -126, -1],
  "SliceThickness": 2.4,
  "SliceTiming": [0.55, 0, 0.6275, 0.0775, 0.7075, 0.1575, 0.785, 0.235, 0.865, 0.315, 0.9425, 0.3925, 1.0225, 0.47, 1.1, 0.55, 0, 0.6275, 0.0775, 0.7075, 0.1575, 0.785, 0.235, 0.865, 0.315, 0.9425, 0.3925, 1.0225, 0.47, 1.1, 0.55, 0, 0.6275, 0.0775, 0.7075, 0.1575, 0.785, 0.235, 0.865, 0.315, 0.9425, 0.3925, 1.0225, 0.47, 1.1, 0.55, 0, 0.6275, 0.0775, 0.7075, 0.1575, 0.785, 0.235, 0.865, 0.315, 0.9425, 0.3925, 1.0225, 0.47, 1.1],
  "SoftwareVersions": "syngo_MR_E11",
  "SpacingBetweenSlices": 2.4,
  "StationName": "AWP67050",
  "TaskName": "RDMmotion",
  "TotalReadoutTime": 0.0504612,
  "TxRefAmp": 218.152,
  "dcmmeta_affine": [
    [-2.3789901733398438, -0.25088149309158325, 0.16312886774539948, 113.1288833618164],
    [-0.2794884443283081, 2.3296921253204346, -0.4939415156841278, -67.01716613769531],
    [0.10671635717153549, 0.5086144208908081, 2.342949151992798, -94.04196166992188],
    [0.0, 0.0, 0.0, 1.0]
],
  "dcmmeta_reorient_transform": [
    [0.0, -1.0, 0.0, 87.0],
    [1.0, 0.0, 0.0, 0.0],
    [0.0, 0.0, 1.0, 0.0],
    [0.0, 0.0, 0.0, 1.0]
],
  "dcmmeta_shape": [88, 88, 60, 125],
  "dcmmeta_slice_dim": 2,
  "dcmmeta_version": 0.6,
  "global": {
    "const": {
      "AcquisitionMatrix": [88, 0, 0, 88],
      "AngioFlag": "N",
      "BitsAllocated": 16,
      "BitsStored": 12,
      "BodyPartExamined": "BRAIN",
      "Columns": 704,
      "DeidentificationMethodCodeSequence": [
        {
          "CodeMeaning": "XNAT DicomEdit 6 Script",
          "CodeValue": "3",
          "CodingSchemeDesignator": "XNAT",
          "CodingSchemeVersion": "1.0"}
],
      "EchoNumbers": 1,
      "EchoTime": 33.0,
      "EchoTrainLength": 88,
      "FlipAngle": 62.0,
      "HighBit": 11,
      "ImageOrientationPatient": [0.99218544443487, 0.1165639069301, 0.04450729662394, -0.104633044433, 0.97162519899935, -0.2121235457986],
      "ImagePositionPatient": [-746.75963101767, -939.29370724017, 73.992092211587],
      "ImageType": [
        "ORIGINAL",
        "PRIMARY",
        "M",
        "ND",
        "MOSAIC"
],
      "ImagedNucleus": "1H",
      "ImagingFrequency": 123.250598,
      "InPlanePhaseEncodingDirection": "COL",
      "MRAcquisitionType": "2D",
      "MagneticFieldStrength": 3.0,
      "Manufacturer": "SIEMENS",
      "ManufacturerModelName": "Prisma_fit",
      "Modality": "MR",
      "NumberOfAverages": 1.0,
      "NumberOfPhaseEncodingSteps": 88,
      "PercentPhaseFieldOfView": 100.0,
      "PercentSampling": 100.0,
      "PerformedProcedureStepStartTime": "121325.150000",
      "PhotometricInterpretation": "MONOCHROME2",
      "PixelBandwidth": 2185.0,
      "PixelRepresentation": 0,
      "PixelSpacing": [2.3977272510529, 2.3977272510529],
      "ProtocolName": "func-bold_task-RDMmotion_run-03",
      "RepetitionTime": 1200.0,
      "Rows": 704,
      "SAR": 0.04371088419442,
      "SamplesPerPixel": 1,
      "ScanOptions": "FS",
      "ScanningSequence": "EP",
      "SequenceName": "*epfid2d1_88",
      "SequenceVariant": "SK",
      "SeriesDescription": "func-bold_task-RDMmotion_run-03",
      "SeriesNumber": 11,
      "SeriesTime": "131621.138000",
      "SliceLocation": -70.32432790832,
      "SliceThickness": 2.4000000953674,
      "SmallestImagePixelValue": 0,
      "SoftwareVersions": "syngo MR E11",
      "SpacingBetweenSlices": 2.400000012327,
      "SpecificCharacterSet": "ISO_IR 100",
      "StudyID": "1",
      "StudyTime": "121325.008000",
      "TransmitCoilName": "Body",
      "VariableFlipAngleFlag": "N",
      "WindowCenterWidthExplanation": "Algo1",
      "dBdt": 0.0},
    "slices": {}
  },
  "time": {
    "samples": {
      "AcquisitionNumber": [1, 2, 3, 4, 5, 6, 7, 8, 9, 10, 11, 12, 13, 14, 15, 16, 17, 18, 19, 20, 21, 22, 23, 24, 25, 26, 27, 28, 29, 30, 31, 32, 33, 34, 35, 36, 37, 38, 39, 40, 41, 42, 43, 44, 45, 46, 47, 48, 49, 50, 51, 52, 53, 54, 55, 56, 57, 58, 59, 60, 61, 62, 63, 64, 65, 66, 67, 68, 69, 70, 71, 72, 73, 74, 75, 76, 77, 78, 79, 80, 81, 82, 83, 84, 85, 86, 87, 88, 89, 90, 91, 92, 93, 94, 95, 96, 97, 98, 99, 100, 101, 102, 103, 104, 105, 106, 107, 108, 109, 110, 111, 112, 113, 114, 115, 116, 117, 118, 119, 120, 121, 122, 123, 124, 125],
      "AcquisitionTime": ["131548.317500", "131549.517500", "131550.717500", "131551.917500", "131553.117500", "131554.317500", "131555.517500", "131556.717500", "131557.917500", "131559.117500", "131600.317500", "131601.517500", "131602.717500", "131603.917500", "131605.117500", "131606.317500", "131607.517500", "131608.717500", "131609.917500", "131611.117500", "131612.317500", "131613.517500", "131614.717500", "131615.917500", "131617.117500", "131618.317500", "131619.517500", "131620.717500", "131621.917500", "131623.117500", "131624.317500", "131625.517500", "131626.717500", "131627.917500", "131629.117500", "131630.317500", "131631.517500", "131632.717500", "131633.917500", "131635.117500", "131636.317500", "131637.517500", "131638.717500", "131639.917500", "131641.117500", "131642.317500", "131643.517500", "131644.717500", "131645.917500", "131647.117500", "131648.317500", "131649.517500", "131650.717500", "131651.917500", "131653.117500", "131654.317500", "131655.517500", "131656.717500", "131657.917500", "131659.117500", "131700.317500", "131701.517500", "131702.717500", "131703.917500", "131705.117500", "131706.317500", "131707.517500", "131708.717500", "131709.917500", "131711.117500", "131712.317500", "131713.517500", "131714.717500", "131715.917500", "131717.117500", "131718.317500", "131719.517500", "131720.717500", "131721.917500", "131723.117500", "131724.317500", "131725.517500", "131726.717500", "131727.917500", "131729.117500", "131730.317500", "131731.517500", "131732.717500", "131733.917500", "131735.117500", "131736.317500", "131737.517500", "131738.717500", "131739.917500", "131741.117500", "131742.317500", "131743.517500", "131744.717500", "131745.917500", "131747.117500", "131748.317500", "131749.517500", "131750.717500", "131751.917500", "131753.117500", "131754.317500", "131755.517500", "131756.717500", "131757.917500", "131759.117500", "131800.317500", "131801.517500", "131802.717500", "131803.917500", "131805.117500", "131806.317500", "131807.517500", "131808.717500", "131809.917500", "131811.117500", "131812.317500", "131813.517500", "131814.717500", "131815.917500", "131817.117500"],
      "ContentTime": ["131621.142000", "131621.145000", "131621.155000", "131621.157000", "131621.160000", "131621.166000", "131621.169000", "131621.172000", "131621.174000", "131621.177000", "131621.179000", "131621.182000", "131621.184000", "131621.191000", "131621.194000", "131621.196000", "131621.199000", "131621.202000", "131621.204000", "131621.207000", "131621.209000", "131621.212000", "131621.214000", "131621.224000", "131621.226000", "131621.229000", "131621.231000", "131701.138000", "131701.141000", "131701.143000", "131701.146000", "131701.148000", "131701.151000", "131701.153000", "131701.156000", "131701.158000", "131701.161000", "131701.164000", "131701.166000", "131701.169000", "131701.175000", "131701.177000", "131701.180000", "131701.182000", "131701.185000", "131701.188000", "131701.190000", "131701.193000", "131701.195000", "131701.198000", "131701.200000", "131701.203000", "131701.206000", "131701.208000", "131701.211000", "131701.213000", "131701.216000", "131701.218000", "131701.221000", "131701.223000", "131741.136000", "131741.139000", "131741.142000", "131741.144000", "131741.147000", "131741.150000", "131741.152000", "131741.155000", "131741.157000", "131741.160000", "131741.162000", "131741.165000", "131741.167000", "131741.170000", "131741.172000", "131741.175000", "131741.177000", "131741.180000", "131741.183000", "131741.185000", "131741.188000", "131741.190000", "131741.193000", "131741.195000", "131741.198000", "131741.200000", "131741.203000", "131741.212000", "131741.215000", "131741.217000", "131741.220000", "131741.223000", "131741.225000", "131818.667000", "131818.670000", "131818.673000", "131818.675000", "131818.678000", "131818.681000", "131818.683000", "131818.686000", "131818.688000", "131818.691000", "131818.695000", "131818.697000", "131818.700000", "131818.703000", "131818.706000", "131818.709000", "131818.712000", "131818.715000", "131818.717000", "131818.720000", "131818.723000", "131818.726000", "131818.729000", "131818.731000", "131818.734000", "131818.736000", "131818.739000", "131818.742000", "131818.744000", "131818.747000", "131818.749000", "131818.752000"],
      "InstanceCreationTime": ["131621.142000", "131621.145000", "131621.155000", "131621.157000", "131621.160000", "131621.166000", "131621.169000", "131621.172000", "131621.174000", "131621.177000", "131621.179000", "131621.182000", "131621.184000", "131621.191000", "131621.194000", "131621.196000", "131621.199000", "131621.202000", "131621.204000", "131621.207000", "131621.209000", "131621.212000", "131621.214000", "131621.224000", "131621.226000", "131621.229000", "131621.231000", "131701.138000", "131701.141000", "131701.143000", "131701.146000", "131701.148000", "131701.151000", "131701.153000", "131701.156000", "131701.158000", "131701.161000", "131701.164000", "131701.166000", "131701.169000", "131701.175000", "131701.177000", "131701.180000", "131701.182000", "131701.185000", "131701.188000", "131701.190000", "131701.193000", "131701.195000", "131701.198000", "131701.200000", "131701.203000", "131701.206000", "131701.208000", "131701.211000", "131701.213000", "131701.216000", "131701.218000", "131701.221000", "131701.223000", "131741.136000", "131741.139000", "131741.142000", "131741.144000", "131741.147000", "131741.150000", "131741.152000", "131741.155000", "131741.157000", "131741.160000", "131741.162000", "131741.165000", "131741.167000", "131741.170000", "131741.172000", "131741.175000", "131741.177000", "131741.180000", "131741.183000", "131741.185000", "131741.188000", "131741.190000", "131741.193000", "131741.195000", "131741.198000", "131741.200000", "131741.203000", "131741.212000", "131741.215000", "131741.217000", "131741.220000", "131741.223000", "131741.225000", "131818.667000", "131818.670000", "131818.673000", "131818.675000", "131818.678000", "131818.681000", "131818.683000", "131818.686000", "131818.688000", "131818.691000", "131818.695000", "131818.697000", "131818.700000", "131818.703000", "131818.706000", "131818.709000", "131818.712000", "131818.715000", "131818.717000", "131818.720000", "131818.723000", "131818.726000", "131818.729000", "131818.731000", "131818.734000", "131818.736000", "131818.739000", "131818.742000", "131818.744000", "131818.747000", "131818.749000", "131818.752000"],
      "InstanceNumber": [1, 2, 3, 4, 5, 6, 7, 8, 9, 10, 11, 12, 13, 14, 15, 16, 17, 18, 19, 20, 21, 22, 23, 24, 25, 26, 27, 28, 29, 30, 31, 32, 33, 34, 35, 36, 37, 38, 39, 40, 41, 42, 43, 44, 45, 46, 47, 48, 49, 50, 51, 52, 53, 54, 55, 56, 57, 58, 59, 60, 61, 62, 63, 64, 65, 66, 67, 68, 69, 70, 71, 72, 73, 74, 75, 76, 77, 78, 79, 80, 81, 82, 83, 84, 85, 86, 87, 88, 89, 90, 91, 92, 93, 94, 95, 96, 97, 98, 99, 100, 101, 102, 103, 104, 105, 106, 107, 108, 109, 110, 111, 112, 113, 114, 115, 116, 117, 118, 119, 120, 121, 122, 123, 124, 125],
      "LargestImagePixelValue": [2206, 2100, 2071, 2065, 2036, 2032, 2035, 2050, 2064, 2031, 2042, 2045, 2023, 2049, 2034, 2029, 2040, 2036, 2055, 2026, 2034, 2058, 2034, 2049, 2055, 2038, 2047, 2039, 2052, 2063, 2041, 2033, 2033, 2047, 2034, 2038, 2052, 2042, 2043, 2052, 2038, 2032, 2034, 2037, 2046, 2027, 2037, 2033, 2053, 2045, 2055, 2054, 2064, 2038, 2037, 2042, 2046, 2054, 2038, 2040, 2057, 2055, 2038, 2039, 2030, 2040, 2039, 2048, 2042, 2050, 2036, 2041, 2049, 2038, 2038, 2031, 2025, 2029, 2043, 2024, 2037, 2017, 2040, 2022, 2024, 2036, 2041, 2025, 2036, 2040, 2047, 2036, 2041, 2048, 2033, 2043, 2037, 2051, 2021, 2037, 2046, 2030, 2019, 2022, 2038, 2028, 2009, 2026, 2039, 2033, 2025, 2030, 2032, 2015, 2032, 2024, 2024, 2010, 2002, 2009, 2039, 2018, 2021, 2019, 2040],
      "WindowCenter": [609.0, 605.0, 604.0, 603.0, 602.0, 601.0, 601.0, 600.0, 600.0, 599.0, 599.0, 600.0, 599.0, 600.0, 600.0, 600.0, 599.0, 599.0, 599.0, 598.0, 598.0, 598.0, 598.0, 598.0, 599.0, 598.0, 599.0, 599.0, 599.0, 599.0, 599.0, 598.0, 598.0, 599.0, 598.0, 599.0, 599.0, 599.0, 601.0, 602.0, 601.0, 601.0, 600.0, 600.0, 599.0, 599.0, 600.0, 600.0, 599.0, 599.0, 599.0, 599.0, 600.0, 599.0, 599.0, 599.0, 599.0, 600.0, 599.0, 599.0, 600.0, 599.0, 600.0, 600.0, 600.0, 599.0, 600.0, 600.0, 600.0, 600.0, 600.0, 600.0, 600.0, 600.0, 602.0, 602.0, 600.0, 600.0, 599.0, 600.0, 600.0, 600.0, 599.0, 599.0, 600.0, 601.0, 601.0, 600.0, 600.0, 599.0, 599.0, 599.0, 600.0, 601.0, 601.0, 600.0, 599.0, 599.0, 599.0, 599.0, 598.0, 598.0, 599.0, 599.0, 599.0, 598.0, 597.0, 597.0, 597.0, 596.0, 598.0, 599.0, 599.0, 598.0, 598.0, 598.0, 598.0, 598.0, 598.0, 598.0, 599.0, 599.0, 600.0, 600.0, 600.0],
      "WindowWidth": [1298.0, 1289.0, 1286.0, 1283.0, 1280.0, 1279.0, 1278.0, 1276.0, 1275.0, 1274.0, 1274.0, 1275.0, 1275.0, 1276.0, 1277.0, 1276.0, 1274.0, 1273.0, 1273.0, 1270.0, 1271.0, 1271.0, 1271.0, 1271.0, 1273.0, 1272.0, 1273.0, 1275.0, 1274.0, 1274.0, 1274.0, 1272.0, 1272.0, 1273.0, 1272.0, 1273.0, 1274.0, 1274.0, 1277.0, 1281.0, 1280.0, 1278.0, 1277.0, 1275.0, 1275.0, 1274.0, 1275.0, 1276.0, 1274.0, 1273.0, 1273.0, 1274.0, 1275.0, 1274.0, 1274.0, 1275.0, 1273.0, 1275.0, 1275.0, 1275.0, 1275.0, 1274.0, 1276.0, 1276.0, 1276.0, 1275.0, 1276.0, 1276.0, 1277.0, 1277.0, 1275.0, 1276.0, 1276.0, 1277.0, 1280.0, 1280.0, 1276.0, 1275.0, 1275.0, 1275.0, 1277.0, 1275.0, 1274.0, 1275.0, 1275.0, 1278.0, 1279.0, 1276.0, 1276.0, 1275.0, 1274.0, 1274.0, 1277.0, 1279.0, 1279.0, 1276.0, 1273.0, 1274.0, 1274.0, 1273.0, 1271.0, 1272.0, 1273.0, 1274.0, 1274.0, 1271.0, 1269.0, 1268.0, 1268.0, 1268.0, 1270.0, 1273.0, 1274.0, 1273.0, 1272.0, 1271.0, 1272.0, 1272.0, 1271.0, 1272.0, 1273.0, 1273.0, 1276.0, 1276.0, 1275.0]
    },
    "slices": {}
  }
}