{
  "AcquisitionMatrixPE": 88,
  "AcquisitionNumber": 1,
  "AcquisitionTime": "13:31:39.832500",
  "BandwidthPerPixelPhaseEncode": 19.592,
  "BaseResolution": 88,
  "BodyPartExamined": "BRAIN",
  "ConsistencyInfo": "N4_VE11C_LATEST_20160120",
  "ConversionSoftware": "dcm2niix",
  "ConversionSoftwareVersion": "v1.0.20190902",
  "DerivedVendorReportedEchoSpacing": 0.000580014,
  "DeviceSerialNumber": "67050",
  "DwellTime": 2.6e-06,
  "EchoTime": 0.033,
  "EchoTrainLength": 88,
  "EffectiveEchoSpacing": 0.000580014,
  "FlipAngle": 62,
  "ImageOrientationPatientDICOM": [0.992185, 0.116564, 0.0445073, -0.104633, 0.971625, -0.212124],
  "ImageType": [
    "ORIGINAL",
    "PRIMARY",
    "M",
    "ND",
    "MOSAIC"
],
  "ImagingFrequency": 123.251,
  "InPlanePhaseEncodingDirectionDICOM": "COL",
  "InstitutionAddress": "Olive_Street_60_Providence_RI_US_02912",
  "InstitutionName": "BROWN_UNIVERSITY_MRF",
  "InstitutionalDepartmentName": "Department",
  "MRAcquisitionType": "2D",
  "MagneticFieldStrength": 3,
  "Manufacturer": "Siemens",
  "ManufacturersModelName": "Prisma_fit",
  "Modality": "MR",
  "MultibandAccelerationFactor": 4,
  "PartialFourier": 1,
  "PatientPosition": "HFS",
  "PercentPhaseFOV": 100,
  "PhaseEncodingDirection": "j-",
  "PhaseEncodingSteps": 88,
  "PhaseResolution": 1,
  "PixelBandwidth": 2185,
  "ProcedureStepDescription": "ASHENHAV_1222",
  "ProtocolName": "func-bold_task-RDMcolor_run-04",
  "PulseSequenceDetails": "%SiemensSeq%_ep2d_bold",
  "ReceiveCoilActiveElements": "HC1-7;NC1",
  "ReceiveCoilName": "HeadNeck_64",
  "ReconMatrixPE": 88,
  "RefLinesPE": 8,
  "RepetitionTime": 1.2,
  "SAR": 0.0441591,
  "ScanOptions": "FS",
  "ScanningSequence": "EP",
  "SequenceName": "_epfid2d1_88",
  "SequenceVariant": "SK",
  "SeriesDescription": "func-bold_task-RDMcolor_run-04",
  "SeriesNumber": 14,
  "ShimSetting": [1753, -9105, 4379, 399, -75, -372, -126, -1],
  "SliceThickness": 2.4,
  "SliceTiming": [0.55, 0, 0.63, 0.08, 0.7075, 0.1575, 0.7875, 0.2375, 0.865, 0.315, 0.945, 0.3925, 1.0225, 0.4725, 1.1025, 0.55, 0, 0.63, 0.08, 0.7075, 0.1575, 0.7875, 0.2375, 0.865, 0.315, 0.945, 0.3925, 1.0225, 0.4725, 1.1025, 0.55, 0, 0.63, 0.08, 0.7075, 0.1575, 0.7875, 0.2375, 0.865, 0.315, 0.945, 0.3925, 1.0225, 0.4725, 1.1025, 0.55, 0, 0.63, 0.08, 0.7075, 0.1575, 0.7875, 0.2375, 0.865, 0.315, 0.945, 0.3925, 1.0225, 0.4725, 1.1025],
  "SoftwareVersions": "syngo_MR_E11",
  "SpacingBetweenSlices": 2.4,
  "StationName": "AWP67050",
  "TaskName": "RDMcolor",
  "TotalReadoutTime": 0.0504612,
  "TxRefAmp": 218.152,
  "dcmmeta_affine": [
    [-2.3789901733398438, -0.25088149309158325, 0.16312886774539948, 113.1288833618164],
    [-0.2794884443283081, 2.3296921253204346, -0.4939415156841278, -67.01716613769531],
    [0.10671635717153549, 0.5086144208908081, 2.342949151992798, -94.04196166992188],
    [0.0, 0.0, 0.0, 1.0]
],
  "dcmmeta_reorient_transform": [
    [0.0, -1.0, 0.0, 87.0],
    [1.0, 0.0, 0.0, 0.0],
    [0.0, 0.0, 1.0, 0.0],
    [0.0, 0.0, 0.0, 1.0]
],
  "dcmmeta_shape": [88, 88, 60, 392],
  "dcmmeta_slice_dim": 2,
  "dcmmeta_version": 0.6,
  "global": {
    "const": {
      "AcquisitionMatrix": [88, 0, 0, 88],
      "AngioFlag": "N",
      "BitsAllocated": 16,
      "BitsStored": 12,
      "BodyPartExamined": "BRAIN",
      "Columns": 704,
      "DeidentificationMethodCodeSequence": [
        {
          "CodeMeaning": "XNAT DicomEdit 6 Script",
          "CodeValue": "3",
          "CodingSchemeDesignator": "XNAT",
          "CodingSchemeVersion": "1.0"}
],
      "EchoNumbers": 1,
      "EchoTime": 33.0,
      "EchoTrainLength": 88,
      "FlipAngle": 62.0,
      "HighBit": 11,
      "ImageOrientationPatient": [0.99218544443487, 0.1165639069301, 0.04450729662394, -0.104633044433, 0.97162519899935, -0.2121235457986],
      "ImagePositionPatient": [-746.75963101767, -939.29370724017, 73.992092211587],
      "ImageType": [
        "ORIGINAL",
        "PRIMARY",
        "M",
        "ND",
        "MOSAIC"
],
      "ImagedNucleus": "1H",
      "ImagingFrequency": 123.250606,
      "InPlanePhaseEncodingDirection": "COL",
      "MRAcquisitionType": "2D",
      "MagneticFieldStrength": 3.0,
      "Manufacturer": "SIEMENS",
      "ManufacturerModelName": "Prisma_fit",
      "Modality": "MR",
      "NumberOfAverages": 1.0,
      "NumberOfPhaseEncodingSteps": 88,
      "PercentPhaseFieldOfView": 100.0,
      "PercentSampling": 100.0,
      "PerformedProcedureStepStartTime": "121325.150000",
      "PhotometricInterpretation": "MONOCHROME2",
      "PixelBandwidth": 2185.0,
      "PixelRepresentation": 0,
      "PixelSpacing": [2.3977272510529, 2.3977272510529],
      "ProtocolName": "func-bold_task-RDMcolor_run-04",
      "RepetitionTime": 1200.0,
      "Rows": 704,
      "SAR": 0.04415911874986,
      "SamplesPerPixel": 1,
      "ScanOptions": "FS",
      "ScanningSequence": "EP",
      "SequenceName": "*epfid2d1_88",
      "SequenceVariant": "SK",
      "SeriesDescription": "func-bold_task-RDMcolor_run-04",
      "SeriesNumber": 14,
      "SeriesTime": "133201.138000",
      "SliceLocation": -70.32432790832,
      "SliceThickness": 2.4000000953674,
      "SmallestImagePixelValue": 0,
      "SoftwareVersions": "syngo MR E11",
      "SpacingBetweenSlices": 2.400000012327,
      "SpecificCharacterSet": "ISO_IR 100",
      "StudyID": "1",
      "StudyTime": "121325.008000",
      "TransmitCoilName": "Body",
      "VariableFlipAngleFlag": "N",
      "WindowCenterWidthExplanation": "Algo1",
      "dBdt": 0.0},
    "slices": {}
  },
  "time": {
    "samples": {
      "AcquisitionNumber": [1, 2, 3, 4, 5, 6, 7, 8, 9, 10, 11, 12, 13, 14, 15, 16, 17, 18, 19, 20, 21, 22, 23, 24, 25, 26, 27, 28, 29, 30, 31, 32, 33, 34, 35, 36, 37, 38, 39, 40, 41, 42, 43, 44, 45, 46, 47, 48, 49, 50, 51, 52, 53, 54, 55, 56, 57, 58, 59, 60, 61, 62, 63, 64, 65, 66, 67, 68, 69, 70, 71, 72, 73, 74, 75, 76, 77, 78, 79, 80, 81, 82, 83, 84, 85, 86, 87, 88, 89, 90, 91, 92, 93, 94, 95, 96, 97, 98, 99, 100, 101, 102, 103, 104, 105, 106, 107, 108, 109, 110, 111, 112, 113, 114, 115, 116, 117, 118, 119, 120, 121, 122, 123, 124, 125, 126, 127, 128, 129, 130, 131, 132, 133, 134, 135, 136, 137, 138, 139, 140, 141, 142, 143, 144, 145, 146, 147, 148, 149, 150, 151, 152, 153, 154, 155, 156, 157, 158, 159, 160, 161, 162, 163, 164, 165, 166, 167, 168, 169, 170, 171, 172, 173, 174, 175, 176, 177, 178, 179, 180, 181, 182, 183, 184, 185, 186, 187, 188, 189, 190, 191, 192, 193, 194, 195, 196, 197, 198, 199, 200, 201, 202, 203, 204, 205, 206, 207, 208, 209, 210, 211, 212, 213, 214, 215, 216, 217, 218, 219, 220, 221, 222, 223, 224, 225, 226, 227, 228, 229, 230, 231, 232, 233, 234, 235, 236, 237, 238, 239, 240, 241, 242, 243, 244, 245, 246, 247, 248, 249, 250, 251, 252, 253, 254, 255, 256, 257, 258, 259, 260, 261, 262, 263, 264, 265, 266, 267, 268, 269, 270, 271, 272, 273, 274, 275, 276, 277, 278, 279, 280, 281, 282, 283, 284, 285, 286, 287, 288, 289, 290, 291, 292, 293, 294, 295, 296, 297, 298, 299, 300, 301, 302, 303, 304, 305, 306, 307, 308, 309, 310, 311, 312, 313, 314, 315, 316, 317, 318, 319, 320, 321, 322, 323, 324, 325, 326, 327, 328, 329, 330, 331, 332, 333, 334, 335, 336, 337, 338, 339, 340, 341, 342, 343, 344, 345, 346, 347, 348, 349, 350, 351, 352, 353, 354, 355, 356, 357, 358, 359, 360, 361, 362, 363, 364, 365, 366, 367, 368, 369, 370, 371, 372, 373, 374, 375, 376, 377, 378, 379, 380, 381, 382, 383, 384, 385, 386, 387, 388, 389, 390, 391, 392],
      "AcquisitionTime": ["133139.832500", "133141.032500", "133142.232500", "133143.432500", "133144.632500", "133145.832500", "133147.032500", "133148.232500", "133149.432500", "133150.632500", "133151.832500", "133153.032500", "133154.232500", "133155.432500", "133156.632500", "133157.832500", "133159.032500", "133200.232500", "133201.432500", "133202.632500", "133203.832500", "133205.032500", "133206.232500", "133207.432500", "133208.632500", "133209.832500", "133211.032500", "133212.232500", "133213.432500", "133214.632500", "133215.832500", "133217.032500", "133218.232500", "133219.432500", "133220.632500", "133221.832500", "133223.032500", "133224.232500", "133225.432500", "133226.632500", "133227.832500", "133229.032500", "133230.232500", "133231.432500", "133232.632500", "133233.832500", "133235.032500", "133236.232500", "133237.432500", "133238.632500", "133239.832500", "133241.032500", "133242.232500", "133243.432500", "133244.632500", "133245.832500", "133247.032500", "133248.232500", "133249.432500", "133250.632500", "133251.832500", "133253.032500", "133254.232500", "133255.432500", "133256.632500", "133257.832500", "133259.032500", "133300.232500", "133301.432500", "133302.632500", "133303.832500", "133305.032500", "133306.232500", "133307.432500", "133308.632500", "133309.832500", "133311.032500", "133312.232500", "133313.432500", "133314.632500", "133315.832500", "133317.032500", "133318.232500", "133319.432500", "133320.632500", "133321.832500", "133323.032500", "133324.232500", "133325.432500", "133326.632500", "133327.832500", "133329.032500", "133330.232500", "133331.432500", "133332.632500", "133333.832500", "133335.032500", "133336.232500", "133337.432500", "133338.632500", "133339.832500", "133341.032500", "133342.232500", "133343.432500", "133344.632500", "133345.832500", "133347.032500", "133348.232500", "133349.432500", "133350.632500", "133351.832500", "133353.032500", "133354.232500", "133355.432500", "133356.632500", "133357.832500", "133359.032500", "133400.232500", "133401.432500", "133402.632500", "133403.832500", "133405.032500", "133406.232500", "133407.432500", "133408.632500", "133409.832500", "133411.032500", "133412.232500", "133413.432500", "133414.632500", "133415.832500", "133417.032500", "133418.232500", "133419.432500", "133420.632500", "133421.832500", "133423.032500", "133424.232500", "133425.432500", "133426.632500", "133427.832500", "133429.032500", "133430.232500", "133431.432500", "133432.632500", "133433.832500", "133435.032500", "133436.232500", "133437.432500", "133438.632500", "133439.832500", "133441.032500", "133442.232500", "133443.432500", "133444.632500", "133445.832500", "133447.032500", "133448.232500", "133449.432500", "133450.632500", "133451.832500", "133453.032500", "133454.232500", "133455.432500", "133456.632500", "133457.832500", "133459.032500", "133500.232500", "133501.432500", "133502.632500", "133503.832500", "133505.032500", "133506.232500", "133507.432500", "133508.632500", "133509.832500", "133511.032500", "133512.232500", "133513.432500", "133514.632500", "133515.832500", "133517.032500", "133518.232500", "133519.432500", "133520.632500", "133521.832500", "133523.032500", "133524.232500", "133525.432500", "133526.632500", "133527.832500", "133529.032500", "133530.232500", "133531.432500", "133532.632500", "133533.832500", "133535.032500", "133536.232500", "133537.432500", "133538.632500", "133539.832500", "133541.032500", "133542.232500", "133543.432500", "133544.632500", "133545.832500", "133547.032500", "133548.232500", "133549.432500", "133550.632500", "133551.832500", "133553.032500", "133554.232500", "133555.432500", "133556.632500", "133557.832500", "133559.032500", "133600.232500", "133601.432500", "133602.632500", "133603.832500", "133605.032500", "133606.232500", "133607.432500", "133608.632500", "133609.832500", "133611.032500", "133612.232500", "133613.432500", "133614.632500", "133615.832500", "133617.032500", "133618.232500", "133619.432500", "133620.632500", "133621.832500", "133623.032500", "133624.232500", "133625.432500", "133626.632500", "133627.832500", "133629.032500", "133630.232500", "133631.432500", "133632.632500", "133633.832500", "133635.032500", "133636.232500", "133637.432500", "133638.632500", "133639.832500", "133641.032500", "133642.232500", "133643.432500", "133644.632500", "133645.832500", "133647.032500", "133648.232500", "133649.432500", "133650.632500", "133651.832500", "133653.032500", "133654.232500", "133655.432500", "133656.632500", "133657.832500", "133659.032500", "133700.232500", "133701.432500", "133702.632500", "133703.832500", "133705.032500", "133706.232500", "133707.432500", "133708.632500", "133709.832500", "133711.032500", "133712.232500", "133713.432500", "133714.632500", "133715.832500", "133717.032500", "133718.232500", "133719.432500", "133720.632500", "133721.832500", "133723.032500", "133724.232500", "133725.432500", "133726.632500", "133727.832500", "133729.032500", "133730.232500", "133731.432500", "133732.632500", "133733.832500", "133735.032500", "133736.232500", "133737.432500", "133738.632500", "133739.832500", "133741.032500", "133742.232500", "133743.432500", "133744.632500", "133745.832500", "133747.032500", "133748.232500", "133749.432500", "133750.632500", "133751.832500", "133753.032500", "133754.232500", "133755.432500", "133756.632500", "133757.832500", "133759.032500", "133800.232500", "133801.432500", "133802.632500", "133803.832500", "133805.032500", "133806.232500", "133807.432500", "133808.632500", "133809.832500", "133811.032500", "133812.232500", "133813.432500", "133814.632500", "133815.832500", "133817.032500", "133818.232500", "133819.432500", "133820.632500", "133821.832500", "133823.032500", "133824.232500", "133825.432500", "133826.632500", "133827.832500", "133829.032500", "133830.232500", "133831.432500", "133832.632500", "133833.832500", "133835.032500", "133836.232500", "133837.432500", "133838.632500", "133839.832500", "133841.032500", "133842.232500", "133843.432500", "133844.632500", "133845.832500", "133847.032500", "133848.232500", "133849.432500", "133850.632500", "133851.832500", "133853.032500", "133854.232500", "133855.432500", "133856.632500", "133857.832500", "133859.032500", "133900.232500", "133901.432500", "133902.632500", "133903.832500", "133905.032500", "133906.232500", "133907.432500", "133908.632500", "133909.832500", "133911.032500", "133912.232500", "133913.432500", "133914.632500", "133915.832500", "133917.032500", "133918.232500", "133919.432500", "133920.632500", "133921.832500", "133923.032500", "133924.232500", "133925.432500", "133926.632500", "133927.832500", "133929.032500"],
      "ContentTime": ["133201.141000", "133201.144000", "133201.147000", "133201.150000", "133201.152000", "133201.155000", "133201.157000", "133201.160000", "133201.162000", "133201.165000", "133201.184000", "133201.186000", "133201.189000", "133201.192000", "133201.194000", "133201.197000", "133201.199000", "133241.138000", "133241.140000", "133241.143000", "133241.146000", "133241.148000", "133241.156000", "133241.158000", "133241.161000", "133241.163000", "133241.166000", "133241.169000", "133241.171000", "133241.174000", "133241.176000", "133241.179000", "133241.182000", "133241.185000", "133241.187000", "133241.190000", "133241.193000", "133241.195000", "133241.198000", "133241.201000", "133241.204000", "133241.206000", "133241.209000", "133241.211000", "133241.214000", "133241.216000", "133241.219000", "133241.222000", "133241.224000", "133241.227000", "133321.137000", "133321.140000", "133321.152000", "133321.155000", "133321.157000", "133321.160000", "133321.163000", "133321.165000", "133321.168000", "133321.170000", "133321.173000", "133321.176000", "133321.178000", "133321.181000", "133321.183000", "133321.186000", "133321.189000", "133321.191000", "133321.194000", "133321.196000", "133321.199000", "133321.201000", "133321.204000", "133321.207000", "133321.210000", "133321.212000", "133321.215000", "133321.217000", "133321.220000", "133321.222000", "133321.225000", "133321.228000", "133321.230000", "133321.233000", "133401.136000", "133401.139000", "133401.142000", "133401.144000", "133401.158000", "133401.161000", "133401.163000", "133401.166000", "133401.169000", "133401.171000", "133401.174000", "133401.176000", "133401.179000", "133401.181000", "133401.184000", "133401.187000", "133401.189000", "133401.192000", "133401.194000", "133401.197000", "133401.200000", "133401.202000", "133401.205000", "133401.207000", "133401.210000", "133401.212000", "133401.215000", "133401.217000", "133401.221000", "133401.223000", "133401.226000", "133401.229000", "133401.231000", "133441.138000", "133441.140000", "133441.143000", "133441.146000", "133441.148000", "133441.151000", "133441.153000", "133441.156000", "133441.159000", "133441.161000", "133441.164000", "133441.166000", "133441.169000", "133441.172000", "133441.174000", "133441.177000", "133441.180000", "133441.182000", "133441.185000", "133441.187000", "133441.190000", "133441.192000", "133441.195000", "133441.198000", "133441.200000", "133441.203000", "133441.206000", "133441.209000", "133441.212000", "133441.215000", "133441.217000", "133441.220000", "133441.223000", "133521.137000", "133521.140000", "133521.143000", "133521.145000", "133521.148000", "133521.150000", "133521.153000", "133521.156000", "133521.158000", "133521.161000", "133521.163000", "133521.166000", "133521.168000", "133521.171000", "133521.174000", "133521.176000", "133521.179000", "133521.181000", "133521.184000", "133521.187000", "133521.189000", "133521.192000", "133521.194000", "133521.197000", "133521.199000", "133521.202000", "133521.204000", "133521.207000", "133521.210000", "133521.212000", "133521.215000", "133521.217000", "133521.220000", "133521.223000", "133601.138000", "133601.140000", "133601.143000", "133601.146000", "133601.148000", "133601.151000", "133601.154000", "133601.156000", "133601.159000", "133601.161000", "133601.164000", "133601.166000", "133601.169000", "133601.172000", "133601.174000", "133601.177000", "133601.179000", "133601.182000", "133601.185000", "133601.187000", "133601.190000", "133601.192000", "133601.195000", "133601.197000", "133601.200000", "133601.203000", "133601.205000", "133601.208000", "133601.210000", "133601.213000", "133601.215000", "133601.218000", "133601.221000", "133641.137000", "133641.139000", "133641.142000", "133641.145000", "133641.147000", "133641.150000", "133641.152000", "133641.155000", "133641.158000", "133641.160000", "133641.163000", "133641.165000", "133641.168000", "133641.171000", "133641.173000", "133641.176000", "133641.178000", "133641.181000", "133641.184000", "133641.186000", "133641.189000", "133641.191000", "133641.194000", "133641.196000", "133641.199000", "133641.202000", "133641.204000", "133641.207000", "133641.210000", "133641.212000", "133641.215000", "133641.218000", "133641.234000", "133721.138000", "133721.140000", "133721.143000", "133721.146000", "133721.148000", "133721.151000", "133721.154000", "133721.156000", "133721.159000", "133721.161000", "133721.164000", "133721.166000", "133721.169000", "133721.172000", "133721.174000", "133721.177000", "133721.180000", "133721.182000", "133721.185000", "133721.187000", "133721.190000", "133721.192000", "133721.195000", "133721.198000", "133721.200000", "133721.203000", "133721.205000", "133721.208000", "133721.210000", "133721.213000", "133721.216000", "133721.218000", "133721.221000", "133721.223000", "133801.137000", "133801.140000", "133801.143000", "133801.145000", "133801.148000", "133801.151000", "133801.153000", "133801.156000", "133801.158000", "133801.161000", "133801.164000", "133801.166000", "133801.169000", "133801.171000", "133801.174000", "133801.177000", "133801.179000", "133801.182000", "133801.185000", "133801.187000", "133801.190000", "133801.192000", "133801.195000", "133801.197000", "133801.200000", "133801.203000", "133801.205000", "133801.208000", "133801.210000", "133801.213000", "133801.215000", "133801.218000", "133801.221000", "133841.136000", "133841.139000", "133841.142000", "133841.145000", "133841.147000", "133841.150000", "133841.152000", "133841.155000", "133841.158000", "133841.160000", "133841.163000", "133841.166000", "133841.168000", "133841.171000", "133841.173000", "133841.176000", "133841.179000", "133841.181000", "133841.184000", "133841.187000", "133841.189000", "133841.192000", "133841.194000", "133841.197000", "133841.200000", "133841.202000", "133841.212000", "133841.215000", "133841.218000", "133841.220000", "133841.223000", "133841.226000", "133841.228000", "133921.138000", "133921.140000", "133921.143000", "133921.146000", "133921.148000", "133921.151000", "133921.154000", "133921.157000", "133921.159000", "133921.162000", "133921.164000", "133921.167000", "133921.170000", "133921.172000", "133921.175000", "133921.178000", "133921.180000", "133921.183000", "133921.186000", "133921.188000", "133921.191000", "133921.193000", "133921.196000", "133921.198000", "133921.201000", "133921.203000", "133921.206000", "133921.209000", "133921.211000", "133921.214000", "133921.216000", "133921.219000", "133921.221000", "133921.224000", "133930.471000", "133930.474000", "133930.477000", "133930.480000", "133930.482000", "133930.485000", "133930.488000", "133930.490000"],
      "InstanceCreationTime": ["133201.141000", "133201.144000", "133201.147000", "133201.150000", "133201.152000", "133201.155000", "133201.157000", "133201.160000", "133201.162000", "133201.165000", "133201.184000", "133201.186000", "133201.189000", "133201.192000", "133201.194000", "133201.197000", "133201.199000", "133241.138000", "133241.140000", "133241.143000", "133241.146000", "133241.148000", "133241.156000", "133241.158000", "133241.161000", "133241.163000", "133241.166000", "133241.169000", "133241.171000", "133241.174000", "133241.176000", "133241.179000", "133241.182000", "133241.185000", "133241.187000", "133241.190000", "133241.193000", "133241.195000", "133241.198000", "133241.201000", "133241.204000", "133241.206000", "133241.209000", "133241.211000", "133241.214000", "133241.216000", "133241.219000", "133241.222000", "133241.224000", "133241.227000", "133321.137000", "133321.140000", "133321.152000", "133321.155000", "133321.157000", "133321.160000", "133321.163000", "133321.165000", "133321.168000", "133321.170000", "133321.173000", "133321.176000", "133321.178000", "133321.181000", "133321.183000", "133321.186000", "133321.189000", "133321.191000", "133321.194000", "133321.196000", "133321.199000", "133321.201000", "133321.204000", "133321.207000", "133321.210000", "133321.212000", "133321.215000", "133321.217000", "133321.220000", "133321.222000", "133321.225000", "133321.228000", "133321.230000", "133321.233000", "133401.136000", "133401.139000", "133401.142000", "133401.144000", "133401.158000", "133401.161000", "133401.163000", "133401.166000", "133401.169000", "133401.171000", "133401.174000", "133401.176000", "133401.179000", "133401.181000", "133401.184000", "133401.187000", "133401.189000", "133401.192000", "133401.194000", "133401.197000", "133401.200000", "133401.202000", "133401.205000", "133401.207000", "133401.210000", "133401.212000", "133401.215000", "133401.217000", "133401.221000", "133401.223000", "133401.226000", "133401.229000", "133401.231000", "133441.138000", "133441.140000", "133441.143000", "133441.146000", "133441.148000", "133441.151000", "133441.153000", "133441.156000", "133441.159000", "133441.161000", "133441.164000", "133441.166000", "133441.169000", "133441.172000", "133441.174000", "133441.177000", "133441.180000", "133441.182000", "133441.185000", "133441.187000", "133441.190000", "133441.192000", "133441.195000", "133441.198000", "133441.200000", "133441.203000", "133441.206000", "133441.209000", "133441.212000", "133441.215000", "133441.217000", "133441.220000", "133441.223000", "133521.137000", "133521.140000", "133521.143000", "133521.145000", "133521.148000", "133521.150000", "133521.153000", "133521.156000", "133521.158000", "133521.161000", "133521.163000", "133521.166000", "133521.168000", "133521.171000", "133521.174000", "133521.176000", "133521.179000", "133521.181000", "133521.184000", "133521.187000", "133521.189000", "133521.192000", "133521.194000", "133521.197000", "133521.199000", "133521.202000", "133521.204000", "133521.207000", "133521.210000", "133521.212000", "133521.215000", "133521.217000", "133521.220000", "133521.223000", "133601.138000", "133601.140000", "133601.143000", "133601.146000", "133601.148000", "133601.151000", "133601.154000", "133601.156000", "133601.159000", "133601.161000", "133601.164000", "133601.166000", "133601.169000", "133601.172000", "133601.174000", "133601.177000", "133601.179000", "133601.182000", "133601.185000", "133601.187000", "133601.190000", "133601.192000", "133601.195000", "133601.197000", "133601.200000", "133601.203000", "133601.205000", "133601.208000", "133601.210000", "133601.213000", "133601.215000", "133601.218000", "133601.221000", "133641.137000", "133641.139000", "133641.142000", "133641.145000", "133641.147000", "133641.150000", "133641.152000", "133641.155000", "133641.158000", "133641.160000", "133641.163000", "133641.165000", "133641.168000", "133641.171000", "133641.173000", "133641.176000", "133641.178000", "133641.181000", "133641.184000", "133641.186000", "133641.189000", "133641.191000", "133641.194000", "133641.196000", "133641.199000", "133641.202000", "133641.204000", "133641.207000", "133641.210000", "133641.212000", "133641.215000", "133641.218000", "133641.234000", "133721.138000", "133721.140000", "133721.143000", "133721.146000", "133721.148000", "133721.151000", "133721.154000", "133721.156000", "133721.159000", "133721.161000", "133721.164000", "133721.166000", "133721.169000", "133721.172000", "133721.174000", "133721.177000", "133721.180000", "133721.182000", "133721.185000", "133721.187000", "133721.190000", "133721.192000", "133721.195000", "133721.198000", "133721.200000", "133721.203000", "133721.205000", "133721.208000", "133721.210000", "133721.213000", "133721.216000", "133721.218000", "133721.221000", "133721.223000", "133801.137000", "133801.140000", "133801.143000", "133801.145000", "133801.148000", "133801.151000", "133801.153000", "133801.156000", "133801.158000", "133801.161000", "133801.164000", "133801.166000", "133801.169000", "133801.171000", "133801.174000", "133801.177000", "133801.179000", "133801.182000", "133801.185000", "133801.187000", "133801.190000", "133801.192000", "133801.195000", "133801.197000", "133801.200000", "133801.203000", "133801.205000", "133801.208000", "133801.210000", "133801.213000", "133801.215000", "133801.218000", "133801.221000", "133841.136000", "133841.139000", "133841.142000", "133841.145000", "133841.147000", "133841.150000", "133841.152000", "133841.155000", "133841.158000", "133841.160000", "133841.163000", "133841.166000", "133841.168000", "133841.171000", "133841.173000", "133841.176000", "133841.179000", "133841.181000", "133841.184000", "133841.187000", "133841.189000", "133841.192000", "133841.194000", "133841.197000", "133841.200000", "133841.202000", "133841.212000", "133841.215000", "133841.218000", "133841.220000", "133841.223000", "133841.226000", "133841.228000", "133921.138000", "133921.140000", "133921.143000", "133921.146000", "133921.148000", "133921.151000", "133921.154000", "133921.157000", "133921.159000", "133921.162000", "133921.164000", "133921.167000", "133921.170000", "133921.172000", "133921.175000", "133921.178000", "133921.180000", "133921.183000", "133921.186000", "133921.188000", "133921.191000", "133921.193000", "133921.196000", "133921.198000", "133921.201000", "133921.203000", "133921.206000", "133921.209000", "133921.211000", "133921.214000", "133921.216000", "133921.219000", "133921.221000", "133921.224000", "133930.471000", "133930.474000", "133930.477000", "133930.480000", "133930.482000", "133930.485000", "133930.488000", "133930.490000"],
      "InstanceNumber": [1, 2, 3, 4, 5, 6, 7, 8, 9, 10, 11, 12, 13, 14, 15, 16, 17, 18, 19, 20, 21, 22, 23, 24, 25, 26, 27, 28, 29, 30, 31, 32, 33, 34, 35, 36, 37, 38, 39, 40, 41, 42, 43, 44, 45, 46, 47, 48, 49, 50, 51, 52, 53, 54, 55, 56, 57, 58, 59, 60, 61, 62, 63, 64, 65, 66, 67, 68, 69, 70, 71, 72, 73, 74, 75, 76, 77, 78, 79, 80, 81, 82, 83, 84, 85, 86, 87, 88, 89, 90, 91, 92, 93, 94, 95, 96, 97, 98, 99, 100, 101, 102, 103, 104, 105, 106, 107, 108, 109, 110, 111, 112, 113, 114, 115, 116, 117, 118, 119, 120, 121, 122, 123, 124, 125, 126, 127, 128, 129, 130, 131, 132, 133, 134, 135, 136, 137, 138, 139, 140, 141, 142, 143, 144, 145, 146, 147, 148, 149, 150, 151, 152, 153, 154, 155, 156, 157, 158, 159, 160, 161, 162, 163, 164, 165, 166, 167, 168, 169, 170, 171, 172, 173, 174, 175, 176, 177, 178, 179, 180, 181, 182, 183, 184, 185, 186, 187, 188, 189, 190, 191, 192, 193, 194, 195, 196, 197, 198, 199, 200, 201, 202, 203, 204, 205, 206, 207, 208, 209, 210, 211, 212, 213, 214, 215, 216, 217, 218, 219, 220, 221, 222, 223, 224, 225, 226, 227, 228, 229, 230, 231, 232, 233, 234, 235, 236, 237, 238, 239, 240, 241, 242, 243, 244, 245, 246, 247, 248, 249, 250, 251, 252, 253, 254, 255, 256, 257, 258, 259, 260, 261, 262, 263, 264, 265, 266, 267, 268, 269, 270, 271, 272, 273, 274, 275, 276, 277, 278, 279, 280, 281, 282, 283, 284, 285, 286, 287, 288, 289, 290, 291, 292, 293, 294, 295, 296, 297, 298, 299, 300, 301, 302, 303, 304, 305, 306, 307, 308, 309, 310, 311, 312, 313, 314, 315, 316, 317, 318, 319, 320, 321, 322, 323, 324, 325, 326, 327, 328, 329, 330, 331, 332, 333, 334, 335, 336, 337, 338, 339, 340, 341, 342, 343, 344, 345, 346, 347, 348, 349, 350, 351, 352, 353, 354, 355, 356, 357, 358, 359, 360, 361, 362, 363, 364, 365, 366, 367, 368, 369, 370, 371, 372, 373, 374, 375, 376, 377, 378, 379, 380, 381, 382, 383, 384, 385, 386, 387, 388, 389, 390, 391, 392],
