{
  "AcquisitionMatrixPE": 88,
  "AcquisitionNumber": 1,
  "AcquisitionTime": "10:16:18.035000",
  "BandwidthPerPixelPhaseEncode": 19.592,
  "BaseResolution": 88,
  "BodyPartExamined": "BRAIN",
  "ConsistencyInfo": "N4_VE11C_LATEST_20160120",
  "ConversionSoftware": "dcm2niix",
  "ConversionSoftwareVersion": "v1.0.20190902",
  "DerivedVendorReportedEchoSpacing": 0.000580014,
  "DeviceSerialNumber": "67050",
  "DwellTime": 2.6e-06,
  "EchoTime": 0.033,
  "EchoTrainLength": 88,
  "EffectiveEchoSpacing": 0.000580014,
  "FlipAngle": 62,
  "ImageOrientationPatientDICOM": [0.990156, 0.0584972, 0.127156, -0.029906, 0.975916, -0.216086],
  "ImageType": [
    "ORIGINAL",
    "PRIMARY",
    "M",
    "ND",
    "MOSAIC"
],
  "ImagingFrequency": 123.251,
  "InPlanePhaseEncodingDirectionDICOM": "COL",
  "InstitutionAddress": "Olive_Street_60_Providence_RI_US_02912",
  "InstitutionName": "BROWN_UNIVERSITY_MRF",
  "InstitutionalDepartmentName": "Department",
  "MRAcquisitionType": "2D",
  "MagneticFieldStrength": 3,
  "Manufacturer": "Siemens",
  "ManufacturersModelName": "Prisma_fit",
  "Modality": "MR",
  "MultibandAccelerationFactor": 4,
  "PartialFourier": 1,
  "PatientPosition": "HFS",
  "PercentPhaseFOV": 100,
  "PhaseEncodingDirection": "j-",
  "PhaseEncodingSteps": 88,
  "PhaseResolution": 1,
  "PixelBandwidth": 2185,
  "ProcedureStepDescription": "ASHENHAV_1222",
  "ProtocolName": "func-bold_task-RDMmotion_run-06",
  "PulseSequenceDetails": "%SiemensSeq%_ep2d_bold",
  "ReceiveCoilActiveElements": "HC1-7;NC1",
  "ReceiveCoilName": "HeadNeck_64",
  "ReconMatrixPE": 88,
  "RefLinesPE": 8,
  "RepetitionTime": 1.2,
  "SAR": 0.0500856,
  "ScanOptions": "FS",
  "ScanningSequence": "EP",
  "SequenceName": "_epfid2d1_88",
  "SequenceVariant": "SK",
  "SeriesDescription": "func-bold_task-RDMmotion_run-06",
  "SeriesNumber": 17,
  "ShimSetting": [1784, -9082, 4397, 354, -52, -216, -82, 34],
  "SliceThickness": 2.4,
  "SliceTiming": [0.5525, 0, 0.63, 0.08, 0.7075, 0.1575, 0.7875, 0.2375, 0.865, 0.315, 0.945, 0.395, 1.0225, 0.4725, 1.1025, 0.5525, 0, 0.63, 0.08, 0.7075, 0.1575, 0.7875, 0.2375, 0.865, 0.315, 0.945, 0.395, 1.0225, 0.4725, 1.1025, 0.5525, 0, 0.63, 0.08, 0.7075, 0.1575, 0.7875, 0.2375, 0.865, 0.315, 0.945, 0.395, 1.0225, 0.4725, 1.1025, 0.5525, 0, 0.63, 0.08, 0.7075, 0.1575, 0.7875, 0.2375, 0.865, 0.315, 0.945, 0.395, 1.0225, 0.4725, 1.1025],
  "SoftwareVersions": "syngo_MR_E11",
  "SpacingBetweenSlices": 2.4,
  "StationName": "AWP67050",
  "TaskName": "RDMmotion",
  "TotalReadoutTime": 0.0504612,
  "TxRefAmp": 237.486,
  "dcmmeta_affine": [
    [-2.374124526977539, -0.07170654833316803, 0.3281621038913727, 103.75586700439453],
    [-0.14026035368442535, 2.3399808406829834, -0.5043755769729614, -73.49224853515625],
    [0.3048858344554901, 0.5181160569190979, 2.323341131210327, -101.17082214355469],
    [0.0, 0.0, 0.0, 1.0]
],
  "dcmmeta_reorient_transform": [
    [0.0, -1.0, 0.0, 87.0],
    [1.0, 0.0, 0.0, 0.0],
    [0.0, 0.0, 1.0, 0.0],
    [0.0, 0.0, 0.0, 1.0]
],
  "dcmmeta_shape": [88, 88, 60, 125],
  "dcmmeta_slice_dim": 2,
  "dcmmeta_version": 0.6,
  "global": {
    "const": {
      "AcquisitionMatrix": [88, 0, 0, 88],
      "AngioFlag": "N",
      "BitsAllocated": 16,
      "BitsStored": 12,
      "BodyPartExamined": "BRAIN",
      "Columns": 704,
      "DeidentificationMethodCodeSequence": [
        {
          "CodeMeaning": "XNAT DicomEdit 6 Script",
          "CodeValue": "3",
          "CodingSchemeDesignator": "XNAT",
          "CodingSchemeVersion": "1.0"}
],
      "EchoNumbers": 1,
      "EchoTime": 33.0,
      "EchoTrainLength": 88,
      "FlipAngle": 62.0,
      "HighBit": 11,
      "ImageOrientationPatient": [0.99015624180712, 0.05849721020437, 0.12715617644734, -0.0299060486995, 0.9759161475964, -0.216086327915],
      "ImagePositionPatient": [-806.66215490714, -894.00033713072, 9.5801947432128],
      "ImageType": [
        "ORIGINAL",
        "PRIMARY",
        "M",
        "ND",
        "MOSAIC"
],
      "ImagedNucleus": "1H",
      "ImagingFrequency": 123.250689,
      "InPlanePhaseEncodingDirection": "COL",
      "MRAcquisitionType": "2D",
      "MagneticFieldStrength": 3.0,
      "Manufacturer": "SIEMENS",
      "ManufacturerModelName": "Prisma_fit",
      "Modality": "MR",
      "NumberOfAverages": 1.0,
      "NumberOfPhaseEncodingSteps": 88,
      "PercentPhaseFieldOfView": 100.0,
      "PercentSampling": 100.0,
      "PerformedProcedureStepStartTime": "084626.598000",
      "PhotometricInterpretation": "MONOCHROME2",
      "PixelBandwidth": 2185.0,
      "PixelRepresentation": 0,
      "PixelSpacing": [2.3977272510529, 2.3977272510529],
      "ProtocolName": "func-bold_task-RDMmotion_run-06",
      "RepetitionTime": 1200.0,
      "Rows": 704,
      "SAR": 0.05008557343571,
      "SamplesPerPixel": 1,
      "ScanOptions": "FS",
      "ScanningSequence": "EP",
      "SequenceName": "*epfid2d1_88",
      "SequenceVariant": "SK",
      "SeriesDescription": "func-bold_task-RDMmotion_run-06",
      "SeriesNumber": 17,
      "SeriesTime": "101657.780000",
      "SliceLocation": -68.307462997709,
      "SliceThickness": 2.4000000953674,
      "SmallestImagePixelValue": 0,
      "SoftwareVersions": "syngo MR E11",
      "SpacingBetweenSlices": 2.3999999131864,
      "SpecificCharacterSet": "ISO_IR 100",
      "StudyID": "1",
      "StudyTime": "084626.370000",
      "TransmitCoilName": "Body",
      "VariableFlipAngleFlag": "N",
      "WindowCenterWidthExplanation": "Algo1",
      "dBdt": 0.0},
    "slices": {}
  },
  "time": {
    "samples": {
      "AcquisitionNumber": [1, 2, 3, 4, 5, 6, 7, 8, 9, 10, 11, 12, 13, 14, 15, 16, 17, 18, 19, 20, 21, 22, 23, 24, 25, 26, 27, 28, 29, 30, 31, 32, 33, 34, 35, 36, 37, 38, 39, 40, 41, 42, 43, 44, 45, 46, 47, 48, 49, 50, 51, 52, 53, 54, 55, 56, 57, 58, 59, 60, 61, 62, 63, 64, 65, 66, 67, 68, 69, 70, 71, 72, 73, 74, 75, 76, 77, 78, 79, 80, 81, 82, 83, 84, 85, 86, 87, 88, 89, 90, 91, 92, 93, 94, 95, 96, 97, 98, 99, 100, 101, 102, 103, 104, 105, 106, 107, 108, 109, 110, 111, 112, 113, 114, 115, 116, 117, 118, 119, 120, 121, 122, 123, 124, 125],
      "AcquisitionTime": ["101618.035000", "101619.235000", "101620.435000", "101621.635000", "101622.835000", "101624.035000", "101625.235000", "101626.435000", "101627.635000", "101628.835000", "101630.035000", "101631.235000", "101632.435000", "101633.635000", "101634.835000", "101636.035000", "101637.235000", "101638.435000", "101639.635000", "101640.835000", "101642.035000", "101643.235000", "101644.435000", "101645.635000", "101646.835000", "101648.035000", "101649.235000", "101650.435000", "101651.635000", "101652.835000", "101654.035000", "101655.235000", "101656.435000", "101657.635000", "101658.835000", "101700.035000", "101701.235000", "101702.435000", "101703.635000", "101704.835000", "101706.035000", "101707.235000", "101708.435000", "101709.635000", "101710.835000", "101712.035000", "101713.235000", "101714.435000", "101715.635000", "101716.835000", "101718.035000", "101719.235000", "101720.435000", "101721.635000", "101722.835000", "101724.035000", "101725.235000", "101726.435000", "101727.635000", "101728.835000", "101730.035000", "101731.235000", "101732.435000", "101733.635000", "101734.835000", "101736.035000", "101737.235000", "101738.435000", "101739.635000", "101740.835000", "101742.035000", "101743.235000", "101744.435000", "101745.635000", "101746.835000", "101748.035000", "101749.235000", "101750.435000", "101751.635000", "101752.835000", "101754.035000", "101755.235000", "101756.435000", "101757.635000", "101758.835000", "101800.035000", "101801.235000", "101802.435000", "101803.635000", "101804.835000", "101806.035000", "101807.235000", "101808.435000", "101809.635000", "101810.835000", "101812.035000", "101813.235000", "101814.435000", "101815.635000", "101816.835000", "101818.035000", "101819.235000", "101820.435000", "101821.635000", "101822.835000", "101824.035000", "101825.235000", "101826.435000", "101827.635000", "101828.835000", "101830.035000", "101831.235000", "101832.435000", "101833.635000", "101834.835000", "101836.035000", "101837.235000", "101838.435000", "101839.635000", "101840.835000", "101842.035000", "101843.235000", "101844.435000", "101845.635000", "101846.835000"],
      "ContentTime": ["101657.784000", "101657.787000", "101657.790000", "101657.793000", "101657.795000", "101657.798000", "101657.801000", "101657.803000", "101657.806000", "101657.808000", "101657.818000", "101657.821000", "101657.823000", "101657.826000", "101657.829000", "101657.832000", "101657.834000", "101657.837000", "101657.839000", "101657.842000", "101657.845000", "101657.847000", "101657.850000", "101657.852000", "101657.855000", "101657.858000", "101657.860000", "101657.865000", "101657.868000", "101657.870000", "101657.873000", "101657.875000", "101717.764000", "101717.767000", "101717.770000", "101717.781000", "101717.784000", "101717.786000", "101717.789000", "101717.791000", "101717.794000", "101717.797000", "101717.799000", "101717.802000", "101717.804000", "101717.807000", "101717.809000", "101717.812000", "101717.815000", "101757.764000", "101757.767000", "101757.770000", "101757.772000", "101757.775000", "101757.778000", "101757.780000", "101757.783000", "101757.785000", "101757.788000", "101757.791000", "101757.793000", "101757.796000", "101757.798000", "101757.801000", "101757.804000", "101757.806000", "101757.809000", "101757.811000", "101757.814000", "101757.817000", "101757.819000", "101757.822000", "101757.831000", "101757.833000", "101757.836000", "101757.838000", "101757.841000", "101757.844000", "101757.846000", "101757.849000", "101757.851000", "101757.854000", "101837.764000", "101837.768000", "101837.770000", "101837.773000", "101837.775000", "101837.778000", "101837.781000", "101837.783000", "101837.786000", "101837.789000", "101837.791000", "101837.794000", "101837.796000", "101837.799000", "101837.801000", "101837.804000", "101837.812000", "101837.815000", "101837.817000", "101837.820000", "101837.823000", "101837.825000", "101837.828000", "101837.830000", "101837.833000", "101837.836000", "101837.838000", "101837.841000", "101837.843000", "101837.846000", "101837.849000", "101837.851000", "101837.854000", "101837.856000", "101848.430000", "101848.433000", "101848.436000", "101848.439000", "101848.441000", "101848.444000", "101848.447000", "101848.449000", "101848.452000"],
      "InstanceCreationTime": ["101657.784000", "101657.787000", "101657.790000", "101657.793000", "101657.795000", "101657.798000", "101657.801000", "101657.803000", "101657.806000", "101657.808000", "101657.818000", "101657.821000", "101657.823000", "101657.826000", "101657.829000", "101657.832000", "101657.834000", "101657.837000", "101657.839000", "101657.842000", "101657.845000", "101657.847000", "101657.850000", "101657.852000", "101657.855000", "101657.858000", "101657.860000", "101657.865000", "101657.868000", "101657.870000", "101657.873000", "101657.875000", "101717.764000", "101717.767000", "101717.770000", "101717.781000", "101717.784000", "101717.786000", "101717.789000", "101717.791000", "101717.794000", "101717.797000", "101717.799000", "101717.802000", "101717.804000", "101717.807000", "101717.809000", "101717.812000", "101717.815000", "101757.764000", "101757.767000", "101757.770000", "101757.772000", "101757.775000", "101757.778000", "101757.780000", "101757.783000", "101757.785000", "101757.788000", "101757.791000", "101757.793000", "101757.796000", "101757.798000", "101757.801000", "101757.804000", "101757.806000", "101757.809000", "101757.811000", "101757.814000", "101757.817000", "101757.819000", "101757.822000", "101757.831000", "101757.833000", "101757.836000", "101757.838000", "101757.841000", "101757.844000", "101757.846000", "101757.849000", "101757.851000", "101757.854000", "101837.764000", "101837.768000", "101837.770000", "101837.773000", "101837.775000", "101837.778000", "101837.781000", "101837.783000", "101837.786000", "101837.789000", "101837.791000", "101837.794000", "101837.796000", "101837.799000", "101837.801000", "101837.804000", "101837.812000", "101837.815000", "101837.817000", "101837.820000", "101837.823000", "101837.825000", "101837.828000", "101837.830000", "101837.833000", "101837.836000", "101837.838000", "101837.841000", "101837.843000", "101837.846000", "101837.849000", "101837.851000", "101837.854000", "101837.856000", "101848.430000", "101848.433000", "101848.436000", "101848.439000", "101848.441000", "101848.444000", "101848.447000", "101848.449000", "101848.452000"],
      "InstanceNumber": [1, 2, 3, 4, 5, 6, 7, 8, 9, 10, 11, 12, 13, 14, 15, 16, 17, 18, 19, 20, 21, 22, 23, 24, 25, 26, 27, 28, 29, 30, 31, 32, 33, 34, 35, 36, 37, 38, 39, 40, 41, 42, 43, 44, 45, 46, 47, 48, 49, 50, 51, 52, 53, 54, 55, 56, 57, 58, 59, 60, 61, 62, 63, 64, 65, 66, 67, 68, 69, 70, 71, 72, 73, 74, 75, 76, 77, 78, 79, 80, 81, 82, 83, 84, 85, 86, 87, 88, 89, 90, 91, 92, 93, 94, 95, 96, 97, 98, 99, 100, 101, 102, 103, 104, 105, 106, 107, 108, 109, 110, 111, 112, 113, 114, 115, 116, 117, 118, 119, 120, 121, 122, 123, 124, 125],
      "LargestImagePixelValue": [1840, 1798, 1789, 1794, 1790, 1799, 1800, 1787, 1788, 1795, 1791, 1772, 1767, 1782, 1775, 1776, 1779, 1791, 1782, 1779, 1768, 1761, 1776, 1773, 1768, 1777, 1772, 1772, 1771, 1776, 1789, 1787, 1784, 1801, 1780, 1794, 1791, 1774, 1773, 1776, 1774, 1772, 1766, 1779, 1778, 1770, 1767, 1789, 1799, 1800, 1796, 1788, 1781, 1779, 1775, 1764, 1793, 1795, 1793, 1790, 1773, 1788, 1791, 1784, 1774, 1795, 1790, 1802, 1783, 1771, 1808, 1790, 1785, 1776, 1781, 1800, 1791, 1788, 1790, 1787, 1775, 1777, 1790, 1764, 1785, 1767, 1765, 1782, 1787, 1797, 1811, 1814, 1810, 1791, 1803, 1799, 1789, 1808, 1797, 1803, 1774, 1778, 1787, 1787, 1802, 1823, 1795, 1785, 1786, 1780, 1766, 1782, 1770, 1760, 1820, 1777, 1777, 1785, 1780, 1786, 1790, 1815, 1829, 1812, 1832],
      "WindowCenter": [578.0, 575.0, 572.0, 572.0, 572.0, 573.0, 573.0, 573.0, 573.0, 573.0, 573.0, 571.0, 570.0, 570.0, 570.0, 571.0, 571.0, 572.0, 571.0, 570.0, 569.0, 568.0, 570.0, 571.0, 570.0, 571.0, 570.0, 569.0, 569.0, 569.0, 569.0, 570.0, 570.0, 571.0, 572.0, 573.0, 573.0, 572.0, 570.0, 569.0, 569.0, 569.0, 569.0, 569.0, 569.0, 570.0, 570.0, 571.0, 572.0, 573.0, 573.0, 573.0, 572.0, 571.0, 570.0, 570.0, 571.0, 572.0, 573.0, 572.0, 571.0, 571.0, 570.0, 570.0, 570.0, 570.0, 571.0, 571.0, 571.0, 573.0, 574.0, 572.0, 571.0, 571.0, 570.0, 570.0, 569.0, 570.0, 570.0, 571.0, 573.0, 573.0, 573.0, 572.0, 571.0, 571.0, 570.0, 571.0, 571.0, 571.0, 572.0, 572.0, 571.0, 572.0, 572.0, 573.0, 574.0, 574.0, 572.0, 571.0, 570.0, 569.0, 569.0, 569.0, 570.0, 571.0, 573.0, 572.0, 572.0, 571.0, 570.0, 570.0, 570.0, 570.0, 573.0, 573.0, 572.0, 572.0, 571.0, 570.0, 570.0, 571.0, 572.0, 572.0, 573.0],
      "WindowWidth": [1228.0, 1222.0, 1217.0, 1217.0, 1217.0, 1218.0, 1219.0, 1218.0, 1219.0, 1219.0, 1217.0, 1215.0, 1212.0, 1211.0, 1212.0, 1214.0, 1214.0, 1216.0, 1214.0, 1212.0, 1210.0, 1209.0, 1212.0, 1214.0, 1213.0, 1214.0, 1212.0, 1211.0, 1210.0, 1209.0, 1211.0, 1212.0, 1213.0, 1214.0, 1217.0, 1218.0, 1219.0, 1216.0, 1213.0, 1211.0, 1209.0, 1209.0, 1209.0, 1210.0, 1211.0, 1212.0, 1213.0, 1215.0, 1216.0, 1219.0, 1219.0, 1219.0, 1216.0, 1213.0, 1212.0, 1212.0, 1213.0, 1217.0, 1218.0, 1216.0, 1215.0, 1214.0, 1213.0, 1212.0, 1212.0, 1213.0, 1215.0, 1215.0, 1216.0, 1218.0, 1220.0, 1217.0, 1215.0, 1214.0, 1212.0, 1212.0, 1210.0, 1212.0, 1213.0, 1215.0, 1218.0, 1220.0, 1220.0, 1217.0, 1216.0, 1214.0, 1213.0, 1214.0, 1214.0, 1215.0, 1216.0, 1216.0, 1215.0, 1216.0, 1216.0, 1218.0, 1220.0, 1220.0, 1217.0, 1215.0, 1212.0, 1211.0, 1209.0, 1209.0, 1212.0, 1215.0, 1218.0, 1217.0, 1216.0, 1215.0, 1213.0, 1213.0, 1212.0, 1213.0, 1218.0, 1218.0, 1217.0, 1216.0, 1214.0, 1213.0, 1213.0, 1214.0, 1215.0, 1216.0, 1218.0]
    },
    "slices": {}
  }
}