{
  "AcquisitionMatrixPE": 88,
  "AcquisitionNumber": 1,
  "AcquisitionTime": "10:19:39.225000",
  "BandwidthPerPixelPhaseEncode": 19.592,
  "BaseResolution": 88,
  "BodyPartExamined": "BRAIN",
  "ConsistencyInfo": "N4_VE11C_LATEST_20160120",
  "ConversionSoftware": "dcm2niix",
  "ConversionSoftwareVersion": "v1.0.20190902",
  "DerivedVendorReportedEchoSpacing": 0.000580014,
  "DeviceSerialNumber": "67050",
  "DwellTime": 2.6e-06,
  "EchoTime": 0.033,
  "EchoTrainLength": 88,
  "EffectiveEchoSpacing": 0.000580014,
  "FlipAngle": 62,
  "ImageOrientationPatientDICOM": [0.990156, 0.0584972, 0.127156, -0.029906, 0.975916, -0.216086],
  "ImageType": [
    "ORIGINAL",
    "PRIMARY",
    "M",
    "ND",
    "MOSAIC"
],
  "ImagingFrequency": 123.251,
  "InPlanePhaseEncodingDirectionDICOM": "COL",
  "InstitutionAddress": "Olive_Street_60_Providence_RI_US_02912",
  "InstitutionName": "BROWN_UNIVERSITY_MRF",
  "InstitutionalDepartmentName": "Department",
  "MRAcquisitionType": "2D",
  "MagneticFieldStrength": 3,
  "Manufacturer": "Siemens",
  "ManufacturersModelName": "Prisma_fit",
  "Modality": "MR",
  "MultibandAccelerationFactor": 4,
  "PartialFourier": 1,
  "PatientPosition": "HFS",
  "PercentPhaseFOV": 100,
  "PhaseEncodingDirection": "j-",
  "PhaseEncodingSteps": 88,
  "PhaseResolution": 1,
  "PixelBandwidth": 2185,
  "ProcedureStepDescription": "ASHENHAV_1222",
  "ProtocolName": "func-bold_task-RDMcolor_run-06",
  "PulseSequenceDetails": "%SiemensSeq%_ep2d_bold",
  "ReceiveCoilActiveElements": "HC1-7;NC1",
  "ReceiveCoilName": "HeadNeck_64",
  "ReconMatrixPE": 88,
  "RefLinesPE": 8,
  "RepetitionTime": 1.2,
  "SAR": 0.0505992,
  "ScanOptions": "FS",
  "ScanningSequence": "EP",
  "SequenceName": "_epfid2d1_88",
  "SequenceVariant": "SK",
  "SeriesDescription": "func-bold_task-RDMcolor_run-06",
  "SeriesNumber": 18,
  "ShimSetting": [1784, -9082, 4397, 354, -52, -216, -82, 34],
  "SliceThickness": 2.4,
  "SliceTiming": [0.55, 0, 0.63, 0.08, 0.7075, 0.1575, 0.7875, 0.2375, 0.865, 0.315, 0.945, 0.395, 1.0225, 0.4725, 1.1025, 0.55, 0, 0.63, 0.08, 0.7075, 0.1575, 0.7875, 0.2375, 0.865, 0.315, 0.945, 0.395, 1.0225, 0.4725, 1.1025, 0.55, 0, 0.63, 0.08, 0.7075, 0.1575, 0.7875, 0.2375, 0.865, 0.315, 0.945, 0.395, 1.0225, 0.4725, 1.1025, 0.55, 0, 0.63, 0.08, 0.7075, 0.1575, 0.7875, 0.2375, 0.865, 0.315, 0.945, 0.395, 1.0225, 0.4725, 1.1025],
  "SoftwareVersions": "syngo_MR_E11",
  "SpacingBetweenSlices": 2.4,
  "StationName": "AWP67050",
  "TaskName": "RDMcolor",
  "TotalReadoutTime": 0.0504612,
  "TxRefAmp": 237.486,
  "dcmmeta_affine": [
    [-2.374124526977539, -0.07170654833316803, 0.3281621038913727, 103.75586700439453],
    [-0.14026035368442535, 2.3399808406829834, -0.5043755769729614, -73.49224853515625],
    [0.3048858344554901, 0.5181160569190979, 2.323341131210327, -101.17082214355469],
    [0.0, 0.0, 0.0, 1.0]
],
  "dcmmeta_reorient_transform": [
    [0.0, -1.0, 0.0, 87.0],
    [1.0, 0.0, 0.0, 0.0],
    [0.0, 0.0, 1.0, 0.0],
    [0.0, 0.0, 0.0, 1.0]
],
  "dcmmeta_shape": [88, 88, 60, 392],
  "dcmmeta_slice_dim": 2,
  "dcmmeta_version": 0.6,
  "global": {
    "const": {
      "AcquisitionMatrix": [88, 0, 0, 88],
      "AngioFlag": "N",
      "BitsAllocated": 16,
      "BitsStored": 12,
      "BodyPartExamined": "BRAIN",
      "Columns": 704,
      "DeidentificationMethodCodeSequence": [
        {
          "CodeMeaning": "XNAT DicomEdit 6 Script",
          "CodeValue": "3",
          "CodingSchemeDesignator": "XNAT",
          "CodingSchemeVersion": "1.0"}
],
      "EchoNumbers": 1,
      "EchoTime": 33.0,
      "EchoTrainLength": 88,
      "FlipAngle": 62.0,
      "HighBit": 11,
      "ImageOrientationPatient": [0.99015624180712, 0.05849721020437, 0.12715617644734, -0.0299060486995, 0.9759161475964, -0.216086327915],
      "ImagePositionPatient": [-806.66215490714, -894.00033713072, 9.5801947432128],
      "ImageType": [
        "ORIGINAL",
        "PRIMARY",
        "M",
        "ND",
        "MOSAIC"
],
      "ImagedNucleus": "1H",
      "ImagingFrequency": 123.250689,
      "InPlanePhaseEncodingDirection": "COL",
      "MRAcquisitionType": "2D",
      "MagneticFieldStrength": 3.0,
      "Manufacturer": "SIEMENS",
      "ManufacturerModelName": "Prisma_fit",
      "Modality": "MR",
      "NumberOfAverages": 1.0,
      "NumberOfPhaseEncodingSteps": 88,
      "PercentPhaseFieldOfView": 100.0,
      "PercentSampling": 100.0,
      "PerformedProcedureStepStartTime": "084626.598000",
      "PhotometricInterpretation": "MONOCHROME2",
      "PixelBandwidth": 2185.0,
      "PixelRepresentation": 0,
      "PixelSpacing": [2.3977272510529, 2.3977272510529],
      "ProtocolName": "func-bold_task-RDMcolor_run-06",
      "RepetitionTime": 1200.0,
      "Rows": 704,
      "SAR": 0.05059917590231,
      "SamplesPerPixel": 1,
      "ScanOptions": "FS",
      "ScanningSequence": "EP",
      "SequenceName": "*epfid2d1_88",
      "SequenceVariant": "SK",
      "SeriesDescription": "func-bold_task-RDMcolor_run-06",
      "SeriesNumber": 18,
      "SeriesTime": "102011.916000",
      "SliceLocation": -68.307462997709,
      "SliceThickness": 2.4000000953674,
      "SmallestImagePixelValue": 0,
      "SoftwareVersions": "syngo MR E11",
      "SpacingBetweenSlices": 2.3999999131864,
      "SpecificCharacterSet": "ISO_IR 100",
      "StudyID": "1",
      "StudyTime": "084626.370000",
      "TransmitCoilName": "Body",
      "VariableFlipAngleFlag": "N",
      "WindowCenterWidthExplanation": "Algo1",
      "dBdt": 0.0},
    "slices": {}
  },
  "time": {
    "samples": {
      "AcquisitionNumber": [1, 2, 3, 4, 5, 6, 7, 8, 9, 10, 11, 12, 13, 14, 15, 16, 17, 18, 19, 20, 21, 22, 23, 24, 25, 26, 27, 28, 29, 30, 31, 32, 33, 34, 35, 36, 37, 38, 39, 40, 41, 42, 43, 44, 45, 46, 47, 48, 49, 50, 51, 52, 53, 54, 55, 56, 57, 58, 59, 60, 61, 62, 63, 64, 65, 66, 67, 68, 69, 70, 71, 72, 73, 74, 75, 76, 77, 78, 79, 80, 81, 82, 83, 84, 85, 86, 87, 88, 89, 90, 91, 92, 93, 94, 95, 96, 97, 98, 99, 100, 101, 102, 103, 104, 105, 106, 107, 108, 109, 110, 111, 112, 113, 114, 115, 116, 117, 118, 119, 120, 121, 122, 123, 124, 125, 126, 127, 128, 129, 130, 131, 132, 133, 134, 135, 136, 137, 138, 139, 140, 141, 142, 143, 144, 145, 146, 147, 148, 149, 150, 151, 152, 153, 154, 155, 156, 157, 158, 159, 160, 161, 162, 163, 164, 165, 166, 167, 168, 169, 170, 171, 172, 173, 174, 175, 176, 177, 178, 179, 180, 181, 182, 183, 184, 185, 186, 187, 188, 189, 190, 191, 192, 193, 194, 195, 196, 197, 198, 199, 200, 201, 202, 203, 204, 205, 206, 207, 208, 209, 210, 211, 212, 213, 214, 215, 216, 217, 218, 219, 220, 221, 222, 223, 224, 225, 226, 227, 228, 229, 230, 231, 232, 233, 234, 235, 236, 237, 238, 239, 240, 241, 242, 243, 244, 245, 246, 247, 248, 249, 250, 251, 252, 253, 254, 255, 256, 257, 258, 259, 260, 261, 262, 263, 264, 265, 266, 267, 268, 269, 270, 271, 272, 273, 274, 275, 276, 277, 278, 279, 280, 281, 282, 283, 284, 285, 286, 287, 288, 289, 290, 291, 292, 293, 294, 295, 296, 297, 298, 299, 300, 301, 302, 303, 304, 305, 306, 307, 308, 309, 310, 311, 312, 313, 314, 315, 316, 317, 318, 319, 320, 321, 322, 323, 324, 325, 326, 327, 328, 329, 330, 331, 332, 333, 334, 335, 336, 337, 338, 339, 340, 341, 342, 343, 344, 345, 346, 347, 348, 349, 350, 351, 352, 353, 354, 355, 356, 357, 358, 359, 360, 361, 362, 363, 364, 365, 366, 367, 368, 369, 370, 371, 372, 373, 374, 375, 376, 377, 378, 379, 380, 381, 382, 383, 384, 385, 386, 387, 388, 389, 390, 391, 392],
      "AcquisitionTime": ["101939.225000", "101940.425000", "101941.625000", "101942.825000", "101944.025000", "101945.225000", "101946.425000", "101947.625000", "101948.825000", "101950.025000", "101951.225000", "101952.425000", "101953.625000", "101954.825000", "101956.025000", "101957.225000", "101958.425000", "101959.625000", "102000.825000", "102002.025000", "102003.225000", "102004.425000", "102005.625000", "102006.825000", "102008.025000", "102009.225000", "102010.425000", "102011.625000", "102012.825000", "102014.025000", "102015.225000", "102016.425000", "102017.625000", "102018.825000", "102020.025000", "102021.225000", "102022.425000", "102023.625000", "102024.825000", "102026.025000", "102027.225000", "102028.425000", "102029.625000", "102030.825000", "102032.025000", "102033.225000", "102034.425000", "102035.625000", "102036.825000", "102038.025000", "102039.225000", "102040.425000", "102041.625000", "102042.825000", "102044.025000", "102045.225000", "102046.425000", "102047.625000", "102048.825000", "102050.025000", "102051.225000", "102052.425000", "102053.625000", "102054.825000", "102056.025000", "102057.225000", "102058.425000", "102059.625000", "102100.825000", "102102.025000", "102103.225000", "102104.425000", "102105.625000", "102106.825000", "102108.025000", "102109.225000", "102110.425000", "102111.625000", "102112.825000", "102114.025000", "102115.225000", "102116.425000", "102117.625000", "102118.825000", "102120.025000", "102121.225000", "102122.425000", "102123.625000", "102124.825000", "102126.025000", "102127.225000", "102128.425000", "102129.625000", "102130.825000", "102132.025000", "102133.225000", "102134.425000", "102135.625000", "102136.825000", "102138.025000", "102139.225000", "102140.425000", "102141.625000", "102142.825000", "102144.025000", "102145.225000", "102146.425000", "102147.625000", "102148.825000", "102150.025000", "102151.225000", "102152.425000", "102153.625000", "102154.825000", "102156.025000", "102157.225000", "102158.425000", "102159.625000", "102200.825000", "102202.025000", "102203.225000", "102204.425000", "102205.625000", "102206.825000", "102208.025000", "102209.225000", "102210.425000", "102211.625000", "102212.825000", "102214.025000", "102215.225000", "102216.425000", "102217.625000", "102218.825000", "102220.025000", "102221.225000", "102222.425000", "102223.625000", "102224.825000", "102226.025000", "102227.225000", "102228.425000", "102229.625000", "102230.825000", "102232.025000", "102233.225000", "102234.425000", "102235.625000", "102236.825000", "102238.025000", "102239.225000", "102240.425000", "102241.625000", "102242.825000", "102244.025000", "102245.225000", "102246.425000", "102247.625000", "102248.825000", "102250.025000", "102251.225000", "102252.425000", "102253.625000", "102254.825000", "102256.025000", "102257.225000", "102258.425000", "102259.625000", "102300.825000", "102302.025000", "102303.225000", "102304.425000", "102305.625000", "102306.825000", "102308.025000", "102309.225000", "102310.425000", "102311.625000", "102312.825000", "102314.025000", "102315.225000", "102316.425000", "102317.625000", "102318.825000", "102320.025000", "102321.225000", "102322.425000", "102323.625000", "102324.825000", "102326.025000", "102327.225000", "102328.425000", "102329.625000", "102330.825000", "102332.025000", "102333.225000", "102334.425000", "102335.625000", "102336.825000", "102338.025000", "102339.225000", "102340.425000", "102341.625000", "102342.825000", "102344.025000", "102345.225000", "102346.425000", "102347.625000", "102348.825000", "102350.025000", "102351.225000", "102352.425000", "102353.625000", "102354.825000", "102356.025000", "102357.225000", "102358.425000", "102359.625000", "102400.825000", "102402.025000", "102403.225000", "102404.425000", "102405.625000", "102406.825000", "102408.025000", "102409.225000", "102410.425000", "102411.625000", "102412.825000", "102414.025000", "102415.225000", "102416.425000", "102417.625000", "102418.825000", "102420.025000", "102421.225000", "102422.425000", "102423.625000", "102424.825000", "102426.025000", "102427.225000", "102428.425000", "102429.625000", "102430.825000", "102432.025000", "102433.225000", "102434.425000", "102435.625000", "102436.825000", "102438.025000", "102439.225000", "102440.425000", "102441.625000", "102442.825000", "102444.025000", "102445.225000", "102446.425000", "102447.625000", "102448.825000", "102450.025000", "102451.225000", "102452.425000", "102453.625000", "102454.825000", "102456.025000", "102457.225000", "102458.425000", "102459.625000", "102500.825000", "102502.025000", "102503.225000", "102504.425000", "102505.625000", "102506.825000", "102508.025000", "102509.225000", "102510.425000", "102511.625000", "102512.825000", "102514.025000", "102515.225000", "102516.425000", "102517.625000", "102518.825000", "102520.025000", "102521.225000", "102522.425000", "102523.625000", "102524.825000", "102526.025000", "102527.225000", "102528.425000", "102529.625000", "102530.825000", "102532.025000", "102533.225000", "102534.425000", "102535.625000", "102536.825000", "102538.025000", "102539.225000", "102540.425000", "102541.625000", "102542.825000", "102544.025000", "102545.225000", "102546.425000", "102547.625000", "102548.825000", "102550.025000", "102551.225000", "102552.425000", "102553.625000", "102554.825000", "102556.025000", "102557.225000", "102558.425000", "102559.625000", "102600.825000", "102602.025000", "102603.225000", "102604.425000", "102605.625000", "102606.825000", "102608.025000", "102609.225000", "102610.425000", "102611.625000", "102612.825000", "102614.025000", "102615.225000", "102616.425000", "102617.625000", "102618.825000", "102620.025000", "102621.225000", "102622.425000", "102623.625000", "102624.825000", "102626.025000", "102627.225000", "102628.425000", "102629.625000", "102630.825000", "102632.025000", "102633.225000", "102634.425000", "102635.625000", "102636.825000", "102638.025000", "102639.225000", "102640.425000", "102641.625000", "102642.825000", "102644.025000", "102645.225000", "102646.425000", "102647.625000", "102648.825000", "102650.025000", "102651.225000", "102652.425000", "102653.625000", "102654.825000", "102656.025000", "102657.225000", "102658.425000", "102659.625000", "102700.825000", "102702.025000", "102703.225000", "102704.425000", "102705.625000", "102706.825000", "102708.025000", "102709.225000", "102710.425000", "102711.625000", "102712.825000", "102714.025000", "102715.225000", "102716.425000", "102717.625000", "102718.825000", "102720.025000", "102721.225000", "102722.425000", "102723.625000", "102724.825000", "102726.025000", "102727.225000", "102728.425000"],
      "ContentTime": ["102011.920000", "102011.934000", "102011.936000", "102011.939000", "102011.945000", "102011.948000", "102011.950000", "102011.953000", "102011.955000", "102011.958000", "102011.960000", "102011.963000", "102011.966000", "102011.968000", "102011.971000", "102011.973000", "102011.976000", "102011.984000", "102011.986000", "102011.989000", "102011.991000", "102011.994000", "102011.996000", "102012.000000", "102012.003000", "102012.005000", "102051.916000", "102051.919000", "102051.921000", "102051.924000", "102051.927000", "102051.929000", "102051.932000", "102051.934000", "102051.937000", "102051.940000", "102051.942000", "102051.945000", "102051.947000", "102051.950000", "102051.953000", "102051.955000", "102051.963000", "102051.966000", "102051.968000", "102051.971000", "102051.983000", "102051.985000", "102051.988000", "102051.991000", "102051.993000", "102051.996000", "102051.998000", "102052.002000", "102052.005000", "102052.007000", "102052.010000", "102052.012000", "102052.015000", "102131.915000", "102131.917000", "102131.920000", "102131.923000", "102131.925000", "102131.928000", "102131.944000", "102131.946000", "102131.949000", "102131.951000", "102131.954000", "102131.956000", "102131.959000", "102131.962000", "102131.964000", "102131.967000", "102131.969000", "102131.972000", "102131.974000", "102131.977000", "102131.980000", "102131.982000", "102131.985000", "102131.987000", "102131.990000", "102131.992000", "102131.995000", "102131.997000", "102132.001000", "102132.004000", "102132.006000", "102132.009000", "102132.011000", "102132.014000", "102211.914000", "102211.927000", "102211.929000", "102211.932000", "102211.935000", "102211.937000", "102211.940000", "102211.942000", "102211.945000", "102211.948000", "102211.950000", "102211.953000", "102211.955000", "102211.958000", "102211.961000", "102211.963000", "102211.966000", "102211.968000", "102211.971000", "102211.973000", "102211.977000", "102211.980000", "102211.983000", "102211.985000", "102211.988000", "102211.991000", "102211.993000", "102211.996000", "102212.000000", "102212.002000", "102212.005000", "102212.007000", "102212.010000", "102251.916000", "102251.919000", "102251.921000", "102251.924000", "102251.927000", "102251.929000", "102251.932000", "102251.934000", "102251.937000", "102251.940000", "102251.942000", "102251.945000", "102251.947000", "102251.950000", "102251.953000", "102251.956000", "102251.959000", "102251.962000", "102251.965000", "102251.967000", "102251.970000", "102251.973000", "102251.975000", "102251.978000", "102251.981000", "102251.983000", "102251.986000", "102251.988000", "102251.991000", "102251.993000", "102251.996000", "102252.000000", "102252.002000", "102331.914000", "102331.926000", "102331.928000", "102331.931000", "102331.933000", "102331.936000", "102331.938000", "102331.941000", "102331.943000", "102331.946000", "102331.949000", "102331.951000", "102331.954000", "102331.956000", "102331.959000", "102331.962000", "102331.964000", "102331.967000", "102331.969000", "102331.972000", "102331.974000", "102331.977000", "102331.980000", "102331.982000", "102331.985000", "102331.988000", "102331.990000", "102331.993000", "102331.996000", "102331.998000", "102332.002000", "102332.004000", "102332.007000", "102332.010000", "102411.914000", "102411.918000", "102411.920000", "102411.923000", "102411.927000", "102411.929000", "102411.932000", "102411.934000", "102411.937000", "102411.940000", "102411.942000", "102411.945000", "102411.948000", "102411.950000", "102411.953000", "102411.955000", "102411.958000", "102411.961000", "102411.963000", "102411.966000", "102411.968000", "102411.971000", "102411.973000", "102411.976000", "102411.979000", "102411.981000", "102411.984000", "102411.987000", "102411.989000", "102411.998000", "102412.001000", "102412.004000", "102412.006000", "102451.916000", "102451.918000", "102451.921000", "102451.932000", "102451.942000", "102451.944000", "102451.947000", "102451.949000", "102451.952000", "102451.955000", "102451.957000", "102451.960000", "102451.971000", "102451.973000", "102451.976000", "102451.979000", "102451.981000", "102451.984000", "102451.987000", "102451.989000", "102451.992000", "102451.994000", "102451.997000", "102452.001000", "102452.003000", "102452.006000", "102452.008000", "102452.011000", "102452.013000", "102452.016000", "102452.019000", "102452.021000", "102452.024000", "102452.027000", "102531.915000", "102531.918000", "102531.938000", "102531.941000", "102531.944000", "102531.946000", "102531.949000", "102531.951000", "102531.954000", "102531.957000", "102531.959000", "102531.962000", "102531.965000", "102531.967000", "102531.970000", "102531.972000", "102531.975000", "102531.978000", "102531.980000", "102531.983000", "102531.985000", "102531.988000", "102531.990000", "102531.993000", "102531.996000", "102531.998000", "102532.002000", "102532.005000", "102532.007000", "102532.010000", "102532.012000", "102532.015000", "102532.018000", "102611.915000", "102611.918000", "102611.920000", "102611.923000", "102611.926000", "102611.929000", "102611.931000", "102611.934000", "102611.937000", "102611.939000", "102611.942000", "102611.944000", "102611.947000", "102611.950000", "102611.952000", "102611.955000", "102611.958000", "102611.960000", "102611.963000", "102611.965000", "102611.968000", "102611.971000", "102611.973000", "102611.976000", "102611.979000", "102611.981000", "102611.984000", "102611.986000", "102611.989000", "102611.992000", "102611.994000", "102611.997000", "102612.000000", "102651.915000", "102651.918000", "102651.921000", "102651.924000", "102651.927000", "102651.930000", "102651.932000", "102651.935000", "102651.938000", "102651.940000", "102651.943000", "102651.945000", "102651.948000", "102651.951000", "102651.953000", "102651.956000", "102651.959000", "102651.961000", "102651.964000", "102651.966000", "102651.969000", "102651.972000", "102651.974000", "102651.977000", "102651.979000", "102651.982000", "102651.985000", "102651.987000", "102651.990000", "102651.992000", "102651.995000", "102651.997000", "102652.000000", "102730.358000", "102730.361000", "102730.364000", "102730.367000", "102730.369000", "102730.372000", "102730.378000", "102730.381000", "102730.384000", "102730.387000", "102730.389000", "102730.392000", "102730.395000", "102730.397000", "102730.400000", "102730.402000", "102730.405000", "102730.408000", "102730.410000", "102730.413000", "102730.416000", "102730.418000", "102730.421000", "102730.423000", "102730.426000", "102730.429000", "102730.431000", "102730.434000", "102730.437000", "102730.439000", "102730.442000", "102730.445000", "102730.452000"],
      "InstanceCreationTime": ["102011.920000", "102011.934000", "102011.936000", "102011.939000", "102011.945000", "102011.948000", "102011.950000", "102011.953000", "102011.955000", "102011.958000", "102011.960000", "102011.963000", "102011.966000", "102011.968000", "102011.971000", "102011.973000", "102011.976000", "102011.984000", "102011.986000", "102011.989000", "102011.991000", "102011.994000", "102011.996000", "102012.000000", "102012.003000", "102012.005000", "102051.916000", "102051.919000", "102051.921000", "102051.924000", "102051.927000", "102051.929000", "102051.932000", "102051.934000", "102051.937000", "102051.940000", "102051.942000", "102051.945000", "102051.947000", "102051.950000", "102051.953000", "102051.955000", "102051.963000", "102051.966000", "102051.968000", "102051.971000", "102051.983000", "102051.985000", "102051.988000", "102051.991000", "102051.993000", "102051.996000", "102051.998000", "102052.002000", "102052.005000", "102052.007000", "102052.010000", "102052.012000", "102052.015000", "102131.915000", "102131.917000", "102131.920000", "102131.923000", "102131.925000", "102131.928000", "102131.944000", "102131.946000", "102131.949000", "102131.951000", "102131.954000", "102131.956000", "102131.959000", "102131.962000", "102131.964000", "102131.967000", "102131.969000", "102131.972000", "102131.974000", "102131.977000", "102131.980000", "102131.982000", "102131.985000", "102131.987000", "102131.990000", "102131.992000", "102131.995000", "102131.997000", "102132.001000", "102132.004000", "102132.006000", "102132.009000", "102132.011000", "102132.014000", "102211.914000", "102211.927000", "102211.929000", "102211.932000", "102211.935000", "102211.937000", "102211.940000", "102211.942000", "102211.945000", "102211.948000", "102211.950000", "102211.953000", "102211.955000", "102211.958000", "102211.961000", "102211.963000", "102211.966000", "102211.968000", "102211.971000", "102211.973000", "102211.977000", "102211.980000", "102211.983000", "102211.985000", "102211.988000", "102211.991000", "102211.993000", "102211.996000", "102212.000000", "102212.002000", "102212.005000", "102212.007000", "102212.010000", "102251.916000", "102251.919000", "102251.921000", "102251.924000", "102251.927000", "102251.929000", "102251.932000", "102251.934000", "102251.937000", "102251.940000", "102251.942000", "102251.945000", "102251.947000", "102251.950000", "102251.953000", "102251.956000", "102251.959000", "102251.962000", "102251.965000", "102251.967000", "102251.970000", "102251.973000", "102251.975000", "102251.978000", "102251.981000", "102251.983000", "102251.986000", "102251.988000", "102251.991000", "102251.993000", "102251.996000", "102252.000000", "102252.002000", "102331.914000", "102331.926000", "102331.928000", "102331.931000", "102331.933000", "102331.936000", "102331.938000", "102331.941000", "102331.943000", "102331.946000", "102331.949000", "102331.951000", "102331.954000", "102331.956000", "102331.959000", "102331.962000", "102331.964000", "102331.967000", "102331.969000", "102331.972000", "102331.974000", "102331.977000", "102331.980000", "102331.982000", "102331.985000", "102331.988000", "102331.990000", "102331.993000", "102331.996000", "102331.998000", "102332.002000", "102332.004000", "102332.007000", "102332.010000", "102411.914000", "102411.918000", "102411.920000", "102411.923000", "102411.927000", "102411.929000", "102411.932000", "102411.934000", "102411.937000", "102411.940000", "102411.942000", "102411.945000", "102411.948000", "102411.950000", "102411.953000", "102411.955000", "102411.958000", "102411.961000", "102411.963000", "102411.966000", "102411.968000", "102411.971000", "102411.973000", "102411.976000", "102411.979000", "102411.981000", "102411.984000", "102411.987000", "102411.989000", "102411.998000", "102412.001000", "102412.004000", "102412.006000", "102451.916000", "102451.918000", "102451.921000", "102451.932000", "102451.942000", "102451.944000", "102451.947000", "102451.949000", "102451.952000", "102451.955000", "102451.957000", "102451.960000", "102451.971000", "102451.973000", "102451.976000", "102451.979000", "102451.981000", "102451.984000", "102451.987000", "102451.989000", "102451.992000", "102451.994000", "102451.997000", "102452.001000", "102452.003000", "102452.006000", "102452.008000", "102452.011000", "102452.013000", "102452.016000", "102452.019000", "102452.021000", "102452.024000", "102452.027000", "102531.915000", "102531.918000", "102531.938000", "102531.941000", "102531.944000", "102531.946000", "102531.949000", "102531.951000", "102531.954000", "102531.957000", "102531.959000", "102531.962000", "102531.965000", "102531.967000", "102531.970000", "102531.972000", "102531.975000", "102531.978000", "102531.980000", "102531.983000", "102531.985000", "102531.988000", "102531.990000", "102531.993000", "102531.996000", "102531.998000", "102532.002000", "102532.005000", "102532.007000", "102532.010000", "102532.012000", "102532.015000", "102532.018000", "102611.915000", "102611.918000", "102611.920000", "102611.923000", "102611.926000", "102611.929000", "102611.931000", "102611.934000", "102611.937000", "102611.939000", "102611.942000", "102611.944000", "102611.947000", "102611.950000", "102611.952000", "102611.955000", "102611.958000", "102611.960000", "102611.963000", "102611.965000", "102611.968000", "102611.971000", "102611.973000", "102611.976000", "102611.979000", "102611.981000", "102611.984000", "102611.986000", "102611.989000", "102611.992000", "102611.994000", "102611.997000", "102612.000000", "102651.915000", "102651.918000", "102651.921000", "102651.924000", "102651.927000", "102651.930000", "102651.932000", "102651.935000", "102651.938000", "102651.940000", "102651.943000", "102651.945000", "102651.948000", "102651.951000", "102651.953000", "102651.956000", "102651.959000", "102651.961000", "102651.964000", "102651.966000", "102651.969000", "102651.972000", "102651.974000", "102651.977000", "102651.979000", "102651.982000", "102651.985000", "102651.987000", "102651.990000", "102651.992000", "102651.995000", "102651.997000", "102652.000000", "102730.358000", "102730.361000", "102730.364000", "102730.367000", "102730.369000", "102730.372000", "102730.378000", "102730.381000", "102730.384000", "102730.387000", "102730.389000", "102730.392000", "102730.395000", "102730.397000", "102730.400000", "102730.402000", "102730.405000", "102730.408000", "102730.410000", "102730.413000", "102730.416000", "102730.418000", "102730.421000", "102730.423000", "102730.426000", "102730.429000", "102730.431000", "102730.434000", "102730.437000", "102730.439000", "102730.442000", "102730.445000", "102730.452000"],
      "InstanceNumber": [1, 2, 3, 4, 5, 6, 7, 8, 9, 10, 11, 12, 13, 14, 15, 16, 17, 18, 19, 20, 21, 22, 23, 24, 25, 26, 27, 28, 29, 30, 31, 32, 33, 34, 35, 36, 37, 38, 39, 40, 41, 42, 43, 44, 45, 46, 47, 48, 49, 50, 51, 52, 53, 54, 55, 56, 57, 58, 59, 60, 61, 62, 63, 64, 65, 66, 67, 68, 69, 70, 71, 72, 73, 74, 75, 76, 77, 78, 79, 80, 81, 82, 83, 84, 85, 86, 87, 88, 89, 90, 91, 92, 93, 94, 95, 96, 97, 98, 99, 100, 101, 102, 103, 104, 105, 106, 107, 108, 109, 110, 111, 112, 113, 114, 115, 116, 117, 118, 119, 120, 121, 122, 123, 124, 125, 126, 127, 128, 129, 130, 131, 132, 133, 134, 135, 136, 137, 138, 139, 140, 141, 142, 143, 144, 145, 146, 147, 148, 149, 150, 151, 152, 153, 154, 155, 156, 157, 158, 159, 160, 161, 162, 163, 164, 165, 166, 167, 168, 169, 170, 171, 172, 173, 174, 175, 176, 177, 178, 179, 180, 181, 182, 183, 184, 185, 186, 187, 188, 189, 190, 191, 192, 193, 194, 195, 196, 197, 198, 199, 200, 201, 202, 203, 204, 205, 206, 207, 208, 209, 210, 211, 212, 213, 214, 215, 216, 217, 218, 219, 220, 221, 222, 223, 224, 225, 226, 227, 228, 229, 230, 231, 232, 233, 234, 235, 236, 237, 238, 239, 240, 241, 242, 243, 244, 245, 246, 247, 248, 249, 250, 251, 252, 253, 254, 255, 256, 257, 258, 259, 260, 261, 262, 263, 264, 265, 266, 267, 268, 269, 270, 271, 272, 273, 274, 275, 276, 277, 278, 279, 280, 281, 282, 283, 284, 285, 286, 287, 288, 289, 290, 291, 292, 293, 294, 295, 296, 297, 298, 299, 300, 301, 302, 303, 304, 305, 306, 307, 308, 309, 310, 311, 312, 313, 314, 315, 316, 317, 318, 319, 320, 321, 322, 323, 324, 325, 326, 327, 328, 329, 330, 331, 332, 333, 334, 335, 336, 337, 338, 339, 340, 341, 342, 343, 344, 345, 346, 347, 348, 349, 350, 351, 352, 353, 354, 355, 356, 357, 358, 359, 360, 361, 362, 363, 364, 365, 366, 367, 368, 369, 370, 371, 372, 373, 374, 375, 376, 377, 378, 379, 380, 381, 382, 383, 384, 385, 386, 387, 388, 389, 390, 391, 392],
