{
  "AcquisitionMatrixPE": 88,
  "AcquisitionNumber": 1,
  "AcquisitionTime": "10:29:23.032500",
  "BandwidthPerPixelPhaseEncode": 19.592,
  "BaseResolution": 88,
  "BodyPartExamined": "BRAIN",
  "ConsistencyInfo": "N4_VE11C_LATEST_20160120",
  "ConversionSoftware": "dcm2niix",
  "ConversionSoftwareVersion": "v1.0.20190902",
  "DerivedVendorReportedEchoSpacing": 0.000580014,
  "DeviceSerialNumber": "67050",
  "DwellTime": 2.6e-06,
  "EchoTime": 0.033,
  "EchoTrainLength": 88,
  "EffectiveEchoSpacing": 0.000580014,
  "FlipAngle": 62,
  "ImageOrientationPatientDICOM": [0.990156, 0.0584972, 0.127156, -0.029906, 0.975916, -0.216086],
  "ImageType": [
    "ORIGINAL",
    "PRIMARY",
    "M",
    "ND",
    "MOSAIC"
],
  "ImagingFrequency": 123.251,
  "InPlanePhaseEncodingDirectionDICOM": "COL",
  "InstitutionAddress": "Olive_Street_60_Providence_RI_US_02912",
  "InstitutionName": "BROWN_UNIVERSITY_MRF",
  "InstitutionalDepartmentName": "Department",
  "MRAcquisitionType": "2D",
  "MagneticFieldStrength": 3,
  "Manufacturer": "Siemens",
  "ManufacturersModelName": "Prisma_fit",
  "Modality": "MR",
  "MultibandAccelerationFactor": 4,
  "PartialFourier": 1,
  "PatientPosition": "HFS",
  "PercentPhaseFOV": 100,
  "PhaseEncodingDirection": "j-",
  "PhaseEncodingSteps": 88,
  "PhaseResolution": 1,
  "PixelBandwidth": 2185,
  "ProcedureStepDescription": "ASHENHAV_1222",
  "ProtocolName": "func-bold_task-RDMlocalizer_run-01",
  "PulseSequenceDetails": "%SiemensSeq%_ep2d_bold",
  "ReceiveCoilActiveElements": "HC1-7;NC1",
  "ReceiveCoilName": "HeadNeck_64",
  "ReconMatrixPE": 88,
  "RefLinesPE": 8,
  "RepetitionTime": 1.2,
  "SAR": 0.0503517,
  "ScanOptions": "FS",
  "ScanningSequence": "EP",
  "SequenceName": "_epfid2d1_88",
  "SequenceVariant": "SK",
  "SeriesDescription": "func-bold_task-RDMlocalizer_run-01",
  "SeriesNumber": 19,
  "ShimSetting": [1784, -9082, 4397, 354, -52, -216, -82, 34],
  "SliceThickness": 2.4,
  "SliceTiming": [0.55, 0, 0.63, 0.08, 0.7075, 0.1575, 0.7875, 0.2375, 0.865, 0.315, 0.945, 0.3925, 1.0225, 0.4725, 1.1025, 0.55, 0, 0.63, 0.08, 0.7075, 0.1575, 0.7875, 0.2375, 0.865, 0.315, 0.945, 0.3925, 1.0225, 0.4725, 1.1025, 0.55, 0, 0.63, 0.08, 0.7075, 0.1575, 0.7875, 0.2375, 0.865, 0.315, 0.945, 0.3925, 1.0225, 0.4725, 1.1025, 0.55, 0, 0.63, 0.08, 0.7075, 0.1575, 0.7875, 0.2375, 0.865, 0.315, 0.945, 0.3925, 1.0225, 0.4725, 1.1025],
  "SoftwareVersions": "syngo_MR_E11",
  "SpacingBetweenSlices": 2.4,
  "StationName": "AWP67050",
  "TaskName": "RDMlocalizer",
  "TotalReadoutTime": 0.0504612,
  "TxRefAmp": 237.486,
  "dcmmeta_affine": [
    [-2.374124526977539, -0.07170654833316803, 0.3281621038913727, 103.75586700439453],
    [-0.14026035368442535, 2.3399808406829834, -0.5043755769729614, -73.49224853515625],
    [0.3048858344554901, 0.5181160569190979, 2.323341131210327, -101.17082214355469],
    [0.0, 0.0, 0.0, 1.0]
],
  "dcmmeta_reorient_transform": [
    [0.0, -1.0, 0.0, 87.0],
    [1.0, 0.0, 0.0, 0.0],
    [0.0, 0.0, 1.0, 0.0],
    [0.0, 0.0, 0.0, 1.0]
],
  "dcmmeta_shape": [88, 88, 60, 195],
  "dcmmeta_slice_dim": 2,
  "dcmmeta_version": 0.6,
  "global": {
    "const": {
      "AcquisitionMatrix": [88, 0, 0, 88],
      "AngioFlag": "N",
      "BitsAllocated": 16,
      "BitsStored": 12,
      "BodyPartExamined": "BRAIN",
      "Columns": 704,
      "DeidentificationMethodCodeSequence": [
        {
          "CodeMeaning": "XNAT DicomEdit 6 Script",
          "CodeValue": "3",
          "CodingSchemeDesignator": "XNAT",
          "CodingSchemeVersion": "1.0"}
],
      "EchoNumbers": 1,
      "EchoTime": 33.0,
      "EchoTrainLength": 88,
      "FlipAngle": 62.0,
      "HighBit": 11,
      "ImageOrientationPatient": [0.99015624180712, 0.05849721020437, 0.12715617644734, -0.0299060486995, 0.9759161475964, -0.216086327915],
      "ImagePositionPatient": [-806.66215490714, -894.00033713072, 9.5801947432128],
      "ImageType": [
        "ORIGINAL",
        "PRIMARY",
        "M",
        "ND",
        "MOSAIC"
],
      "ImagedNucleus": "1H",
      "ImagingFrequency": 123.250692,
      "InPlanePhaseEncodingDirection": "COL",
      "MRAcquisitionType": "2D",
      "MagneticFieldStrength": 3.0,
      "Manufacturer": "SIEMENS",
      "ManufacturerModelName": "Prisma_fit",
      "Modality": "MR",
      "NumberOfAverages": 1.0,
      "NumberOfPhaseEncodingSteps": 88,
      "PercentPhaseFieldOfView": 100.0,
      "PercentSampling": 100.0,
      "PerformedProcedureStepStartTime": "084626.598000",
      "PhotometricInterpretation": "MONOCHROME2",
      "PixelBandwidth": 2185.0,
      "PixelRepresentation": 0,
      "PixelSpacing": [2.3977272510529, 2.3977272510529],
      "ProtocolName": "func-bold_task-RDMlocalizer_run-01",
      "RepetitionTime": 1200.0,
      "Rows": 704,
      "SAR": 0.05035169085962,
      "SamplesPerPixel": 1,
      "ScanOptions": "FS",
      "ScanningSequence": "EP",
      "SequenceName": "*epfid2d1_88",
      "SequenceVariant": "SK",
      "SeriesDescription": "func-bold_task-RDMlocalizer_run-01",
      "SeriesNumber": 19,
      "SeriesTime": "103004.010000",
      "SliceLocation": -68.307462997709,
      "SliceThickness": 2.4000000953674,
      "SmallestImagePixelValue": 0,
      "SoftwareVersions": "syngo MR E11",
      "SpacingBetweenSlices": 2.3999999131864,
      "SpecificCharacterSet": "ISO_IR 100",
      "StudyID": "1",
      "StudyTime": "084626.370000",
      "TransmitCoilName": "Body",
      "VariableFlipAngleFlag": "N",
      "WindowCenterWidthExplanation": "Algo1",
      "dBdt": 0.0},
    "slices": {}
  },
  "time": {
    "samples": {
      "AcquisitionNumber": [1, 2, 3, 4, 5, 6, 7, 8, 9, 10, 11, 12, 13, 14, 15, 16, 17, 18, 19, 20, 21, 22, 23, 24, 25, 26, 27, 28, 29, 30, 31, 32, 33, 34, 35, 36, 37, 38, 39, 40, 41, 42, 43, 44, 45, 46, 47, 48, 49, 50, 51, 52, 53, 54, 55, 56, 57, 58, 59, 60, 61, 62, 63, 64, 65, 66, 67, 68, 69, 70, 71, 72, 73, 74, 75, 76, 77, 78, 79, 80, 81, 82, 83, 84, 85, 86, 87, 88, 89, 90, 91, 92, 93, 94, 95, 96, 97, 98, 99, 100, 101, 102, 103, 104, 105, 106, 107, 108, 109, 110, 111, 112, 113, 114, 115, 116, 117, 118, 119, 120, 121, 122, 123, 124, 125, 126, 127, 128, 129, 130, 131, 132, 133, 134, 135, 136, 137, 138, 139, 140, 141, 142, 143, 144, 145, 146, 147, 148, 149, 150, 151, 152, 153, 154, 155, 156, 157, 158, 159, 160, 161, 162, 163, 164, 165, 166, 167, 168, 169, 170, 171, 172, 173, 174, 175, 176, 177, 178, 179, 180, 181, 182, 183, 184, 185, 186, 187, 188, 189, 190, 191, 192, 193, 194, 195],
      "AcquisitionTime": ["102923.032500", "102924.232500", "102925.432500", "102926.632500", "102927.832500", "102929.032500", "102930.232500", "102931.432500", "102932.632500", "102933.832500", "102935.032500", "102936.232500", "102937.432500", "102938.632500", "102939.832500", "102941.032500", "102942.232500", "102943.432500", "102944.632500", "102945.832500", "102947.032500", "102948.232500", "102949.432500", "102950.632500", "102951.832500", "102953.032500", "102954.232500", "102955.432500", "102956.632500", "102957.832500", "102959.032500", "103000.232500", "103001.432500", "103002.632500", "103003.832500", "103005.032500", "103006.232500", "103007.432500", "103008.632500", "103009.832500", "103011.032500", "103012.232500", "103013.432500", "103014.632500", "103015.832500", "103017.032500", "103018.232500", "103019.432500", "103020.632500", "103021.832500", "103023.032500", "103024.232500", "103025.432500", "103026.632500", "103027.832500", "103029.032500", "103030.232500", "103031.432500", "103032.632500", "103033.832500", "103035.032500", "103036.232500", "103037.432500", "103038.632500", "103039.832500", "103041.032500", "103042.232500", "103043.432500", "103044.632500", "103045.832500", "103047.032500", "103048.232500", "103049.432500", "103050.632500", "103051.832500", "103053.032500", "103054.232500", "103055.432500", "103056.632500", "103057.832500", "103059.032500", "103100.232500", "103101.432500", "103102.632500", "103103.832500", "103105.032500", "103106.232500", "103107.432500", "103108.632500", "103109.832500", "103111.032500", "103112.232500", "103113.432500", "103114.632500", "103115.832500", "103117.032500", "103118.232500", "103119.432500", "103120.632500", "103121.832500", "103123.032500", "103124.232500", "103125.432500", "103126.632500", "103127.832500", "103129.032500", "103130.232500", "103131.432500", "103132.632500", "103133.832500", "103135.032500", "103136.232500", "103137.432500", "103138.632500", "103139.832500", "103141.032500", "103142.232500", "103143.432500", "103144.632500", "103145.832500", "103147.032500", "103148.232500", "103149.432500", "103150.632500", "103151.832500", "103153.032500", "103154.232500", "103155.432500", "103156.632500", "103157.832500", "103159.032500", "103200.232500", "103201.432500", "103202.632500", "103203.832500", "103205.032500", "103206.232500", "103207.432500", "103208.632500", "103209.832500", "103211.032500", "103212.232500", "103213.432500", "103214.632500", "103215.832500", "103217.032500", "103218.232500", "103219.432500", "103220.632500", "103221.832500", "103223.032500", "103224.232500", "103225.432500", "103226.632500", "103227.832500", "103229.032500", "103230.232500", "103231.432500", "103232.632500", "103233.832500", "103235.032500", "103236.232500", "103237.432500", "103238.632500", "103239.832500", "103241.032500", "103242.232500", "103243.432500", "103244.632500", "103245.832500", "103247.032500", "103248.232500", "103249.432500", "103250.632500", "103251.832500", "103253.032500", "103254.232500", "103255.432500", "103256.632500", "103257.832500", "103259.032500", "103300.232500", "103301.432500", "103302.632500", "103303.832500", "103305.032500", "103306.232500", "103307.432500", "103308.632500", "103309.832500", "103311.032500", "103312.232500", "103313.432500", "103314.632500", "103315.832500"],
      "ContentTime": ["103004.013000", "103004.017000", "103004.019000", "103004.032000", "103004.034000", "103004.037000", "103004.040000", "103004.049000", "103004.051000", "103004.054000", "103004.056000", "103004.059000", "103004.061000", "103004.064000", "103004.067000", "103004.069000", "103004.072000", "103004.074000", "103004.077000", "103004.079000", "103004.082000", "103004.085000", "103004.088000", "103004.090000", "103004.093000", "103004.095000", "103004.114000", "103004.116000", "103004.119000", "103004.132000", "103004.135000", "103004.137000", "103004.140000", "103044.009000", "103044.012000", "103044.015000", "103044.018000", "103044.023000", "103044.026000", "103044.029000", "103044.032000", "103044.035000", "103044.037000", "103044.040000", "103044.043000", "103044.045000", "103044.048000", "103044.050000", "103044.053000", "103044.056000", "103044.058000", "103044.061000", "103044.064000", "103044.066000", "103044.069000", "103044.071000", "103044.074000", "103044.077000", "103044.079000", "103044.082000", "103044.084000", "103044.087000", "103044.090000", "103044.092000", "103044.095000", "103044.098000", "103124.009000", "103124.012000", "103124.015000", "103124.017000", "103124.030000", "103124.033000", "103124.036000", "103124.038000", "103124.041000", "103124.044000", "103124.046000", "103124.049000", "103124.051000", "103124.054000", "103124.056000", "103124.059000", "103124.062000", "103124.064000", "103124.067000", "103124.069000", "103124.072000", "103124.075000", "103124.077000", "103124.080000", "103124.082000", "103124.085000", "103124.088000", "103124.090000", "103124.093000", "103124.095000", "103124.098000", "103124.100000", "103124.103000", "103124.106000", "103204.009000", "103204.012000", "103204.015000", "103204.017000", "103204.020000", "103204.023000", "103204.026000", "103204.029000", "103204.032000", "103204.044000", "103204.047000", "103204.049000", "103204.052000", "103204.055000", "103204.057000", "103204.060000", "103204.063000", "103204.065000", "103204.068000", "103204.070000", "103204.073000", "103204.076000", "103204.078000", "103204.081000", "103204.084000", "103204.086000", "103204.089000", "103204.091000", "103204.094000", "103204.097000", "103204.099000", "103204.102000", "103204.105000", "103244.010000", "103244.013000", "103244.016000", "103244.018000", "103244.021000", "103244.024000", "103244.027000", "103244.029000", "103244.032000", "103244.035000", "103244.037000", "103244.040000", "103244.042000", "103244.045000", "103244.048000", "103244.051000", "103244.053000", "103244.056000", "103244.058000", "103244.061000", "103244.064000", "103244.066000", "103244.069000", "103244.072000", "103244.074000", "103244.077000", "103244.080000", "103244.082000", "103244.085000", "103244.087000", "103244.090000", "103244.092000", "103244.095000", "103317.665000", "103317.668000", "103317.671000", "103317.673000", "103317.676000", "103317.679000", "103317.681000", "103317.684000", "103317.687000", "103317.689000", "103317.692000", "103317.695000", "103317.697000", "103317.700000", "103317.702000", "103317.705000", "103317.708000", "103317.710000", "103317.713000", "103317.716000", "103317.725000", "103317.728000", "103317.731000", "103317.733000", "103317.736000", "103317.739000", "103317.741000", "103317.744000", "103317.746000"],
      "InstanceCreationTime": ["103004.013000", "103004.017000", "103004.019000", "103004.032000", "103004.034000", "103004.037000", "103004.040000", "103004.049000", "103004.051000", "103004.054000", "103004.056000", "103004.059000", "103004.061000", "103004.064000", "103004.067000", "103004.069000", "103004.072000", "103004.074000", "103004.077000", "103004.079000", "103004.082000", "103004.085000", "103004.088000", "103004.090000", "103004.093000", "103004.095000", "103004.114000", "103004.116000", "103004.119000", "103004.132000", "103004.135000", "103004.137000", "103004.140000", "103044.009000", "103044.012000", "103044.015000", "103044.018000", "103044.023000", "103044.026000", "103044.029000", "103044.032000", "103044.035000", "103044.037000", "103044.040000", "103044.043000", "103044.045000", "103044.048000", "103044.050000", "103044.053000", "103044.056000", "103044.058000", "103044.061000", "103044.064000", "103044.066000", "103044.069000", "103044.071000", "103044.074000", "103044.077000", "103044.079000", "103044.082000", "103044.084000", "103044.087000", "103044.090000", "103044.092000", "103044.095000", "103044.098000", "103124.009000", "103124.012000", "103124.015000", "103124.017000", "103124.030000", "103124.033000", "103124.036000", "103124.038000", "103124.041000", "103124.044000", "103124.046000", "103124.049000", "103124.051000", "103124.054000", "103124.056000", "103124.059000", "103124.062000", "103124.064000", "103124.067000", "103124.069000", "103124.072000", "103124.075000", "103124.077000", "103124.080000", "103124.082000", "103124.085000", "103124.088000", "103124.090000", "103124.093000", "103124.095000", "103124.098000", "103124.100000", "103124.103000", "103124.106000", "103204.009000", "103204.012000", "103204.015000", "103204.017000", "103204.020000", "103204.023000", "103204.026000", "103204.029000", "103204.032000", "103204.044000", "103204.047000", "103204.049000", "103204.052000", "103204.055000", "103204.057000", "103204.060000", "103204.063000", "103204.065000", "103204.068000", "103204.070000", "103204.073000", "103204.076000", "103204.078000", "103204.081000", "103204.084000", "103204.086000", "103204.089000", "103204.091000", "103204.094000", "103204.097000", "103204.099000", "103204.102000", "103204.105000", "103244.010000", "103244.013000", "103244.016000", "103244.018000", "103244.021000", "103244.024000", "103244.027000", "103244.029000", "103244.032000", "103244.035000", "103244.037000", "103244.040000", "103244.042000", "103244.045000", "103244.048000", "103244.051000", "103244.053000", "103244.056000", "103244.058000", "103244.061000", "103244.064000", "103244.066000", "103244.069000", "103244.072000", "103244.074000", "103244.077000", "103244.080000", "103244.082000", "103244.085000", "103244.087000", "103244.090000", "103244.092000", "103244.095000", "103317.665000", "103317.668000", "103317.671000", "103317.673000", "103317.676000", "103317.679000", "103317.681000", "103317.684000", "103317.687000", "103317.689000", "103317.692000", "103317.695000", "103317.697000", "103317.700000", "103317.702000", "103317.705000", "103317.708000", "103317.710000", "103317.713000", "103317.716000", "103317.725000", "103317.728000", "103317.731000", "103317.733000", "103317.736000", "103317.739000", "103317.741000", "103317.744000", "103317.746000"],
      "InstanceNumber": [1, 2, 3, 4, 5, 6, 7, 8, 9, 10, 11, 12, 13, 14, 15, 16, 17, 18, 19, 20, 21, 22, 23, 24, 25, 26, 27, 28, 29, 30, 31, 32, 33, 34, 35, 36, 37, 38, 39, 40, 41, 42, 43, 44, 45, 46, 47, 48, 49, 50, 51, 52, 53, 54, 55, 56, 57, 58, 59, 60, 61, 62, 63, 64, 65, 66, 67, 68, 69, 70, 71, 72, 73, 74, 75, 76, 77, 78, 79, 80, 81, 82, 83, 84, 85, 86, 87, 88, 89, 90, 91, 92, 93, 94, 95, 96, 97, 98, 99, 100, 101, 102, 103, 104, 105, 106, 107, 108, 109, 110, 111, 112, 113, 114, 115, 116, 117, 118, 119, 120, 121, 122, 123, 124, 125, 126, 127, 128, 129, 130, 131, 132, 133, 134, 135, 136, 137, 138, 139, 140, 141, 142, 143, 144, 145, 146, 147, 148, 149, 150, 151, 152, 153, 154, 155, 156, 157, 158, 159, 160, 161, 162, 163, 164, 165, 166, 167, 168, 169, 170, 171, 172, 173, 174, 175, 176, 177, 178, 179, 180, 181, 182, 183, 184, 185, 186, 187, 188, 189, 190, 191, 192, 193, 194, 195],
      "LargestImagePixelValue": [1801, 1766, 1728, 1750, 1729, 1735, 1742, 1719, 1736, 1741, 1741, 1741, 1736, 1745, 1748, 1750, 1746, 1743, 1757, 1759, 1748, 1755, 1755, 1757, 1755, 1748, 1751, 1764, 1764, 1764, 1771, 1765, 1769, 1741, 1778, 1768, 1769, 1777, 1745, 1777, 1780, 1773, 1783, 1789, 1788, 1787, 1781, 1784, 1790, 1776, 1796, 1798, 1790, 1801, 1800, 1796, 1795, 1812, 1806, 1815, 1824, 1797, 1826, 1802, 1816, 1822, 1810, 1826, 1807, 1803, 1814, 1788, 1794, 1797, 1796, 1794, 1785, 1811, 1795, 1810, 1820, 1806, 1820, 1804, 1826, 1813, 1804, 1806, 1796, 1791, 1793, 1797, 1796, 1810, 1819, 1814, 1829, 1806, 1836, 1825, 1813, 1801, 1818, 1821, 1800, 1811, 1800, 1799, 1813, 1791, 1821, 1819, 1801, 1796, 1797, 1790, 1807, 1806, 1816, 1816, 1815, 1815, 1818, 1797, 1808, 1813, 1793, 1790, 1797, 1793, 1777, 1781, 1776, 1793, 1796, 1794, 1785, 1792, 1785, 1793, 1765, 1786, 1792, 1795, 1790, 1806, 1806, 1804, 1817, 1792, 1826, 1809, 1801, 1812, 1827, 1826, 1818, 1822, 1797, 1809, 1818, 1794, 1805, 1801, 1806, 1795, 1794, 1800, 1810, 1812, 1815, 1818, 1800, 1799, 1781, 1809, 1819, 1788, 1787, 1766, 1759, 1773, 1782, 1759, 1746, 1766, 1757, 1735, 1748, 1736, 1742, 1720, 1722, 1728, 1719],
      "WindowCenter": [574.0, 572.0, 572.0, 572.0, 570.0, 570.0, 569.0, 568.0, 567.0, 567.0, 567.0, 568.0, 568.0, 568.0, 569.0, 570.0, 570.0, 569.0, 570.0, 569.0, 569.0, 568.0, 567.0, 567.0, 568.0, 568.0, 569.0, 569.0, 569.0, 568.0, 568.0, 567.0, 567.0, 567.0, 567.0, 567.0, 568.0, 568.0, 569.0, 570.0, 570.0, 570.0, 569.0, 569.0, 570.0, 570.0, 571.0, 570.0, 570.0, 569.0, 569.0, 568.0, 568.0, 567.0, 567.0, 568.0, 569.0, 569.0, 569.0, 569.0, 569.0, 568.0, 568.0, 567.0, 568.0, 568.0, 568.0, 568.0, 567.0, 568.0, 568.0, 568.0, 570.0, 570.0, 571.0, 570.0, 569.0, 569.0, 568.0, 568.0, 567.0, 567.0, 567.0, 566.0, 567.0, 568.0, 568.0, 568.0, 568.0, 569.0, 570.0, 569.0, 569.0, 568.0, 567.0, 566.0, 566.0, 565.0, 567.0, 568.0, 568.0, 569.0, 570.0, 569.0, 568.0, 568.0, 567.0, 567.0, 567.0, 568.0, 568.0, 568.0, 569.0, 569.0, 569.0, 568.0, 567.0, 566.0, 565.0, 565.0, 565.0, 565.0, 566.0, 567.0, 568.0, 569.0, 569.0, 569.0, 570.0, 571.0, 572.0, 573.0, 572.0, 573.0, 572.0, 571.0, 570.0, 570.0, 569.0, 571.0, 571.0, 572.0, 574.0, 572.0, 570.0, 569.0, 567.0, 567.0, 567.0, 567.0, 567.0, 567.0, 568.0, 568.0, 569.0, 569.0, 570.0, 570.0, 569.0, 569.0, 567.0, 567.0, 567.0, 568.0, 568.0, 567.0, 567.0, 567.0, 568.0, 569.0, 568.0, 567.0, 566.0, 566.0, 566.0, 567.0, 568.0, 568.0, 568.0, 568.0, 568.0, 569.0, 569.0, 569.0, 570.0, 571.0, 573.0, 572.0, 572.0, 573.0, 573.0, 572.0, 571.0, 570.0, 570.0],
      "WindowWidth": [1219.0, 1216.0, 1215.0, 1215.0, 1212.0, 1212.0, 1209.0, 1206.0, 1205.0, 1206.0, 1206.0, 1206.0, 1207.0, 1208.0, 1209.0, 1211.0, 1211.0, 1210.0, 1211.0, 1210.0, 1209.0, 1207.0, 1205.0, 1206.0, 1206.0, 1206.0, 1208.0, 1208.0, 1208.0, 1207.0, 1206.0, 1205.0, 1204.0, 1204.0, 1205.0, 1205.0, 1206.0, 1207.0, 1208.0, 1211.0, 1211.0, 1211.0, 1209.0, 1209.0, 1210.0, 1211.0, 1213.0, 1211.0, 1211.0, 1209.0, 1209.0, 1206.0, 1206.0, 1205.0, 1205.0, 1207.0, 1207.0, 1208.0, 1208.0, 1207.0, 1207.0, 1206.0, 1206.0, 1206.0, 1206.0, 1207.0, 1207.0, 1206.0, 1205.0, 1206.0, 1207.0, 1208.0, 1211.0, 1212.0, 1212.0, 1211.0, 1210.0, 1208.0, 1206.0, 1205.0, 1204.0, 1204.0, 1204.0, 1203.0, 1204.0, 1205.0, 1206.0, 1207.0, 1208.0, 1210.0, 1211.0, 1209.0, 1208.0, 1206.0, 1204.0, 1203.0, 1201.0, 1201.0, 1203.0, 1205.0, 1207.0, 1208.0, 1210.0, 1209.0, 1207.0, 1206.0, 1204.0, 1204.0, 1205.0, 1206.0, 1207.0, 1207.0, 1209.0, 1210.0, 1209.0, 1207.0, 1204.0, 1202.0, 1201.0, 1200.0, 1200.0, 1201.0, 1202.0, 1204.0, 1207.0, 1208.0, 1208.0, 1209.0, 1210.0, 1213.0, 1215.0, 1218.0, 1217.0, 1216.0, 1215.0, 1213.0, 1210.0, 1210.0, 1209.0, 1213.0, 1214.0, 1216.0, 1218.0, 1214.0, 1211.0, 1208.0, 1205.0, 1204.0, 1203.0, 1203.0, 1204.0, 1204.0, 1206.0, 1206.0, 1208.0, 1209.0, 1211.0, 1211.0, 1208.0, 1208.0, 1205.0, 1205.0, 1204.0, 1207.0, 1207.0, 1205.0, 1204.0, 1205.0, 1206.0, 1208.0, 1206.0, 1205.0, 1203.0, 1202.0, 1202.0, 1204.0, 1206.0, 1207.0, 1207.0, 1206.0, 1207.0, 1208.0, 1210.0, 1210.0, 1212.0, 1213.0, 1218.0, 1215.0, 1216.0, 1217.0, 1218.0, 1216.0, 1213.0, 1212.0, 1212.0]
    },
    "slices": {}
  }
}