{
  "AcquisitionMatrixPE": 88,
  "AcquisitionNumber": 1,
  "AcquisitionTime": "10:34:8.527500",
  "BandwidthPerPixelPhaseEncode": 19.592,
  "BaseResolution": 88,
  "BodyPartExamined": "BRAIN",
  "ConsistencyInfo": "N4_VE11C_LATEST_20160120",
  "ConversionSoftware": "dcm2niix",
  "ConversionSoftwareVersion": "v1.0.20190902",
  "DerivedVendorReportedEchoSpacing": 0.000580014,
  "DeviceSerialNumber": "67050",
  "DwellTime": 2.6e-06,
  "EchoTime": 0.033,
  "EchoTrainLength": 88,
  "EffectiveEchoSpacing": 0.000580014,
  "FlipAngle": 62,
  "ImageOrientationPatientDICOM": [0.990156, 0.0584972, 0.127156, -0.029906, 0.975916, -0.216086],
  "ImageType": [
    "ORIGINAL",
    "PRIMARY",
    "M",
    "ND",
    "MOSAIC"
],
  "ImagingFrequency": 123.251,
  "InPlanePhaseEncodingDirectionDICOM": "COL",
  "InstitutionAddress": "Olive_Street_60_Providence_RI_US_02912",
  "InstitutionName": "BROWN_UNIVERSITY_MRF",
  "InstitutionalDepartmentName": "Department",
  "MRAcquisitionType": "2D",
  "MagneticFieldStrength": 3,
  "Manufacturer": "Siemens",
  "ManufacturersModelName": "Prisma_fit",
  "Modality": "MR",
  "MultibandAccelerationFactor": 4,
  "PartialFourier": 1,
  "PatientPosition": "HFS",
  "PercentPhaseFOV": 100,
  "PhaseEncodingDirection": "j-",
  "PhaseEncodingSteps": 88,
  "PhaseResolution": 1,
  "PixelBandwidth": 2185,
  "ProcedureStepDescription": "ASHENHAV_1222",
  "ProtocolName": "func-bold_task-RDMlocalizer_run-02",
  "PulseSequenceDetails": "%SiemensSeq%_ep2d_bold",
  "ReceiveCoilActiveElements": "HC1-7;NC1",
  "ReceiveCoilName": "HeadNeck_64",
  "ReconMatrixPE": 88,
  "RefLinesPE": 8,
  "RepetitionTime": 1.2,
  "SAR": 0.0503517,
  "ScanOptions": "FS",
  "ScanningSequence": "EP",
  "SequenceName": "_epfid2d1_88",
  "SequenceVariant": "SK",
  "SeriesDescription": "func-bold_task-RDMlocalizer_run-02",
  "SeriesNumber": 20,
  "ShimSetting": [1784, -9082, 4397, 354, -52, -216, -82, 34],
  "SliceThickness": 2.4,
  "SliceTiming": [0.55, 0, 0.6275, 0.0775, 0.7075, 0.1575, 0.785, 0.235, 0.865, 0.315, 0.9425, 0.3925, 1.0225, 0.4725, 1.1, 0.55, 0, 0.6275, 0.0775, 0.7075, 0.1575, 0.785, 0.235, 0.865, 0.315, 0.9425, 0.3925, 1.0225, 0.4725, 1.1, 0.55, 0, 0.6275, 0.0775, 0.7075, 0.1575, 0.785, 0.235, 0.865, 0.315, 0.9425, 0.3925, 1.0225, 0.4725, 1.1, 0.55, 0, 0.6275, 0.0775, 0.7075, 0.1575, 0.785, 0.235, 0.865, 0.315, 0.9425, 0.3925, 1.0225, 0.4725, 1.1],
  "SoftwareVersions": "syngo_MR_E11",
  "SpacingBetweenSlices": 2.4,
  "StationName": "AWP67050",
  "TaskName": "RDMlocalizer",
  "TotalReadoutTime": 0.0504612,
  "TxRefAmp": 237.486,
  "dcmmeta_affine": [
    [-2.374124526977539, -0.07170654833316803, 0.3281621038913727, 103.75586700439453],
    [-0.14026035368442535, 2.3399808406829834, -0.5043755769729614, -73.49224853515625],
    [0.3048858344554901, 0.5181160569190979, 2.323341131210327, -101.17082214355469],
    [0.0, 0.0, 0.0, 1.0]
],
  "dcmmeta_reorient_transform": [
    [0.0, -1.0, 0.0, 87.0],
    [1.0, 0.0, 0.0, 0.0],
    [0.0, 0.0, 1.0, 0.0],
    [0.0, 0.0, 0.0, 1.0]
],
  "dcmmeta_shape": [88, 88, 60, 195],
  "dcmmeta_slice_dim": 2,
  "dcmmeta_version": 0.6,
  "global": {
    "const": {
      "AcquisitionMatrix": [88, 0, 0, 88],
      "AngioFlag": "N",
      "BitsAllocated": 16,
      "BitsStored": 12,
      "BodyPartExamined": "BRAIN",
      "Columns": 704,
      "DeidentificationMethodCodeSequence": [
        {
          "CodeMeaning": "XNAT DicomEdit 6 Script",
          "CodeValue": "3",
          "CodingSchemeDesignator": "XNAT",
          "CodingSchemeVersion": "1.0"}
],
      "EchoNumbers": 1,
      "EchoTime": 33.0,
      "EchoTrainLength": 88,
      "FlipAngle": 62.0,
      "HighBit": 11,
      "ImageOrientationPatient": [0.99015624180712, 0.05849721020437, 0.12715617644734, -0.0299060486995, 0.9759161475964, -0.216086327915],
      "ImagePositionPatient": [-806.66215490714, -894.00033713072, 9.5801947432128],
      "ImageType": [
        "ORIGINAL",
        "PRIMARY",
        "M",
        "ND",
        "MOSAIC"
],
      "ImagedNucleus": "1H",
      "ImagingFrequency": 123.250693,
      "InPlanePhaseEncodingDirection": "COL",
      "MRAcquisitionType": "2D",
      "MagneticFieldStrength": 3.0,
      "Manufacturer": "SIEMENS",
      "ManufacturerModelName": "Prisma_fit",
      "Modality": "MR",
      "NumberOfAverages": 1.0,
      "NumberOfPhaseEncodingSteps": 88,
      "PercentPhaseFieldOfView": 100.0,
      "PercentSampling": 100.0,
      "PerformedProcedureStepStartTime": "084626.598000",
      "PhotometricInterpretation": "MONOCHROME2",
      "PixelBandwidth": 2185.0,
      "PixelRepresentation": 0,
      "PixelSpacing": [2.3977272510529, 2.3977272510529],
      "ProtocolName": "func-bold_task-RDMlocalizer_run-02",
      "RepetitionTime": 1200.0,
      "Rows": 704,
      "SAR": 0.05035169085962,
      "SamplesPerPixel": 1,
      "ScanOptions": "FS",
      "ScanningSequence": "EP",
      "SequenceName": "*epfid2d1_88",
      "SequenceVariant": "SK",
      "SeriesDescription": "func-bold_task-RDMlocalizer_run-02",
      "SeriesNumber": 20,
      "SeriesTime": "103437.765000",
      "SliceLocation": -68.307462997709,
      "SliceThickness": 2.4000000953674,
      "SmallestImagePixelValue": 0,
      "SoftwareVersions": "syngo MR E11",
      "SpacingBetweenSlices": 2.3999999131864,
      "SpecificCharacterSet": "ISO_IR 100",
      "StudyID": "1",
      "StudyTime": "084626.370000",
      "TransmitCoilName": "Body",
      "VariableFlipAngleFlag": "N",
      "WindowCenterWidthExplanation": "Algo1",
      "dBdt": 0.0},
    "slices": {}
  },
  "time": {
    "samples": {
      "AcquisitionNumber": [1, 2, 3, 4, 5, 6, 7, 8, 9, 10, 11, 12, 13, 14, 15, 16, 17, 18, 19, 20, 21, 22, 23, 24, 25, 26, 27, 28, 29, 30, 31, 32, 33, 34, 35, 36, 37, 38, 39, 40, 41, 42, 43, 44, 45, 46, 47, 48, 49, 50, 51, 52, 53, 54, 55, 56, 57, 58, 59, 60, 61, 62, 63, 64, 65, 66, 67, 68, 69, 70, 71, 72, 73, 74, 75, 76, 77, 78, 79, 80, 81, 82, 83, 84, 85, 86, 87, 88, 89, 90, 91, 92, 93, 94, 95, 96, 97, 98, 99, 100, 101, 102, 103, 104, 105, 106, 107, 108, 109, 110, 111, 112, 113, 114, 115, 116, 117, 118, 119, 120, 121, 122, 123, 124, 125, 126, 127, 128, 129, 130, 131, 132, 133, 134, 135, 136, 137, 138, 139, 140, 141, 142, 143, 144, 145, 146, 147, 148, 149, 150, 151, 152, 153, 154, 155, 156, 157, 158, 159, 160, 161, 162, 163, 164, 165, 166, 167, 168, 169, 170, 171, 172, 173, 174, 175, 176, 177, 178, 179, 180, 181, 182, 183, 184, 185, 186, 187, 188, 189, 190, 191, 192, 193, 194, 195],
      "AcquisitionTime": ["103408.527500", "103409.727500", "103410.927500", "103412.127500", "103413.327500", "103414.527500", "103415.727500", "103416.927500", "103418.127500", "103419.327500", "103420.527500", "103421.727500", "103422.927500", "103424.127500", "103425.327500", "103426.527500", "103427.727500", "103428.927500", "103430.127500", "103431.327500", "103432.527500", "103433.727500", "103434.927500", "103436.127500", "103437.327500", "103438.527500", "103439.727500", "103440.927500", "103442.127500", "103443.327500", "103444.527500", "103445.727500", "103446.927500", "103448.127500", "103449.327500", "103450.527500", "103451.727500", "103452.927500", "103454.127500", "103455.327500", "103456.527500", "103457.727500", "103458.927500", "103500.127500", "103501.327500", "103502.527500", "103503.727500", "103504.927500", "103506.127500", "103507.327500", "103508.527500", "103509.727500", "103510.927500", "103512.127500", "103513.327500", "103514.527500", "103515.727500", "103516.927500", "103518.127500", "103519.327500", "103520.527500", "103521.727500", "103522.927500", "103524.127500", "103525.327500", "103526.527500", "103527.727500", "103528.927500", "103530.127500", "103531.327500", "103532.527500", "103533.727500", "103534.927500", "103536.127500", "103537.327500", "103538.527500", "103539.727500", "103540.927500", "103542.127500", "103543.327500", "103544.527500", "103545.727500", "103546.927500", "103548.127500", "103549.327500", "103550.527500", "103551.727500", "103552.927500", "103554.127500", "103555.327500", "103556.527500", "103557.727500", "103558.927500", "103600.127500", "103601.327500", "103602.527500", "103603.727500", "103604.927500", "103606.127500", "103607.327500", "103608.527500", "103609.727500", "103610.927500", "103612.127500", "103613.327500", "103614.527500", "103615.727500", "103616.927500", "103618.127500", "103619.327500", "103620.527500", "103621.727500", "103622.927500", "103624.127500", "103625.327500", "103626.527500", "103627.727500", "103628.927500", "103630.127500", "103631.327500", "103632.527500", "103633.727500", "103634.927500", "103636.127500", "103637.327500", "103638.527500", "103639.727500", "103640.927500", "103642.127500", "103643.327500", "103644.527500", "103645.727500", "103646.927500", "103648.127500", "103649.327500", "103650.527500", "103651.727500", "103652.927500", "103654.127500", "103655.327500", "103656.527500", "103657.727500", "103658.927500", "103700.127500", "103701.327500", "103702.527500", "103703.727500", "103704.927500", "103706.127500", "103707.327500", "103708.527500", "103709.727500", "103710.927500", "103712.127500", "103713.327500", "103714.527500", "103715.727500", "103716.927500", "103718.127500", "103719.327500", "103720.527500", "103721.727500", "103722.927500", "103724.127500", "103725.327500", "103726.527500", "103727.727500", "103728.927500", "103730.127500", "103731.327500", "103732.527500", "103733.727500", "103734.927500", "103736.127500", "103737.327500", "103738.527500", "103739.727500", "103740.927500", "103742.127500", "103743.327500", "103744.527500", "103745.727500", "103746.927500", "103748.127500", "103749.327500", "103750.527500", "103751.727500", "103752.927500", "103754.127500", "103755.327500", "103756.527500", "103757.727500", "103758.927500", "103800.127500", "103801.327500"],
      "ContentTime": ["103437.769000", "103437.772000", "103437.775000", "103437.777000", "103437.780000", "103437.783000", "103437.785000", "103437.788000", "103437.790000", "103437.793000", "103437.800000", "103437.803000", "103437.805000", "103437.823000", "103437.825000", "103437.828000", "103437.830000", "103437.837000", "103437.840000", "103437.842000", "103437.845000", "103437.847000", "103437.850000", "103437.852000", "103517.764000", "103517.767000", "103517.770000", "103517.773000", "103517.775000", "103517.778000", "103517.780000", "103517.783000", "103517.786000", "103517.788000", "103517.791000", "103517.794000", "103517.809000", "103517.811000", "103517.814000", "103517.817000", "103517.820000", "103517.822000", "103517.825000", "103517.828000", "103517.830000", "103517.833000", "103517.835000", "103517.838000", "103517.840000", "103517.843000", "103517.846000", "103517.852000", "103517.855000", "103517.858000", "103517.860000", "103517.863000", "103517.866000", "103557.765000", "103557.767000", "103557.770000", "103557.773000", "103557.776000", "103557.778000", "103557.781000", "103557.783000", "103557.786000", "103557.789000", "103557.791000", "103557.794000", "103557.797000", "103557.799000", "103557.802000", "103557.805000", "103557.807000", "103557.810000", "103557.813000", "103557.815000", "103557.818000", "103557.821000", "103557.823000", "103557.826000", "103557.829000", "103557.831000", "103557.834000", "103557.836000", "103557.839000", "103557.842000", "103557.844000", "103557.847000", "103557.849000", "103557.852000", "103637.764000", "103637.767000", "103637.770000", "103637.772000", "103637.775000", "103637.778000", "103637.780000", "103637.783000", "103637.786000", "103637.788000", "103637.791000", "103637.793000", "103637.805000", "103637.807000", "103637.810000", "103637.812000", "103637.815000", "103637.818000", "103637.820000", "103637.823000", "103637.826000", "103637.828000", "103637.831000", "103637.833000", "103637.836000", "103637.839000", "103637.841000", "103637.844000", "103637.847000", "103637.849000", "103637.852000", "103637.854000", "103637.857000", "103717.765000", "103717.768000", "103717.770000", "103717.773000", "103717.776000", "103717.778000", "103717.781000", "103717.784000", "103717.786000", "103717.789000", "103717.792000", "103717.794000", "103717.797000", "103717.800000", "103717.802000", "103717.805000", "103717.807000", "103717.810000", "103717.813000", "103717.815000", "103717.818000", "103717.821000", "103717.823000", "103717.826000", "103717.829000", "103717.831000", "103717.834000", "103717.837000", "103717.839000", "103717.842000", "103717.844000", "103717.858000", "103717.860000", "103757.766000", "103757.768000", "103757.771000", "103757.774000", "103757.776000", "103757.779000", "103757.782000", "103757.784000", "103757.787000", "103757.790000", "103757.792000", "103757.795000", "103757.798000", "103757.800000", "103757.803000", "103757.806000", "103757.813000", "103757.816000", "103757.818000", "103757.821000", "103757.824000", "103757.826000", "103757.829000", "103757.831000", "103757.834000", "103757.837000", "103757.839000", "103757.842000", "103757.845000", "103757.847000", "103757.850000", "103757.853000", "103757.855000", "103757.858000", "103802.574000", "103802.577000", "103802.580000", "103802.583000"],
      "InstanceCreationTime": ["103437.769000", "103437.772000", "103437.775000", "103437.777000", "103437.780000", "103437.783000", "103437.785000", "103437.788000", "103437.790000", "103437.793000", "103437.800000", "103437.803000", "103437.805000", "103437.823000", "103437.825000", "103437.828000", "103437.830000", "103437.837000", "103437.840000", "103437.842000", "103437.845000", "103437.847000", "103437.850000", "103437.852000", "103517.764000", "103517.767000", "103517.770000", "103517.773000", "103517.775000", "103517.778000", "103517.780000", "103517.783000", "103517.786000", "103517.788000", "103517.791000", "103517.794000", "103517.809000", "103517.811000", "103517.814000", "103517.817000", "103517.820000", "103517.822000", "103517.825000", "103517.828000", "103517.830000", "103517.833000", "103517.835000", "103517.838000", "103517.840000", "103517.843000", "103517.846000", "103517.852000", "103517.855000", "103517.858000", "103517.860000", "103517.863000", "103517.866000", "103557.765000", "103557.767000", "103557.770000", "103557.773000", "103557.776000", "103557.778000", "103557.781000", "103557.783000", "103557.786000", "103557.789000", "103557.791000", "103557.794000", "103557.797000", "103557.799000", "103557.802000", "103557.805000", "103557.807000", "103557.810000", "103557.813000", "103557.815000", "103557.818000", "103557.821000", "103557.823000", "103557.826000", "103557.829000", "103557.831000", "103557.834000", "103557.836000", "103557.839000", "103557.842000", "103557.844000", "103557.847000", "103557.849000", "103557.852000", "103637.764000", "103637.767000", "103637.770000", "103637.772000", "103637.775000", "103637.778000", "103637.780000", "103637.783000", "103637.786000", "103637.788000", "103637.791000", "103637.793000", "103637.805000", "103637.807000", "103637.810000", "103637.812000", "103637.815000", "103637.818000", "103637.820000", "103637.823000", "103637.826000", "103637.828000", "103637.831000", "103637.833000", "103637.836000", "103637.839000", "103637.841000", "103637.844000", "103637.847000", "103637.849000", "103637.852000", "103637.854000", "103637.857000", "103717.765000", "103717.768000", "103717.770000", "103717.773000", "103717.776000", "103717.778000", "103717.781000", "103717.784000", "103717.786000", "103717.789000", "103717.792000", "103717.794000", "103717.797000", "103717.800000", "103717.802000", "103717.805000", "103717.807000", "103717.810000", "103717.813000", "103717.815000", "103717.818000", "103717.821000", "103717.823000", "103717.826000", "103717.829000", "103717.831000", "103717.834000", "103717.837000", "103717.839000", "103717.842000", "103717.844000", "103717.858000", "103717.860000", "103757.766000", "103757.768000", "103757.771000", "103757.774000", "103757.776000", "103757.779000", "103757.782000", "103757.784000", "103757.787000", "103757.790000", "103757.792000", "103757.795000", "103757.798000", "103757.800000", "103757.803000", "103757.806000", "103757.813000", "103757.816000", "103757.818000", "103757.821000", "103757.824000", "103757.826000", "103757.829000", "103757.831000", "103757.834000", "103757.837000", "103757.839000", "103757.842000", "103757.845000", "103757.847000", "103757.850000", "103757.853000", "103757.855000", "103757.858000", "103802.574000", "103802.577000", "103802.580000", "103802.583000"],
      "InstanceNumber": [1, 2, 3, 4, 5, 6, 7, 8, 9, 10, 11, 12, 13, 14, 15, 16, 17, 18, 19, 20, 21, 22, 23, 24, 25, 26, 27, 28, 29, 30, 31, 32, 33, 34, 35, 36, 37, 38, 39, 40, 41, 42, 43, 44, 45, 46, 47, 48, 49, 50, 51, 52, 53, 54, 55, 56, 57, 58, 59, 60, 61, 62, 63, 64, 65, 66, 67, 68, 69, 70, 71, 72, 73, 74, 75, 76, 77, 78, 79, 80, 81, 82, 83, 84, 85, 86, 87, 88, 89, 90, 91, 92, 93, 94, 95, 96, 97, 98, 99, 100, 101, 102, 103, 104, 105, 106, 107, 108, 109, 110, 111, 112, 113, 114, 115, 116, 117, 118, 119, 120, 121, 122, 123, 124, 125, 126, 127, 128, 129, 130, 131, 132, 133, 134, 135, 136, 137, 138, 139, 140, 141, 142, 143, 144, 145, 146, 147, 148, 149, 150, 151, 152, 153, 154, 155, 156, 157, 158, 159, 160, 161, 162, 163, 164, 165, 166, 167, 168, 169, 170, 171, 172, 173, 174, 175, 176, 177, 178, 179, 180, 181, 182, 183, 184, 185, 186, 187, 188, 189, 190, 191, 192, 193, 194, 195],
      "LargestImagePixelValue": [1831, 1727, 1732, 1706, 1690, 1697, 1720, 1691, 1682, 1702, 1696, 1699, 1697, 1709, 1743, 1711, 1722, 1740, 1736, 1717, 1721, 1699, 1705, 1703, 1702, 1697, 1683, 1684, 1697, 1703, 1699, 1714, 1698, 1710, 1701, 1720, 1709, 1706, 1725, 1731, 1734, 1757, 1756, 1758, 1759, 1754, 1753, 1759, 1736, 1741, 1723, 1745, 1718, 1718, 1722, 1721, 1730, 1735, 1743, 1753, 1747, 1741, 1758, 1762, 1754, 1743, 1735, 1744, 1737, 1739, 1730, 1706, 1740, 1724, 1708, 1722, 1698, 1710, 1699, 1728, 1702, 1692, 1701, 1712, 1692, 1713, 1689, 1693, 1709, 1699, 1717, 1692, 1710, 1721, 1701, 1692, 1685, 1688, 1682, 1703, 1691, 1738, 1728, 1718, 1721, 1743, 1722, 1731, 1731, 1745, 1742, 1751, 1772, 1771, 1772, 1776, 1778, 1768, 1761, 1761, 1747, 1739, 1748, 1745, 1738, 1732, 1738, 1725, 1729, 1737, 1742, 1757, 1730, 1719, 1733, 1734, 1713, 1730, 1731, 1728, 1736, 1728, 1752, 1737, 1757, 1752, 1748, 1755, 1765, 1743, 1746, 1750, 1748, 1746, 1748, 1748, 1741, 1728, 1726, 1739, 1724, 1747, 1745, 1753, 1753, 1748, 1753, 1755, 1755, 1764, 1749, 1747, 1747, 1748, 1745, 1748, 1759, 1770, 1763, 1759, 1775, 1759, 1747, 1732, 1731, 1741, 1736, 1728, 1719, 1714, 1715, 1710, 1717, 1718, 1728],
      "WindowCenter": [572.0, 569.0, 568.0, 567.0, 567.0, 566.0, 567.0, 566.0, 566.0, 567.0, 567.0, 567.0, 567.0, 566.0, 567.0, 568.0, 570.0, 571.0, 571.0, 569.0, 569.0, 567.0, 565.0, 565.0, 565.0, 564.0, 563.0, 563.0, 564.0, 564.0, 564.0, 564.0, 564.0, 566.0, 566.0, 568.0, 568.0, 567.0, 568.0, 568.0, 568.0, 568.0, 568.0, 568.0, 569.0, 570.0, 570.0, 569.0, 568.0, 567.0, 566.0, 566.0, 565.0, 565.0, 564.0, 564.0, 566.0, 567.0, 568.0, 568.0, 568.0, 568.0, 569.0, 568.0, 567.0, 566.0, 565.0, 565.0, 565.0, 566.0, 566.0, 566.0, 566.0, 565.0, 564.0, 563.0, 563.0, 563.0, 563.0, 563.0, 563.0, 563.0, 563.0, 564.0, 564.0, 565.0, 564.0, 565.0, 565.0, 564.0, 565.0, 565.0, 565.0, 565.0, 564.0, 563.0, 563.0, 563.0, 564.0, 565.0, 566.0, 566.0, 566.0, 566.0, 567.0, 567.0, 568.0, 568.0, 569.0, 569.0, 569.0, 571.0, 574.0, 575.0, 573.0, 573.0, 571.0, 570.0, 569.0, 567.0, 567.0, 568.0, 569.0, 569.0, 568.0, 566.0, 565.0, 565.0, 564.0, 565.0, 566.0, 569.0, 570.0, 569.0, 568.0, 567.0, 565.0, 565.0, 564.0, 564.0, 565.0, 565.0, 566.0, 566.0, 566.0, 566.0, 565.0, 565.0, 565.0, 564.0, 565.0, 565.0, 565.0, 565.0, 565.0, 565.0, 565.0, 565.0, 565.0, 565.0, 565.0, 565.0, 565.0, 566.0, 567.0, 567.0, 567.0, 566.0, 565.0, 565.0, 565.0, 565.0, 565.0, 565.0, 567.0, 567.0, 568.0, 569.0, 569.0, 568.0, 570.0, 570.0, 570.0, 570.0, 568.0, 567.0, 566.0, 565.0, 565.0, 565.0, 565.0, 565.0, 566.0, 566.0, 565.0],
      "WindowWidth": [1214.0, 1209.0, 1206.0, 1205.0, 1204.0, 1204.0, 1204.0, 1203.0, 1203.0, 1205.0, 1205.0, 1205.0, 1204.0, 1203.0, 1206.0, 1208.0, 1212.0, 1214.0, 1214.0, 1210.0, 1209.0, 1204.0, 1202.0, 1201.0, 1200.0, 1199.0, 1198.0, 1198.0, 1199.0, 1199.0, 1199.0, 1199.0, 1199.0, 1202.0, 1203.0, 1207.0, 1207.0, 1206.0, 1207.0, 1207.0, 1206.0, 1207.0, 1207.0, 1208.0, 1209.0, 1212.0, 1212.0, 1210.0, 1208.0, 1206.0, 1204.0, 1202.0, 1200.0, 1200.0, 1199.0, 1200.0, 1203.0, 1206.0, 1206.0, 1207.0, 1207.0, 1208.0, 1208.0, 1206.0, 1205.0, 1202.0, 1201.0, 1200.0, 1200.0, 1202.0, 1203.0, 1203.0, 1203.0, 1200.0, 1199.0, 1197.0, 1196.0, 1196.0, 1197.0, 1197.0, 1197.0, 1197.0, 1197.0, 1199.0, 1200.0, 1201.0, 1200.0, 1201.0, 1201.0, 1200.0, 1201.0, 1201.0, 1201.0, 1201.0, 1199.0, 1197.0, 1198.0, 1198.0, 1200.0, 1201.0, 1203.0, 1204.0, 1203.0, 1203.0, 1205.0, 1205.0, 1207.0, 1207.0, 1208.0, 1209.0, 1210.0, 1213.0, 1219.0, 1222.0, 1219.0, 1217.0, 1214.0, 1210.0, 1208.0, 1206.0, 1205.0, 1206.0, 1209.0, 1209.0, 1206.0, 1202.0, 1200.0, 1200.0, 1198.0, 1200.0, 1203.0, 1208.0, 1210.0, 1209.0, 1207.0, 1204.0, 1201.0, 1200.0, 1199.0, 1199.0, 1201.0, 1202.0, 1203.0, 1202.0, 1203.0, 1202.0, 1202.0, 1201.0, 1201.0, 1199.0, 1200.0, 1200.0, 1200.0, 1201.0, 1202.0, 1202.0, 1201.0, 1201.0, 1201.0, 1201.0, 1201.0, 1202.0, 1202.0, 1202.0, 1205.0, 1204.0, 1205.0, 1203.0, 1201.0, 1200.0, 1199.0, 1200.0, 1201.0, 1202.0, 1204.0, 1206.0, 1208.0, 1209.0, 1208.0, 1208.0, 1210.0, 1211.0, 1212.0, 1211.0, 1207.0, 1205.0, 1202.0, 1200.0, 1200.0, 1200.0, 1200.0, 1201.0, 1202.0, 1202.0, 1201.0]
    },
    "slices": {}
  }
}