{
  "AcquisitionMatrixPE": 88,
  "AcquisitionNumber": 1,
  "AcquisitionTime": "09:52:14.267500",
  "BandwidthPerPixelPhaseEncode": 19.592,
  "BaseResolution": 88,
  "BodyPartExamined": "BRAIN",
  "ConsistencyInfo": "N4_VE11C_LATEST_20160120",
  "ConversionSoftware": "dcm2niix",
  "ConversionSoftwareVersion": "v1.0.20190902",
  "DerivedVendorReportedEchoSpacing": 0.000580014,
  "DeviceSerialNumber": "67050",
  "DwellTime": 2.6e-06,
  "EchoTime": 0.033,
  "EchoTrainLength": 88,
  "EffectiveEchoSpacing": 0.000580014,
  "FlipAngle": 62,
  "ImageOrientationPatientDICOM": [0.990156, 0.0584972, 0.127156, -0.029906, 0.975916, -0.216086],
  "ImageType": [
    "ORIGINAL",
    "PRIMARY",
    "M",
    "ND",
    "MOSAIC"
],
  "ImagingFrequency": 123.251,
  "InPlanePhaseEncodingDirectionDICOM": "COL",
  "InstitutionAddress": "Olive_Street_60_Providence_RI_US_02912",
  "InstitutionName": "BROWN_UNIVERSITY_MRF",
  "InstitutionalDepartmentName": "Department",
  "MRAcquisitionType": "2D",
  "MagneticFieldStrength": 3,
  "Manufacturer": "Siemens",
  "ManufacturersModelName": "Prisma_fit",
  "Modality": "MR",
  "MultibandAccelerationFactor": 4,
  "PartialFourier": 1,
  "PatientPosition": "HFS",
  "PercentPhaseFOV": 100,
  "PhaseEncodingDirection": "j-",
  "PhaseEncodingSteps": 88,
  "PhaseResolution": 1,
  "PixelBandwidth": 2185,
  "ProcedureStepDescription": "ASHENHAV_1222",
  "ProtocolName": "func-bold_task-RDMmotion_run-04",
  "PulseSequenceDetails": "%SiemensSeq%_ep2d_bold",
  "ReceiveCoilActiveElements": "HC1-7;NC1",
  "ReceiveCoilName": "HeadNeck_64",
  "ReconMatrixPE": 88,
  "RefLinesPE": 8,
  "RepetitionTime": 1.2,
  "SAR": 0.0500856,
  "ScanOptions": "FS",
  "ScanningSequence": "EP",
  "SequenceName": "_epfid2d1_88",
  "SequenceVariant": "SK",
  "SeriesDescription": "func-bold_task-RDMmotion_run-04",
  "SeriesNumber": 13,
  "ShimSetting": [1784, -9082, 4397, 354, -52, -216, -82, 34],
  "SliceThickness": 2.4,
  "SliceTiming": [0.55, 0, 0.63, 0.08, 0.7075, 0.1575, 0.7875, 0.2375, 0.865, 0.315, 0.945, 0.3925, 1.0225, 0.4725, 1.1025, 0.55, 0, 0.63, 0.08, 0.7075, 0.1575, 0.7875, 0.2375, 0.865, 0.315, 0.945, 0.3925, 1.0225, 0.4725, 1.1025, 0.55, 0, 0.63, 0.08, 0.7075, 0.1575, 0.7875, 0.2375, 0.865, 0.315, 0.945, 0.3925, 1.0225, 0.4725, 1.1025, 0.55, 0, 0.63, 0.08, 0.7075, 0.1575, 0.7875, 0.2375, 0.865, 0.315, 0.945, 0.3925, 1.0225, 0.4725, 1.1025],
  "SoftwareVersions": "syngo_MR_E11",
  "SpacingBetweenSlices": 2.4,
  "StationName": "AWP67050",
  "TaskName": "RDMmotion",
  "TotalReadoutTime": 0.0504612,
  "TxRefAmp": 237.486,
  "dcmmeta_affine": [
    [-2.374124526977539, -0.07170654833316803, 0.3281621038913727, 103.75586700439453],
    [-0.14026035368442535, 2.3399808406829834, -0.5043755769729614, -73.49224853515625],
    [0.3048858344554901, 0.5181160569190979, 2.323341131210327, -101.17082214355469],
    [0.0, 0.0, 0.0, 1.0]
],
  "dcmmeta_reorient_transform": [
    [0.0, -1.0, 0.0, 87.0],
    [1.0, 0.0, 0.0, 0.0],
    [0.0, 0.0, 1.0, 0.0],
    [0.0, 0.0, 0.0, 1.0]
],
  "dcmmeta_shape": [88, 88, 60, 125],
  "dcmmeta_slice_dim": 2,
  "dcmmeta_version": 0.6,
  "global": {
    "const": {
      "AcquisitionMatrix": [88, 0, 0, 88],
      "AngioFlag": "N",
      "BitsAllocated": 16,
      "BitsStored": 12,
      "BodyPartExamined": "BRAIN",
      "Columns": 704,
      "DeidentificationMethodCodeSequence": [
        {
          "CodeMeaning": "XNAT DicomEdit 6 Script",
          "CodeValue": "3",
          "CodingSchemeDesignator": "XNAT",
          "CodingSchemeVersion": "1.0"}
],
      "EchoNumbers": 1,
      "EchoTime": 33.0,
      "EchoTrainLength": 88,
      "FlipAngle": 62.0,
      "HighBit": 11,
      "ImageOrientationPatient": [0.99015624180712, 0.05849721020437, 0.12715617644734, -0.0299060486995, 0.9759161475964, -0.216086327915],
      "ImagePositionPatient": [-806.66215490714, -894.00033713072, 9.5801947432128],
      "ImageType": [
        "ORIGINAL",
        "PRIMARY",
        "M",
        "ND",
        "MOSAIC"
],
      "ImagedNucleus": "1H",
      "ImagingFrequency": 123.250682,
      "InPlanePhaseEncodingDirection": "COL",
      "MRAcquisitionType": "2D",
      "MagneticFieldStrength": 3.0,
      "Manufacturer": "SIEMENS",
      "ManufacturerModelName": "Prisma_fit",
      "Modality": "MR",
      "NumberOfAverages": 1.0,
      "NumberOfPhaseEncodingSteps": 88,
      "PercentPhaseFieldOfView": 100.0,
      "PercentSampling": 100.0,
      "PerformedProcedureStepStartTime": "084626.598000",
      "PhotometricInterpretation": "MONOCHROME2",
      "PixelBandwidth": 2185.0,
      "PixelRepresentation": 0,
      "PixelSpacing": [2.3977272510529, 2.3977272510529],
      "ProtocolName": "func-bold_task-RDMmotion_run-04",
      "RepetitionTime": 1200.0,
      "Rows": 704,
      "SAR": 0.05008557343571,
      "SamplesPerPixel": 1,
      "ScanOptions": "FS",
      "ScanningSequence": "EP",
      "SequenceName": "*epfid2d1_88",
      "SequenceVariant": "SK",
      "SeriesDescription": "func-bold_task-RDMmotion_run-04",
      "SeriesNumber": 13,
      "SeriesTime": "095244.010000",
      "SliceLocation": -68.307462997709,
      "SliceThickness": 2.4000000953674,
      "SmallestImagePixelValue": 0,
      "SoftwareVersions": "syngo MR E11",
      "SpacingBetweenSlices": 2.3999999131864,
      "SpecificCharacterSet": "ISO_IR 100",
      "StudyID": "1",
      "StudyTime": "084626.370000",
      "TransmitCoilName": "Body",
      "VariableFlipAngleFlag": "N",
      "WindowCenterWidthExplanation": "Algo1",
      "dBdt": 0.0},
    "slices": {}
  },
  "time": {
    "samples": {
      "AcquisitionNumber": [1, 2, 3, 4, 5, 6, 7, 8, 9, 10, 11, 12, 13, 14, 15, 16, 17, 18, 19, 20, 21, 22, 23, 24, 25, 26, 27, 28, 29, 30, 31, 32, 33, 34, 35, 36, 37, 38, 39, 40, 41, 42, 43, 44, 45, 46, 47, 48, 49, 50, 51, 52, 53, 54, 55, 56, 57, 58, 59, 60, 61, 62, 63, 64, 65, 66, 67, 68, 69, 70, 71, 72, 73, 74, 75, 76, 77, 78, 79, 80, 81, 82, 83, 84, 85, 86, 87, 88, 89, 90, 91, 92, 93, 94, 95, 96, 97, 98, 99, 100, 101, 102, 103, 104, 105, 106, 107, 108, 109, 110, 111, 112, 113, 114, 115, 116, 117, 118, 119, 120, 121, 122, 123, 124, 125],
      "AcquisitionTime": ["095214.267500", "095215.467500", "095216.667500", "095217.867500", "095219.067500", "095220.267500", "095221.467500", "095222.667500", "095223.867500", "095225.067500", "095226.267500", "095227.467500", "095228.667500", "095229.867500", "095231.067500", "095232.267500", "095233.467500", "095234.667500", "095235.867500", "095237.067500", "095238.267500", "095239.467500", "095240.667500", "095241.867500", "095243.067500", "095244.267500", "095245.467500", "095246.667500", "095247.867500", "095249.067500", "095250.267500", "095251.467500", "095252.667500", "095253.867500", "095255.067500", "095256.267500", "095257.467500", "095258.667500", "095259.867500", "095301.067500", "095302.267500", "095303.467500", "095304.667500", "095305.867500", "095307.067500", "095308.267500", "095309.467500", "095310.667500", "095311.867500", "095313.067500", "095314.267500", "095315.467500", "095316.667500", "095317.867500", "095319.067500", "095320.267500", "095321.467500", "095322.667500", "095323.867500", "095325.067500", "095326.267500", "095327.467500", "095328.667500", "095329.867500", "095331.067500", "095332.267500", "095333.467500", "095334.667500", "095335.867500", "095337.067500", "095338.267500", "095339.467500", "095340.667500", "095341.867500", "095343.067500", "095344.267500", "095345.467500", "095346.667500", "095347.867500", "095349.067500", "095350.267500", "095351.467500", "095352.667500", "095353.867500", "095355.067500", "095356.267500", "095357.467500", "095358.667500", "095359.867500", "095401.067500", "095402.267500", "095403.467500", "095404.667500", "095405.867500", "095407.067500", "095408.267500", "095409.467500", "095410.667500", "095411.867500", "095413.067500", "095414.267500", "095415.467500", "095416.667500", "095417.867500", "095419.067500", "095420.267500", "095421.467500", "095422.667500", "095423.867500", "095425.067500", "095426.267500", "095427.467500", "095428.667500", "095429.867500", "095431.067500", "095432.267500", "095433.467500", "095434.667500", "095435.867500", "095437.067500", "095438.267500", "095439.467500", "095440.667500", "095441.867500", "095443.067500"],
      "ContentTime": ["095244.014000", "095244.017000", "095244.020000", "095244.022000", "095244.025000", "095244.027000", "095244.030000", "095244.033000", "095244.035000", "095244.038000", "095244.043000", "095244.046000", "095244.049000", "095244.051000", "095244.054000", "095244.057000", "095244.059000", "095244.062000", "095244.064000", "095244.067000", "095244.070000", "095244.072000", "095244.075000", "095244.077000", "095324.010000", "095324.012000", "095324.015000", "095324.018000", "095324.020000", "095324.023000", "095324.026000", "095324.028000", "095324.031000", "095324.033000", "095324.036000", "095324.039000", "095324.041000", "095324.044000", "095324.047000", "095324.049000", "095324.052000", "095324.054000", "095324.057000", "095324.060000", "095324.062000", "095324.065000", "095324.068000", "095324.070000", "095324.073000", "095324.075000", "095324.078000", "095324.084000", "095324.087000", "095324.090000", "095324.092000", "095324.095000", "095324.097000", "095324.100000", "095404.009000", "095404.012000", "095404.015000", "095404.017000", "095404.020000", "095404.023000", "095404.025000", "095404.028000", "095404.030000", "095404.033000", "095404.036000", "095404.038000", "095404.041000", "095404.043000", "095404.046000", "095404.048000", "095404.051000", "095404.053000", "095404.056000", "095404.059000", "095404.061000", "095404.064000", "095404.066000", "095404.069000", "095404.072000", "095404.074000", "095404.077000", "095404.079000", "095404.082000", "095404.084000", "095404.087000", "095404.090000", "095404.092000", "095444.014000", "095444.017000", "095444.020000", "095444.025000", "095444.028000", "095444.031000", "095444.035000", "095444.039000", "095444.042000", "095444.045000", "095444.048000", "095444.052000", "095444.055000", "095444.058000", "095444.060000", "095444.064000", "095444.067000", "095444.074000", "095444.077000", "095444.089000", "095444.091000", "095444.094000", "095444.096000", "095444.099000", "095444.102000", "095444.104000", "095444.107000", "095444.110000", "095444.112000", "095444.115000", "095444.117000", "095444.120000", "095444.123000", "095444.365000"],
      "InstanceCreationTime": ["095244.014000", "095244.017000", "095244.020000", "095244.022000", "095244.025000", "095244.027000", "095244.030000", "095244.033000", "095244.035000", "095244.038000", "095244.043000", "095244.046000", "095244.049000", "095244.051000", "095244.054000", "095244.057000", "095244.059000", "095244.062000", "095244.064000", "095244.067000", "095244.070000", "095244.072000", "095244.075000", "095244.077000", "095324.010000", "095324.012000", "095324.015000", "095324.018000", "095324.020000", "095324.023000", "095324.026000", "095324.028000", "095324.031000", "095324.033000", "095324.036000", "095324.039000", "095324.041000", "095324.044000", "095324.047000", "095324.049000", "095324.052000", "095324.054000", "095324.057000", "095324.060000", "095324.062000", "095324.065000", "095324.068000", "095324.070000", "095324.073000", "095324.075000", "095324.078000", "095324.084000", "095324.087000", "095324.090000", "095324.092000", "095324.095000", "095324.097000", "095324.100000", "095404.009000", "095404.012000", "095404.015000", "095404.017000", "095404.020000", "095404.023000", "095404.025000", "095404.028000", "095404.030000", "095404.033000", "095404.036000", "095404.038000", "095404.041000", "095404.043000", "095404.046000", "095404.048000", "095404.051000", "095404.053000", "095404.056000", "095404.059000", "095404.061000", "095404.064000", "095404.066000", "095404.069000", "095404.072000", "095404.074000", "095404.077000", "095404.079000", "095404.082000", "095404.084000", "095404.087000", "095404.090000", "095404.092000", "095444.014000", "095444.017000", "095444.020000", "095444.025000", "095444.028000", "095444.031000", "095444.035000", "095444.039000", "095444.042000", "095444.045000", "095444.048000", "095444.052000", "095444.055000", "095444.058000", "095444.060000", "095444.064000", "095444.067000", "095444.074000", "095444.077000", "095444.089000", "095444.091000", "095444.094000", "095444.096000", "095444.099000", "095444.102000", "095444.104000", "095444.107000", "095444.110000", "095444.112000", "095444.115000", "095444.117000", "095444.120000", "095444.123000", "095444.365000"],
      "InstanceNumber": [1, 2, 3, 4, 5, 6, 7, 8, 9, 10, 11, 12, 13, 14, 15, 16, 17, 18, 19, 20, 21, 22, 23, 24, 25, 26, 27, 28, 29, 30, 31, 32, 33, 34, 35, 36, 37, 38, 39, 40, 41, 42, 43, 44, 45, 46, 47, 48, 49, 50, 51, 52, 53, 54, 55, 56, 57, 58, 59, 60, 61, 62, 63, 64, 65, 66, 67, 68, 69, 70, 71, 72, 73, 74, 75, 76, 77, 78, 79, 80, 81, 82, 83, 84, 85, 86, 87, 88, 89, 90, 91, 92, 93, 94, 95, 96, 97, 98, 99, 100, 101, 102, 103, 104, 105, 106, 107, 108, 109, 110, 111, 112, 113, 114, 115, 116, 117, 118, 119, 120, 121, 122, 123, 124, 125],
      "LargestImagePixelValue": [1775, 1739, 1734, 1726, 1738, 1733, 1751, 1750, 1750, 1737, 1715, 1722, 1728, 1736, 1749, 1738, 1757, 1759, 1735, 1746, 1743, 1739, 1741, 1737, 1752, 1751, 1746, 1750, 1742, 1766, 1762, 1764, 1745, 1736, 1714, 1730, 1719, 1720, 1705, 1706, 1717, 1708, 1711, 1706, 1717, 1718, 1736, 1740, 1745, 1733, 1719, 1734, 1735, 1724, 1714, 1724, 1723, 1730, 1710, 1717, 1734, 1712, 1729, 1731, 1726, 1727, 1727, 1733, 1727, 1721, 1725, 1724, 1714, 1727, 1720, 1718, 1724, 1712, 1717, 1718, 1716, 1718, 1727, 1736, 1724, 1724, 1721, 1716, 1734, 1734, 1738, 1717, 1732, 1718, 1724, 1722, 1731, 1739, 1749, 1739, 1733, 1720, 1725, 1721, 1718, 1718, 1724, 1728, 1724, 1726, 1739, 1732, 1718, 1714, 1715, 1713, 1719, 1721, 1724, 1714, 1724, 1731, 1731, 1720, 1729],
      "WindowCenter": [578.0, 575.0, 574.0, 573.0, 573.0, 573.0, 573.0, 574.0, 574.0, 573.0, 573.0, 573.0, 572.0, 572.0, 573.0, 573.0, 572.0, 572.0, 571.0, 570.0, 570.0, 571.0, 571.0, 572.0, 573.0, 573.0, 573.0, 573.0, 572.0, 572.0, 572.0, 572.0, 572.0, 573.0, 572.0, 573.0, 573.0, 573.0, 571.0, 570.0, 570.0, 569.0, 569.0, 569.0, 569.0, 569.0, 570.0, 570.0, 571.0, 571.0, 570.0, 570.0, 570.0, 568.0, 568.0, 568.0, 569.0, 569.0, 569.0, 570.0, 570.0, 570.0, 569.0, 570.0, 569.0, 570.0, 569.0, 570.0, 570.0, 570.0, 571.0, 571.0, 570.0, 570.0, 570.0, 570.0, 570.0, 570.0, 570.0, 570.0, 570.0, 570.0, 570.0, 571.0, 570.0, 570.0, 570.0, 571.0, 572.0, 572.0, 572.0, 571.0, 571.0, 570.0, 571.0, 571.0, 571.0, 572.0, 571.0, 571.0, 571.0, 571.0, 571.0, 571.0, 570.0, 571.0, 571.0, 571.0, 571.0, 572.0, 573.0, 573.0, 571.0, 570.0, 569.0, 568.0, 568.0, 569.0, 568.0, 569.0, 570.0, 571.0, 573.0, 574.0, 574.0],
      "WindowWidth": [1229.0, 1223.0, 1220.0, 1219.0, 1218.0, 1219.0, 1219.0, 1220.0, 1221.0, 1219.0, 1219.0, 1218.0, 1216.0, 1216.0, 1218.0, 1219.0, 1217.0, 1215.0, 1213.0, 1213.0, 1213.0, 1214.0, 1214.0, 1215.0, 1217.0, 1218.0, 1218.0, 1219.0, 1217.0, 1216.0, 1216.0, 1216.0, 1217.0, 1217.0, 1217.0, 1218.0, 1217.0, 1217.0, 1214.0, 1212.0, 1212.0, 1210.0, 1211.0, 1209.0, 1209.0, 1209.0, 1211.0, 1211.0, 1214.0, 1215.0, 1213.0, 1212.0, 1211.0, 1208.0, 1208.0, 1208.0, 1209.0, 1211.0, 1211.0, 1212.0, 1213.0, 1212.0, 1211.0, 1211.0, 1211.0, 1211.0, 1211.0, 1211.0, 1212.0, 1212.0, 1213.0, 1213.0, 1213.0, 1213.0, 1212.0, 1212.0, 1212.0, 1212.0, 1213.0, 1213.0, 1213.0, 1213.0, 1213.0, 1213.0, 1212.0, 1212.0, 1213.0, 1215.0, 1216.0, 1217.0, 1216.0, 1215.0, 1214.0, 1212.0, 1213.0, 1213.0, 1213.0, 1215.0, 1214.0, 1214.0, 1214.0, 1214.0, 1213.0, 1213.0, 1212.0, 1213.0, 1214.0, 1214.0, 1216.0, 1217.0, 1218.0, 1217.0, 1215.0, 1212.0, 1210.0, 1209.0, 1208.0, 1209.0, 1208.0, 1210.0, 1211.0, 1215.0, 1219.0, 1221.0, 1220.0]
    },
    "slices": {}
  }
}