{
  "AcquisitionMatrixPE": 88,
  "AcquisitionNumber": 1,
  "AcquisitionTime": "13:11:42.075000",
  "BandwidthPerPixelPhaseEncode": 19.592,
  "BaseResolution": 88,
  "BodyPartExamined": "BRAIN",
  "ConsistencyInfo": "N4_VE11C_LATEST_20160120",
  "ConversionSoftware": "dcm2niix",
  "ConversionSoftwareVersion": "v1.0.20190902",
  "DerivedVendorReportedEchoSpacing": 0.000580014,
  "DeviceSerialNumber": "67050",
  "DwellTime": 2.6e-06,
  "EchoTime": 0.033,
  "EchoTrainLength": 88,
  "EffectiveEchoSpacing": 0.000580014,
  "FlipAngle": 62,
  "ImageOrientationPatientDICOM": [0.998953, 0.0386617, -0.0244382, -0.039249, 0.99894, -0.0240308],
  "ImageType": [
    "ORIGINAL",
    "PRIMARY",
    "M",
    "ND",
    "MOSAIC"
],
  "ImagingFrequency": 123.251,
  "InPlanePhaseEncodingDirectionDICOM": "COL",
  "InstitutionAddress": "Olive_Street_60_Providence_RI_US_02912",
  "InstitutionName": "BROWN_UNIVERSITY_MRF",
  "InstitutionalDepartmentName": "Department",
  "MRAcquisitionType": "2D",
  "MagneticFieldStrength": 3,
  "Manufacturer": "Siemens",
  "ManufacturersModelName": "Prisma_fit",
  "Modality": "MR",
  "MultibandAccelerationFactor": 4,
  "PartialFourier": 1,
  "PatientPosition": "HFS",
  "PercentPhaseFOV": 100,
  "PhaseEncodingDirection": "j-",
  "PhaseEncodingSteps": 88,
  "PhaseResolution": 1,
  "PixelBandwidth": 2185,
  "ProcedureStepDescription": "ASHENHAV_1222",
  "ProtocolName": "func-bold_task-RDMcolor_run-02",
  "PulseSequenceDetails": "%SiemensSeq%_ep2d_bold",
  "ReceiveCoilActiveElements": "HC1-7",
  "ReceiveCoilName": "HeadNeck_64",
  "ReconMatrixPE": 88,
  "RefLinesPE": 8,
  "RepetitionTime": 1.2,
  "SAR": 0.0490988,
  "ScanOptions": "FS",
  "ScanningSequence": "EP",
  "SequenceName": "_epfid2d1_88",
  "SequenceVariant": "SK",
  "SeriesDescription": "func-bold_task-RDMcolor_run-02",
  "SeriesNumber": 10,
  "ShimSetting": [1753, -9128, 4445, 707, -67, -187, 31, -1],
  "SliceThickness": 2.4,
  "SliceTiming": [0.5525, 0, 0.63, 0.08, 0.71, 0.1575, 0.7875, 0.2375, 0.8675, 0.315, 0.945, 0.395, 1.025, 0.4725, 1.1025, 0.5525, 0, 0.63, 0.08, 0.71, 0.1575, 0.7875, 0.2375, 0.8675, 0.315, 0.945, 0.395, 1.025, 0.4725, 1.1025, 0.5525, 0, 0.63, 0.08, 0.71, 0.1575, 0.7875, 0.2375, 0.8675, 0.315, 0.945, 0.395, 1.025, 0.4725, 1.1025, 0.5525, 0, 0.63, 0.08, 0.71, 0.1575, 0.7875, 0.2375, 0.8675, 0.315, 0.945, 0.395, 1.025, 0.4725, 1.1025],
  "SoftwareVersions": "syngo_MR_E11",
  "SpacingBetweenSlices": 2.4,
  "StationName": "AWP67050",
  "TaskName": "RDMcolor",
  "TotalReadoutTime": 0.0504612,
  "TxRefAmp": 219.091,
  "dcmmeta_affine": [
    [-2.3952178955078125, -0.09410848468542099, -0.056359704583883286, 112.23524475097656],
    [-0.09270010888576508, 2.39518666267395, -0.05991552397608757, -89.46002960205078],
    [-0.05859607085585594, 0.05761924386024475, 2.398589849472046, -56.61228942871094],
    [0.0, 0.0, 0.0, 1.0]
],
  "dcmmeta_reorient_transform": [
    [0.0, -1.0, 0.0, 87.0],
    [1.0, 0.0, 0.0, 0.0],
    [0.0, 0.0, 1.0, 0.0],
    [0.0, 0.0, 0.0, 1.0]
],
  "dcmmeta_shape": [88, 88, 60, 392],
  "dcmmeta_slice_dim": 2,
  "dcmmeta_version": 0.6,
  "global": {
    "const": {
      "AcquisitionMatrix": [88, 0, 0, 88],
      "AngioFlag": "N",
      "BitsAllocated": 16,
      "BitsStored": 12,
      "BodyPartExamined": "BRAIN",
      "Columns": 704,
      "DeidentificationMethodCodeSequence": [
        {
          "CodeMeaning": "XNAT DicomEdit 6 Script",
          "CodeValue": "3",
          "CodingSchemeDesignator": "XNAT",
          "CodingSchemeVersion": "1.0"}
],
      "EchoNumbers": 1,
      "EchoTime": 33.0,
      "EchoTrainLength": 88,
      "FlipAngle": 62.0,
      "HighBit": 11,
      "ImageOrientationPatient": [0.99895347834848, 0.03866165837903, -0.0244381723303, -0.0392490378536, 0.99894045611404, -0.0240307753983],
      "ImagePositionPatient": [-812.78952617539, -885.19036887744, -15.805099111792],
      "ImageType": [
        "ORIGINAL",
        "PRIMARY",
        "M",
        "ND",
        "MOSAIC"
],
      "ImagedNucleus": "1H",
      "ImagingFrequency": 123.250733,
      "InPlanePhaseEncodingDirection": "COL",
      "MRAcquisitionType": "2D",
      "MagneticFieldStrength": 3.0,
      "Manufacturer": "SIEMENS",
      "ManufacturerModelName": "Prisma_fit",
      "Modality": "MR",
      "NumberOfAverages": 1.0,
      "NumberOfPhaseEncodingSteps": 88,
      "PercentPhaseFieldOfView": 100.0,
      "PercentSampling": 100.0,
      "PerformedProcedureStepStartTime": "124940.610000",
      "PhotometricInterpretation": "MONOCHROME2",
      "PixelBandwidth": 2185.0,
      "PixelRepresentation": 0,
      "PixelSpacing": [2.3977272510529, 2.3977272510529],
      "ProtocolName": "func-bold_task-RDMcolor_run-02",
      "RepetitionTime": 1200.0,
      "Rows": 704,
      "SAR": 0.04909876831772,
      "SamplesPerPixel": 1,
      "ScanOptions": "FS",
      "ScanningSequence": "EP",
      "SequenceName": "*epfid2d1_88",
      "SequenceVariant": "SK",
      "SeriesDescription": "func-bold_task-RDMcolor_run-02",
      "SeriesNumber": 10,
      "SeriesTime": "131146.883000",
      "SliceLocation": -56.981321649144,
      "SliceThickness": 2.4000000953674,
      "SmallestImagePixelValue": 0,
      "SoftwareVersions": "syngo MR E11",
      "SpacingBetweenSlices": 2.4000000156725,
      "SpecificCharacterSet": "ISO_IR 100",
      "StudyID": "1",
      "StudyTime": "124940.509000",
      "TransmitCoilName": "Body",
      "VariableFlipAngleFlag": "N",
      "WindowCenterWidthExplanation": "Algo1",
      "dBdt": 0.0},
    "slices": {}
  },
  "time": {
    "samples": {
      "AcquisitionNumber": [1, 2, 3, 4, 5, 6, 7, 8, 9, 10, 11, 12, 13, 14, 15, 16, 17, 18, 19, 20, 21, 22, 23, 24, 25, 26, 27, 28, 29, 30, 31, 32, 33, 34, 35, 36, 37, 38, 39, 40, 41, 42, 43, 44, 45, 46, 47, 48, 49, 50, 51, 52, 53, 54, 55, 56, 57, 58, 59, 60, 61, 62, 63, 64, 65, 66, 67, 68, 69, 70, 71, 72, 73, 74, 75, 76, 77, 78, 79, 80, 81, 82, 83, 84, 85, 86, 87, 88, 89, 90, 91, 92, 93, 94, 95, 96, 97, 98, 99, 100, 101, 102, 103, 104, 105, 106, 107, 108, 109, 110, 111, 112, 113, 114, 115, 116, 117, 118, 119, 120, 121, 122, 123, 124, 125, 126, 127, 128, 129, 130, 131, 132, 133, 134, 135, 136, 137, 138, 139, 140, 141, 142, 143, 144, 145, 146, 147, 148, 149, 150, 151, 152, 153, 154, 155, 156, 157, 158, 159, 160, 161, 162, 163, 164, 165, 166, 167, 168, 169, 170, 171, 172, 173, 174, 175, 176, 177, 178, 179, 180, 181, 182, 183, 184, 185, 186, 187, 188, 189, 190, 191, 192, 193, 194, 195, 196, 197, 198, 199, 200, 201, 202, 203, 204, 205, 206, 207, 208, 209, 210, 211, 212, 213, 214, 215, 216, 217, 218, 219, 220, 221, 222, 223, 224, 225, 226, 227, 228, 229, 230, 231, 232, 233, 234, 235, 236, 237, 238, 239, 240, 241, 242, 243, 244, 245, 246, 247, 248, 249, 250, 251, 252, 253, 254, 255, 256, 257, 258, 259, 260, 261, 262, 263, 264, 265, 266, 267, 268, 269, 270, 271, 272, 273, 274, 275, 276, 277, 278, 279, 280, 281, 282, 283, 284, 285, 286, 287, 288, 289, 290, 291, 292, 293, 294, 295, 296, 297, 298, 299, 300, 301, 302, 303, 304, 305, 306, 307, 308, 309, 310, 311, 312, 313, 314, 315, 316, 317, 318, 319, 320, 321, 322, 323, 324, 325, 326, 327, 328, 329, 330, 331, 332, 333, 334, 335, 336, 337, 338, 339, 340, 341, 342, 343, 344, 345, 346, 347, 348, 349, 350, 351, 352, 353, 354, 355, 356, 357, 358, 359, 360, 361, 362, 363, 364, 365, 366, 367, 368, 369, 370, 371, 372, 373, 374, 375, 376, 377, 378, 379, 380, 381, 382, 383, 384, 385, 386, 387, 388, 389, 390, 391, 392],
      "AcquisitionTime": ["131142.075000", "131143.275000", "131144.475000", "131145.675000", "131146.875000", "131148.075000", "131149.275000", "131150.475000", "131151.675000", "131152.875000", "131154.075000", "131155.275000", "131156.475000", "131157.675000", "131158.875000", "131200.075000", "131201.275000", "131202.475000", "131203.675000", "131204.875000", "131206.075000", "131207.275000", "131208.475000", "131209.675000", "131210.875000", "131212.075000", "131213.275000", "131214.475000", "131215.675000", "131216.875000", "131218.075000", "131219.275000", "131220.475000", "131221.675000", "131222.875000", "131224.075000", "131225.275000", "131226.475000", "131227.675000", "131228.875000", "131230.075000", "131231.275000", "131232.475000", "131233.675000", "131234.875000", "131236.075000", "131237.275000", "131238.475000", "131239.675000", "131240.875000", "131242.075000", "131243.275000", "131244.475000", "131245.675000", "131246.875000", "131248.075000", "131249.275000", "131250.475000", "131251.675000", "131252.875000", "131254.075000", "131255.275000", "131256.475000", "131257.675000", "131258.875000", "131300.075000", "131301.275000", "131302.475000", "131303.675000", "131304.875000", "131306.075000", "131307.275000", "131308.475000", "131309.675000", "131310.875000", "131312.075000", "131313.275000", "131314.475000", "131315.675000", "131316.875000", "131318.075000", "131319.275000", "131320.475000", "131321.675000", "131322.875000", "131324.075000", "131325.275000", "131326.475000", "131327.675000", "131328.875000", "131330.075000", "131331.275000", "131332.475000", "131333.675000", "131334.875000", "131336.075000", "131337.275000", "131338.475000", "131339.675000", "131340.875000", "131342.075000", "131343.275000", "131344.475000", "131345.675000", "131346.875000", "131348.075000", "131349.275000", "131350.475000", "131351.675000", "131352.875000", "131354.075000", "131355.275000", "131356.475000", "131357.675000", "131358.875000", "131400.075000", "131401.275000", "131402.475000", "131403.675000", "131404.875000", "131406.075000", "131407.275000", "131408.475000", "131409.675000", "131410.875000", "131412.075000", "131413.275000", "131414.475000", "131415.675000", "131416.875000", "131418.075000", "131419.275000", "131420.475000", "131421.675000", "131422.875000", "131424.075000", "131425.275000", "131426.475000", "131427.675000", "131428.875000", "131430.075000", "131431.275000", "131432.475000", "131433.675000", "131434.875000", "131436.075000", "131437.275000", "131438.475000", "131439.675000", "131440.875000", "131442.075000", "131443.275000", "131444.475000", "131445.675000", "131446.875000", "131448.075000", "131449.275000", "131450.475000", "131451.675000", "131452.875000", "131454.075000", "131455.275000", "131456.475000", "131457.675000", "131458.875000", "131500.075000", "131501.275000", "131502.475000", "131503.675000", "131504.875000", "131506.075000", "131507.275000", "131508.475000", "131509.675000", "131510.875000", "131512.075000", "131513.275000", "131514.475000", "131515.675000", "131516.875000", "131518.075000", "131519.275000", "131520.475000", "131521.675000", "131522.875000", "131524.075000", "131525.275000", "131526.475000", "131527.675000", "131528.875000", "131530.075000", "131531.275000", "131532.475000", "131533.675000", "131534.875000", "131536.075000", "131537.275000", "131538.475000", "131539.675000", "131540.875000", "131542.075000", "131543.275000", "131544.475000", "131545.675000", "131546.875000", "131548.075000", "131549.275000", "131550.475000", "131551.675000", "131552.875000", "131554.075000", "131555.275000", "131556.475000", "131557.675000", "131558.875000", "131600.075000", "131601.275000", "131602.475000", "131603.675000", "131604.875000", "131606.075000", "131607.275000", "131608.475000", "131609.675000", "131610.875000", "131612.075000", "131613.275000", "131614.475000", "131615.675000", "131616.875000", "131618.075000", "131619.275000", "131620.475000", "131621.675000", "131622.875000", "131624.075000", "131625.275000", "131626.475000", "131627.675000", "131628.875000", "131630.075000", "131631.275000", "131632.475000", "131633.675000", "131634.875000", "131636.075000", "131637.275000", "131638.475000", "131639.675000", "131640.875000", "131642.075000", "131643.275000", "131644.475000", "131645.675000", "131646.875000", "131648.075000", "131649.275000", "131650.475000", "131651.675000", "131652.875000", "131654.075000", "131655.275000", "131656.475000", "131657.675000", "131658.875000", "131700.075000", "131701.275000", "131702.475000", "131703.675000", "131704.875000", "131706.075000", "131707.275000", "131708.475000", "131709.675000", "131710.875000", "131712.075000", "131713.275000", "131714.475000", "131715.675000", "131716.875000", "131718.075000", "131719.275000", "131720.475000", "131721.675000", "131722.875000", "131724.075000", "131725.275000", "131726.475000", "131727.675000", "131728.875000", "131730.075000", "131731.275000", "131732.475000", "131733.675000", "131734.875000", "131736.075000", "131737.275000", "131738.475000", "131739.675000", "131740.875000", "131742.075000", "131743.275000", "131744.475000", "131745.675000", "131746.875000", "131748.075000", "131749.275000", "131750.475000", "131751.675000", "131752.875000", "131754.075000", "131755.275000", "131756.475000", "131757.675000", "131758.875000", "131800.075000", "131801.275000", "131802.475000", "131803.675000", "131804.875000", "131806.075000", "131807.275000", "131808.475000", "131809.675000", "131810.875000", "131812.075000", "131813.275000", "131814.475000", "131815.675000", "131816.875000", "131818.075000", "131819.275000", "131820.475000", "131821.675000", "131822.875000", "131824.075000", "131825.275000", "131826.475000", "131827.675000", "131828.875000", "131830.075000", "131831.275000", "131832.475000", "131833.675000", "131834.875000", "131836.075000", "131837.275000", "131838.475000", "131839.675000", "131840.875000", "131842.075000", "131843.275000", "131844.475000", "131845.675000", "131846.875000", "131848.075000", "131849.275000", "131850.475000", "131851.675000", "131852.875000", "131854.075000", "131855.275000", "131856.475000", "131857.675000", "131858.875000", "131900.075000", "131901.275000", "131902.475000", "131903.675000", "131904.875000", "131906.075000", "131907.275000", "131908.475000", "131909.675000", "131910.875000", "131912.075000", "131913.275000", "131914.475000", "131915.675000", "131916.875000", "131918.075000", "131919.275000", "131920.475000", "131921.675000", "131922.875000", "131924.075000", "131925.275000", "131926.475000", "131927.675000", "131928.875000", "131930.075000", "131931.275000"],
      "ContentTime": ["131146.886000", "131146.890000", "131146.892000", "131226.871000", "131226.874000", "131226.877000", "131226.879000", "131226.882000", "131226.884000", "131226.887000", "131226.889000", "131226.892000", "131226.895000", "131226.897000", "131226.900000", "131226.902000", "131226.905000", "131226.908000", "131226.910000", "131226.913000", "131226.915000", "131226.918000", "131226.927000", "131226.930000", "131226.932000", "131226.935000", "131226.937000", "131226.940000", "131226.945000", "131226.948000", "131226.950000", "131226.953000", "131226.956000", "131226.958000", "131226.961000", "131226.963000", "131226.966000", "131306.871000", "131306.874000", "131306.877000", "131306.879000", "131306.882000", "131306.884000", "131306.887000", "131306.889000", "131306.892000", "131306.895000", "131306.897000", "131306.900000", "131306.903000", "131306.905000", "131306.908000", "131306.910000", "131306.913000", "131306.915000", "131306.918000", "131306.920000", "131306.923000", "131306.926000", "131306.928000", "131306.931000", "131306.935000", "131306.937000", "131306.940000", "131306.942000", "131306.945000", "131306.948000", "131306.950000", "131306.953000", "131306.955000", "131346.871000", "131346.874000", "131346.876000", "131346.879000", "131346.881000", "131346.884000", "131346.887000", "131346.889000", "131346.892000", "131346.894000", "131346.897000", "131346.899000", "131346.902000", "131346.905000", "131346.907000", "131346.910000", "131346.913000", "131346.915000", "131346.918000", "131346.921000", "131346.923000", "131346.926000", "131346.928000", "131346.931000", "131346.934000", "131346.937000", "131346.942000", "131346.944000", "131346.947000", "131346.949000", "131346.952000", "131346.954000", "131346.957000", "131426.871000", "131426.874000", "131426.877000", "131426.879000", "131426.882000", "131426.885000", "131426.887000", "131426.890000", "131426.892000", "131426.895000", "131426.897000", "131426.900000", "131426.903000", "131426.905000", "131426.908000", "131426.910000", "131426.913000", "131426.916000", "131426.918000", "131426.921000", "131426.923000", "131426.926000", "131426.928000", "131426.931000", "131426.934000", "131426.936000", "131426.939000", "131426.941000", "131426.944000", "131426.946000", "131426.949000", "131426.955000", "131426.957000", "131426.960000", "131506.871000", "131506.874000", "131506.877000", "131506.879000", "131506.882000", "131506.884000", "131506.887000", "131506.890000", "131506.892000", "131506.895000", "131506.897000", "131506.900000", "131506.902000", "131506.905000", "131506.907000", "131506.910000", "131506.913000", "131506.915000", "131506.918000", "131506.920000", "131506.923000", "131506.926000", "131506.928000", "131506.931000", "131506.934000", "131506.937000", "131506.939000", "131506.942000", "131506.945000", "131506.947000", "131506.950000", "131506.952000", "131506.955000", "131546.871000", "131546.874000", "131546.877000", "131546.879000", "131546.882000", "131546.884000", "131546.887000", "131546.890000", "131546.892000", "131546.895000", "131546.898000", "131546.901000", "131546.904000", "131546.907000", "131546.910000", "131546.912000", "131546.915000", "131546.918000", "131546.921000", "131546.923000", "131546.926000", "131546.928000", "131546.931000", "131546.933000", "131546.936000", "131546.938000", "131546.956000", "131546.958000", "131546.961000", "131546.963000", "131546.966000", "131546.969000", "131546.971000", "131626.871000", "131626.874000", "131626.876000", "131626.879000", "131626.881000", "131626.890000", "131626.892000", "131626.895000", "131626.897000", "131626.900000", "131626.903000", "131626.905000", "131626.908000", "131626.911000", "131626.913000", "131626.916000", "131626.918000", "131626.921000", "131626.923000", "131626.926000", "131626.929000", "131626.931000", "131626.934000", "131626.936000", "131626.939000", "131626.941000", "131626.944000", "131626.946000", "131626.949000", "131626.952000", "131626.954000", "131626.957000", "131626.959000", "131626.962000", "131706.872000", "131706.874000", "131706.877000", "131706.880000", "131706.882000", "131706.885000", "131706.888000", "131706.898000", "131706.900000", "131706.903000", "131706.905000", "131706.908000", "131706.910000", "131706.913000", "131706.916000", "131706.918000", "131706.921000", "131706.923000", "131706.926000", "131706.929000", "131706.931000", "131706.935000", "131706.937000", "131706.940000", "131706.943000", "131706.945000", "131706.948000", "131706.950000", "131706.953000", "131706.956000", "131706.958000", "131706.961000", "131706.963000", "131746.871000", "131746.874000", "131746.877000", "131746.880000", "131746.882000", "131746.885000", "131746.887000", "131746.890000", "131746.893000", "131746.895000", "131746.898000", "131746.901000", "131746.904000", "131746.907000", "131746.909000", "131746.912000", "131746.915000", "131746.918000", "131746.920000", "131746.923000", "131746.926000", "131746.928000", "131746.931000", "131746.933000", "131746.936000", "131746.939000", "131746.941000", "131746.944000", "131746.951000", "131746.954000", "131746.956000", "131746.959000", "131746.961000", "131826.871000", "131826.873000", "131826.876000", "131826.879000", "131826.882000", "131826.884000", "131826.887000", "131826.890000", "131826.892000", "131826.895000", "131826.897000", "131826.900000", "131826.903000", "131826.905000", "131826.908000", "131826.911000", "131826.913000", "131826.916000", "131826.918000", "131826.921000", "131826.924000", "131826.926000", "131826.929000", "131826.931000", "131826.934000", "131826.937000", "131826.939000", "131826.942000", "131826.944000", "131826.947000", "131826.949000", "131826.952000", "131826.955000", "131826.957000", "131906.872000", "131906.874000", "131906.877000", "131906.880000", "131906.883000", "131906.885000", "131906.888000", "131906.890000", "131906.893000", "131906.895000", "131906.898000", "131906.901000", "131906.903000", "131906.906000", "131906.908000", "131906.911000", "131906.914000", "131906.916000", "131906.919000", "131906.921000", "131906.924000", "131906.926000", "131906.929000", "131906.932000", "131906.935000", "131906.938000", "131906.940000", "131906.943000", "131906.945000", "131906.948000", "131906.951000", "131906.953000", "131906.956000", "131932.534000", "131932.537000", "131932.540000", "131932.543000", "131932.545000", "131932.548000", "131932.550000", "131932.558000", "131932.560000", "131932.563000", "131932.566000", "131932.568000", "131932.571000", "131932.573000", "131932.576000", "131932.579000", "131932.581000", "131932.584000", "131932.587000", "131932.589000", "131932.592000", "131932.594000"],
      "InstanceCreationTime": ["131146.886000", "131146.890000", "131146.892000", "131226.871000", "131226.874000", "131226.877000", "131226.879000", "131226.882000", "131226.884000", "131226.887000", "131226.889000", "131226.892000", "131226.895000", "131226.897000", "131226.900000", "131226.902000", "131226.905000", "131226.908000", "131226.910000", "131226.913000", "131226.915000", "131226.918000", "131226.927000", "131226.930000", "131226.932000", "131226.935000", "131226.937000", "131226.940000", "131226.945000", "131226.948000", "131226.950000", "131226.953000", "131226.956000", "131226.958000", "131226.961000", "131226.963000", "131226.966000", "131306.871000", "131306.874000", "131306.877000", "131306.879000", "131306.882000", "131306.884000", "131306.887000", "131306.889000", "131306.892000", "131306.895000", "131306.897000", "131306.900000", "131306.903000", "131306.905000", "131306.908000", "131306.910000", "131306.913000", "131306.915000", "131306.918000", "131306.920000", "131306.923000", "131306.926000", "131306.928000", "131306.931000", "131306.935000", "131306.937000", "131306.940000", "131306.942000", "131306.945000", "131306.948000", "131306.950000", "131306.953000", "131306.955000", "131346.871000", "131346.874000", "131346.876000", "131346.879000", "131346.881000", "131346.884000", "131346.887000", "131346.889000", "131346.892000", "131346.894000", "131346.897000", "131346.899000", "131346.902000", "131346.905000", "131346.907000", "131346.910000", "131346.913000", "131346.915000", "131346.918000", "131346.921000", "131346.923000", "131346.926000", "131346.928000", "131346.931000", "131346.934000", "131346.937000", "131346.942000", "131346.944000", "131346.947000", "131346.949000", "131346.952000", "131346.954000", "131346.957000", "131426.871000", "131426.874000", "131426.877000", "131426.879000", "131426.882000", "131426.885000", "131426.887000", "131426.890000", "131426.892000", "131426.895000", "131426.897000", "131426.900000", "131426.903000", "131426.905000", "131426.908000", "131426.910000", "131426.913000", "131426.916000", "131426.918000", "131426.921000", "131426.923000", "131426.926000", "131426.928000", "131426.931000", "131426.934000", "131426.936000", "131426.939000", "131426.941000", "131426.944000", "131426.946000", "131426.949000", "131426.955000", "131426.957000", "131426.960000", "131506.871000", "131506.874000", "131506.877000", "131506.879000", "131506.882000", "131506.884000", "131506.887000", "131506.890000", "131506.892000", "131506.895000", "131506.897000", "131506.900000", "131506.902000", "131506.905000", "131506.907000", "131506.910000", "131506.913000", "131506.915000", "131506.918000", "131506.920000", "131506.923000", "131506.926000", "131506.928000", "131506.931000", "131506.934000", "131506.937000", "131506.939000", "131506.942000", "131506.945000", "131506.947000", "131506.950000", "131506.952000", "131506.955000", "131546.871000", "131546.874000", "131546.877000", "131546.879000", "131546.882000", "131546.884000", "131546.887000", "131546.890000", "131546.892000", "131546.895000", "131546.898000", "131546.901000", "131546.904000", "131546.907000", "131546.910000", "131546.912000", "131546.915000", "131546.918000", "131546.921000", "131546.923000", "131546.926000", "131546.928000", "131546.931000", "131546.933000", "131546.936000", "131546.938000", "131546.956000", "131546.958000", "131546.961000", "131546.963000", "131546.966000", "131546.969000", "131546.971000", "131626.871000", "131626.874000", "131626.876000", "131626.879000", "131626.881000", "131626.890000", "131626.892000", "131626.895000", "131626.897000", "131626.900000", "131626.903000", "131626.905000", "131626.908000", "131626.911000", "131626.913000", "131626.916000", "131626.918000", "131626.921000", "131626.923000", "131626.926000", "131626.929000", "131626.931000", "131626.934000", "131626.936000", "131626.939000", "131626.941000", "131626.944000", "131626.946000", "131626.949000", "131626.952000", "131626.954000", "131626.957000", "131626.959000", "131626.962000", "131706.872000", "131706.874000", "131706.877000", "131706.880000", "131706.882000", "131706.885000", "131706.888000", "131706.898000", "131706.900000", "131706.903000", "131706.905000", "131706.908000", "131706.910000", "131706.913000", "131706.916000", "131706.918000", "131706.921000", "131706.923000", "131706.926000", "131706.929000", "131706.931000", "131706.935000", "131706.937000", "131706.940000", "131706.943000", "131706.945000", "131706.948000", "131706.950000", "131706.953000", "131706.956000", "131706.958000", "131706.961000", "131706.963000", "131746.871000", "131746.874000", "131746.877000", "131746.880000", "131746.882000", "131746.885000", "131746.887000", "131746.890000", "131746.893000", "131746.895000", "131746.898000", "131746.901000", "131746.904000", "131746.907000", "131746.909000", "131746.912000", "131746.915000", "131746.918000", "131746.920000", "131746.923000", "131746.926000", "131746.928000", "131746.931000", "131746.933000", "131746.936000", "131746.939000", "131746.941000", "131746.944000", "131746.951000", "131746.954000", "131746.956000", "131746.959000", "131746.961000", "131826.871000", "131826.873000", "131826.876000", "131826.879000", "131826.882000", "131826.884000", "131826.887000", "131826.890000", "131826.892000", "131826.895000", "131826.897000", "131826.900000", "131826.903000", "131826.905000", "131826.908000", "131826.911000", "131826.913000", "131826.916000", "131826.918000", "131826.921000", "131826.924000", "131826.926000", "131826.929000", "131826.931000", "131826.934000", "131826.937000", "131826.939000", "131826.942000", "131826.944000", "131826.947000", "131826.949000", "131826.952000", "131826.955000", "131826.957000", "131906.872000", "131906.874000", "131906.877000", "131906.880000", "131906.883000", "131906.885000", "131906.888000", "131906.890000", "131906.893000", "131906.895000", "131906.898000", "131906.901000", "131906.903000", "131906.906000", "131906.908000", "131906.911000", "131906.914000", "131906.916000", "131906.919000", "131906.921000", "131906.924000", "131906.926000", "131906.929000", "131906.932000", "131906.935000", "131906.938000", "131906.940000", "131906.943000", "131906.945000", "131906.948000", "131906.951000", "131906.953000", "131906.956000", "131932.534000", "131932.537000", "131932.540000", "131932.543000", "131932.545000", "131932.548000", "131932.550000", "131932.558000", "131932.560000", "131932.563000", "131932.566000", "131932.568000", "131932.571000", "131932.573000", "131932.576000", "131932.579000", "131932.581000", "131932.584000", "131932.587000", "131932.589000", "131932.592000", "131932.594000"],
      "InstanceNumber": [1, 2, 3, 4, 5, 6, 7, 8, 9, 10, 11, 12, 13, 14, 15, 16, 17, 18, 19, 20, 21, 22, 23, 24, 25, 26, 27, 28, 29, 30, 31, 32, 33, 34, 35, 36, 37, 38, 39, 40, 41, 42, 43, 44, 45, 46, 47, 48, 49, 50, 51, 52, 53, 54, 55, 56, 57, 58, 59, 60, 61, 62, 63, 64, 65, 66, 67, 68, 69, 70, 71, 72, 73, 74, 75, 76, 77, 78, 79, 80, 81, 82, 83, 84, 85, 86, 87, 88, 89, 90, 91, 92, 93, 94, 95, 96, 97, 98, 99, 100, 101, 102, 103, 104, 105, 106, 107, 108, 109, 110, 111, 112, 113, 114, 115, 116, 117, 118, 119, 120, 121, 122, 123, 124, 125, 126, 127, 128, 129, 130, 131, 132, 133, 134, 135, 136, 137, 138, 139, 140, 141, 142, 143, 144, 145, 146, 147, 148, 149, 150, 151, 152, 153, 154, 155, 156, 157, 158, 159, 160, 161, 162, 163, 164, 165, 166, 167, 168, 169, 170, 171, 172, 173, 174, 175, 176, 177, 178, 179, 180, 181, 182, 183, 184, 185, 186, 187, 188, 189, 190, 191, 192, 193, 194, 195, 196, 197, 198, 199, 200, 201, 202, 203, 204, 205, 206, 207, 208, 209, 210, 211, 212, 213, 214, 215, 216, 217, 218, 219, 220, 221, 222, 223, 224, 225, 226, 227, 228, 229, 230, 231, 232, 233, 234, 235, 236, 237, 238, 239, 240, 241, 242, 243, 244, 245, 246, 247, 248, 249, 250, 251, 252, 253, 254, 255, 256, 257, 258, 259, 260, 261, 262, 263, 264, 265, 266, 267, 268, 269, 270, 271, 272, 273, 274, 275, 276, 277, 278, 279, 280, 281, 282, 283, 284, 285, 286, 287, 288, 289, 290, 291, 292, 293, 294, 295, 296, 297, 298, 299, 300, 301, 302, 303, 304, 305, 306, 307, 308, 309, 310, 311, 312, 313, 314, 315, 316, 317, 318, 319, 320, 321, 322, 323, 324, 325, 326, 327, 328, 329, 330, 331, 332, 333, 334, 335, 336, 337, 338, 339, 340, 341, 342, 343, 344, 345, 346, 347, 348, 349, 350, 351, 352, 353, 354, 355, 356, 357, 358, 359, 360, 361, 362, 363, 364, 365, 366, 367, 368, 369, 370, 371, 372, 373, 374, 375, 376, 377, 378, 379, 380, 381, 382, 383, 384, 385, 386, 387, 388, 389, 390, 391, 392],
