{
  "AcquisitionMatrixPE": 88,
  "AcquisitionNumber": 1,
  "AcquisitionTime": "13:20:20.732500",
  "BandwidthPerPixelPhaseEncode": 19.592,
  "BaseResolution": 88,
  "BodyPartExamined": "BRAIN",
  "ConsistencyInfo": "N4_VE11C_LATEST_20160120",
  "ConversionSoftware": "dcm2niix",
  "ConversionSoftwareVersion": "v1.0.20190902",
  "DerivedVendorReportedEchoSpacing": 0.000580014,
  "DeviceSerialNumber": "67050",
  "DwellTime": 2.6e-06,
  "EchoTime": 0.033,
  "EchoTrainLength": 88,
  "EffectiveEchoSpacing": 0.000580014,
  "FlipAngle": 62,
  "ImageOrientationPatientDICOM": [0.998953, 0.0386617, -0.0244382, -0.039249, 0.99894, -0.0240308],
  "ImageType": [
    "ORIGINAL",
    "PRIMARY",
    "M",
    "ND",
    "MOSAIC"
],
  "ImagingFrequency": 123.251,
  "InPlanePhaseEncodingDirectionDICOM": "COL",
  "InstitutionAddress": "Olive_Street_60_Providence_RI_US_02912",
  "InstitutionName": "BROWN_UNIVERSITY_MRF",
  "InstitutionalDepartmentName": "Department",
  "MRAcquisitionType": "2D",
  "MagneticFieldStrength": 3,
  "Manufacturer": "Siemens",
  "ManufacturersModelName": "Prisma_fit",
  "Modality": "MR",
  "MultibandAccelerationFactor": 4,
  "PartialFourier": 1,
  "PatientPosition": "HFS",
  "PercentPhaseFOV": 100,
  "PhaseEncodingDirection": "j-",
  "PhaseEncodingSteps": 88,
  "PhaseResolution": 1,
  "PixelBandwidth": 2185,
  "ProcedureStepDescription": "ASHENHAV_1222",
  "ProtocolName": "func-bold_task-RDMmotion_run-03",
  "PulseSequenceDetails": "%SiemensSeq%_ep2d_bold",
  "ReceiveCoilActiveElements": "HC1-7",
  "ReceiveCoilName": "HeadNeck_64",
  "ReconMatrixPE": 88,
  "RefLinesPE": 8,
  "RepetitionTime": 1.2,
  "SAR": 0.0486004,
  "ScanOptions": "FS",
  "ScanningSequence": "EP",
  "SequenceName": "_epfid2d1_88",
  "SequenceVariant": "SK",
  "SeriesDescription": "func-bold_task-RDMmotion_run-03",
  "SeriesNumber": 11,
  "ShimSetting": [1753, -9128, 4445, 707, -67, -187, 31, -1],
  "SliceThickness": 2.4,
  "SliceTiming": [0.5525, 0, 0.63, 0.08, 0.71, 0.1575, 0.7875, 0.2375, 0.865, 0.315, 0.945, 0.395, 1.0225, 0.4725, 1.1025, 0.5525, 0, 0.63, 0.08, 0.71, 0.1575, 0.7875, 0.2375, 0.865, 0.315, 0.945, 0.395, 1.0225, 0.4725, 1.1025, 0.5525, 0, 0.63, 0.08, 0.71, 0.1575, 0.7875, 0.2375, 0.865, 0.315, 0.945, 0.395, 1.0225, 0.4725, 1.1025, 0.5525, 0, 0.63, 0.08, 0.71, 0.1575, 0.7875, 0.2375, 0.865, 0.315, 0.945, 0.395, 1.0225, 0.4725, 1.1025],
  "SoftwareVersions": "syngo_MR_E11",
  "SpacingBetweenSlices": 2.4,
  "StationName": "AWP67050",
  "TaskName": "RDMmotion",
  "TotalReadoutTime": 0.0504612,
  "TxRefAmp": 219.091,
  "dcmmeta_affine": [
    [-2.3952178955078125, -0.09410848468542099, -0.056359704583883286, 112.23524475097656],
    [-0.09270010888576508, 2.39518666267395, -0.05991552397608757, -89.46002960205078],
    [-0.05859607085585594, 0.05761924386024475, 2.398589849472046, -56.61228942871094],
    [0.0, 0.0, 0.0, 1.0]
],
  "dcmmeta_reorient_transform": [
    [0.0, -1.0, 0.0, 87.0],
    [1.0, 0.0, 0.0, 0.0],
    [0.0, 0.0, 1.0, 0.0],
    [0.0, 0.0, 0.0, 1.0]
],
  "dcmmeta_shape": [88, 88, 60, 125],
  "dcmmeta_slice_dim": 2,
  "dcmmeta_version": 0.6,
  "global": {
    "const": {
      "AcquisitionMatrix": [88, 0, 0, 88],
      "AngioFlag": "N",
      "BitsAllocated": 16,
      "BitsStored": 12,
      "BodyPartExamined": "BRAIN",
      "Columns": 704,
      "DeidentificationMethodCodeSequence": [
        {
          "CodeMeaning": "XNAT DicomEdit 6 Script",
          "CodeValue": "3",
          "CodingSchemeDesignator": "XNAT",
          "CodingSchemeVersion": "1.0"}
],
      "EchoNumbers": 1,
      "EchoTime": 33.0,
      "EchoTrainLength": 88,
      "FlipAngle": 62.0,
      "HighBit": 11,
      "ImageOrientationPatient": [0.99895347834848, 0.03866165837903, -0.0244381723303, -0.0392490378536, 0.99894045611404, -0.0240307753983],
      "ImagePositionPatient": [-812.78952617539, -885.19036887744, -15.805099111792],
      "ImageType": [
        "ORIGINAL",
        "PRIMARY",
        "M",
        "ND",
        "MOSAIC"
],
      "ImagedNucleus": "1H",
      "ImagingFrequency": 123.250735,
      "InPlanePhaseEncodingDirection": "COL",
      "MRAcquisitionType": "2D",
      "MagneticFieldStrength": 3.0,
      "Manufacturer": "SIEMENS",
      "ManufacturerModelName": "Prisma_fit",
      "Modality": "MR",
      "NumberOfAverages": 1.0,
      "NumberOfPhaseEncodingSteps": 88,
      "PercentPhaseFieldOfView": 100.0,
      "PercentSampling": 100.0,
      "PerformedProcedureStepStartTime": "124940.610000",
      "PhotometricInterpretation": "MONOCHROME2",
      "PixelBandwidth": 2185.0,
      "PixelRepresentation": 0,
      "PixelSpacing": [2.3977272510529, 2.3977272510529],
      "ProtocolName": "func-bold_task-RDMmotion_run-03",
      "RepetitionTime": 1200.0,
      "Rows": 704,
      "SAR": 0.0486003956527,
      "SamplesPerPixel": 1,
      "ScanOptions": "FS",
      "ScanningSequence": "EP",
      "SequenceName": "*epfid2d1_88",
      "SequenceVariant": "SK",
      "SeriesDescription": "func-bold_task-RDMmotion_run-03",
      "SeriesNumber": 11,
      "SeriesTime": "132057.973000",
      "SliceLocation": -56.981321649144,
      "SliceThickness": 2.4000000953674,
      "SmallestImagePixelValue": 0,
      "SoftwareVersions": "syngo MR E11",
      "SpacingBetweenSlices": 2.4000000156725,
      "SpecificCharacterSet": "ISO_IR 100",
      "StudyID": "1",
      "StudyTime": "124940.509000",
      "TransmitCoilName": "Body",
      "VariableFlipAngleFlag": "N",
      "WindowCenterWidthExplanation": "Algo1",
      "dBdt": 0.0},
    "slices": {}
  },
  "time": {
    "samples": {
      "AcquisitionNumber": [1, 2, 3, 4, 5, 6, 7, 8, 9, 10, 11, 12, 13, 14, 15, 16, 17, 18, 19, 20, 21, 22, 23, 24, 25, 26, 27, 28, 29, 30, 31, 32, 33, 34, 35, 36, 37, 38, 39, 40, 41, 42, 43, 44, 45, 46, 47, 48, 49, 50, 51, 52, 53, 54, 55, 56, 57, 58, 59, 60, 61, 62, 63, 64, 65, 66, 67, 68, 69, 70, 71, 72, 73, 74, 75, 76, 77, 78, 79, 80, 81, 82, 83, 84, 85, 86, 87, 88, 89, 90, 91, 92, 93, 94, 95, 96, 97, 98, 99, 100, 101, 102, 103, 104, 105, 106, 107, 108, 109, 110, 111, 112, 113, 114, 115, 116, 117, 118, 119, 120, 121, 122, 123, 124, 125],
      "AcquisitionTime": ["132020.732500", "132021.932500", "132023.132500", "132024.332500", "132025.532500", "132026.732500", "132027.932500", "132029.132500", "132030.332500", "132031.532500", "132032.732500", "132033.932500", "132035.132500", "132036.332500", "132037.532500", "132038.732500", "132039.932500", "132041.132500", "132042.332500", "132043.532500", "132044.732500", "132045.932500", "132047.132500", "132048.332500", "132049.532500", "132050.732500", "132051.932500", "132053.132500", "132054.332500", "132055.532500", "132056.732500", "132057.932500", "132059.132500", "132100.332500", "132101.532500", "132102.732500", "132103.932500", "132105.132500", "132106.332500", "132107.532500", "132108.732500", "132109.932500", "132111.132500", "132112.332500", "132113.532500", "132114.732500", "132115.932500", "132117.132500", "132118.332500", "132119.532500", "132120.732500", "132121.932500", "132123.132500", "132124.332500", "132125.532500", "132126.732500", "132127.932500", "132129.132500", "132130.332500", "132131.532500", "132132.732500", "132133.932500", "132135.132500", "132136.332500", "132137.532500", "132138.732500", "132139.932500", "132141.132500", "132142.332500", "132143.532500", "132144.732500", "132145.932500", "132147.132500", "132148.332500", "132149.532500", "132150.732500", "132151.932500", "132153.132500", "132154.332500", "132155.532500", "132156.732500", "132157.932500", "132159.132500", "132200.332500", "132201.532500", "132202.732500", "132203.932500", "132205.132500", "132206.332500", "132207.532500", "132208.732500", "132209.932500", "132211.132500", "132212.332500", "132213.532500", "132214.732500", "132215.932500", "132217.132500", "132218.332500", "132219.532500", "132220.732500", "132221.932500", "132223.132500", "132224.332500", "132225.532500", "132226.732500", "132227.932500", "132229.132500", "132230.332500", "132231.532500", "132232.732500", "132233.932500", "132235.132500", "132236.332500", "132237.532500", "132238.732500", "132239.932500", "132241.132500", "132242.332500", "132243.532500", "132244.732500", "132245.932500", "132247.132500", "132248.332500", "132249.532500"],
      "ContentTime": ["132057.977000", "132057.980000", "132057.983000", "132057.985000", "132057.988000", "132057.991000", "132057.993000", "132057.996000", "132057.998000", "132058.001000", "132058.009000", "132058.012000", "132058.015000", "132058.017000", "132058.020000", "132058.022000", "132058.025000", "132058.028000", "132058.030000", "132058.033000", "132058.035000", "132058.038000", "132058.041000", "132058.043000", "132058.046000", "132058.049000", "132058.051000", "132058.054000", "132058.057000", "132058.059000", "132137.973000", "132137.976000", "132137.978000", "132137.981000", "132137.984000", "132137.986000", "132137.989000", "132137.991000", "132137.994000", "132137.997000", "132138.007000", "132138.009000", "132138.012000", "132138.014000", "132138.017000", "132138.020000", "132138.022000", "132138.025000", "132138.028000", "132138.030000", "132138.033000", "132138.036000", "132138.038000", "132138.041000", "132138.044000", "132138.046000", "132138.049000", "132138.052000", "132138.054000", "132138.057000", "132138.059000", "132138.062000", "132138.065000", "132217.972000", "132217.975000", "132217.978000", "132217.981000", "132217.983000", "132217.986000", "132217.989000", "132217.991000", "132217.994000", "132217.997000", "132218.000000", "132218.003000", "132218.005000", "132218.008000", "132218.011000", "132218.013000", "132218.016000", "132218.018000", "132218.021000", "132218.024000", "132218.026000", "132218.029000", "132218.031000", "132218.034000", "132218.040000", "132218.043000", "132218.045000", "132218.048000", "132218.051000", "132218.059000", "132218.062000", "132218.064000", "132218.067000", "132218.070000", "132251.582000", "132251.585000", "132251.587000", "132251.590000", "132251.593000", "132251.595000", "132251.598000", "132251.601000", "132251.603000", "132251.606000", "132251.608000", "132251.611000", "132251.614000", "132251.616000", "132251.619000", "132251.622000", "132251.624000", "132251.627000", "132251.629000", "132251.632000", "132251.635000", "132251.637000", "132251.640000", "132251.643000", "132251.645000", "132251.648000", "132251.650000", "132251.653000"],
      "InstanceCreationTime": ["132057.977000", "132057.980000", "132057.983000", "132057.985000", "132057.988000", "132057.991000", "132057.993000", "132057.996000", "132057.998000", "132058.001000", "132058.009000", "132058.012000", "132058.015000", "132058.017000", "132058.020000", "132058.022000", "132058.025000", "132058.028000", "132058.030000", "132058.033000", "132058.035000", "132058.038000", "132058.041000", "132058.043000", "132058.046000", "132058.049000", "132058.051000", "132058.054000", "132058.057000", "132058.059000", "132137.973000", "132137.976000", "132137.978000", "132137.981000", "132137.984000", "132137.986000", "132137.989000", "132137.991000", "132137.994000", "132137.997000", "132138.007000", "132138.009000", "132138.012000", "132138.014000", "132138.017000", "132138.020000", "132138.022000", "132138.025000", "132138.028000", "132138.030000", "132138.033000", "132138.036000", "132138.038000", "132138.041000", "132138.044000", "132138.046000", "132138.049000", "132138.052000", "132138.054000", "132138.057000", "132138.059000", "132138.062000", "132138.065000", "132217.972000", "132217.975000", "132217.978000", "132217.981000", "132217.983000", "132217.986000", "132217.989000", "132217.991000", "132217.994000", "132217.997000", "132218.000000", "132218.003000", "132218.005000", "132218.008000", "132218.011000", "132218.013000", "132218.016000", "132218.018000", "132218.021000", "132218.024000", "132218.026000", "132218.029000", "132218.031000", "132218.034000", "132218.040000", "132218.043000", "132218.045000", "132218.048000", "132218.051000", "132218.059000", "132218.062000", "132218.064000", "132218.067000", "132218.070000", "132251.582000", "132251.585000", "132251.587000", "132251.590000", "132251.593000", "132251.595000", "132251.598000", "132251.601000", "132251.603000", "132251.606000", "132251.608000", "132251.611000", "132251.614000", "132251.616000", "132251.619000", "132251.622000", "132251.624000", "132251.627000", "132251.629000", "132251.632000", "132251.635000", "132251.637000", "132251.640000", "132251.643000", "132251.645000", "132251.648000", "132251.650000", "132251.653000"],
      "InstanceNumber": [1, 2, 3, 4, 5, 6, 7, 8, 9, 10, 11, 12, 13, 14, 15, 16, 17, 18, 19, 20, 21, 22, 23, 24, 25, 26, 27, 28, 29, 30, 31, 32, 33, 34, 35, 36, 37, 38, 39, 40, 41, 42, 43, 44, 45, 46, 47, 48, 49, 50, 51, 52, 53, 54, 55, 56, 57, 58, 59, 60, 61, 62, 63, 64, 65, 66, 67, 68, 69, 70, 71, 72, 73, 74, 75, 76, 77, 78, 79, 80, 81, 82, 83, 84, 85, 86, 87, 88, 89, 90, 91, 92, 93, 94, 95, 96, 97, 98, 99, 100, 101, 102, 103, 104, 105, 106, 107, 108, 109, 110, 111, 112, 113, 114, 115, 116, 117, 118, 119, 120, 121, 122, 123, 124, 125],
      "LargestImagePixelValue": [2318, 2236, 2178, 2138, 2145, 2168, 2155, 2153, 2153, 2137, 2142, 2134, 2134, 2125, 2138, 2138, 2134, 2123, 2130, 2133, 2142, 2140, 2145, 2139, 2145, 2152, 2128, 2142, 2137, 2139, 2129, 2134, 2153, 2151, 2162, 2156, 2153, 2152, 2154, 2153, 2139, 2151, 2152, 2133, 2133, 2111, 2132, 2149, 2154, 2164, 2174, 2164, 2163, 2161, 2169, 2156, 2180, 2176, 2155, 2158, 2164, 2165, 2155, 2182, 2168, 2179, 2179, 2175, 2176, 2184, 2175, 2178, 2191, 2180, 2173, 2150, 2168, 2147, 2137, 2130, 2162, 2140, 2155, 2168, 2144, 2145, 2140, 2164, 2145, 2160, 2172, 2153, 2160, 2164, 2157, 2158, 2152, 2149, 2145, 2141, 2155, 2146, 2149, 2159, 2178, 2171, 2177, 2156, 2134, 2140, 2141, 2168, 2163, 2161, 2176, 2166, 2168, 2169, 2165, 2177, 2165, 2184, 2181, 2184, 2159],
      "WindowCenter": [615.0, 611.0, 609.0, 608.0, 607.0, 608.0, 608.0, 607.0, 607.0, 606.0, 606.0, 606.0, 606.0, 606.0, 606.0, 606.0, 606.0, 606.0, 606.0, 606.0, 606.0, 607.0, 607.0, 607.0, 607.0, 607.0, 607.0, 607.0, 606.0, 606.0, 606.0, 605.0, 606.0, 606.0, 606.0, 607.0, 607.0, 607.0, 607.0, 607.0, 606.0, 606.0, 605.0, 605.0, 604.0, 604.0, 604.0, 604.0, 605.0, 606.0, 606.0, 607.0, 607.0, 607.0, 606.0, 607.0, 607.0, 606.0, 606.0, 606.0, 606.0, 606.0, 606.0, 606.0, 606.0, 607.0, 607.0, 607.0, 608.0, 607.0, 608.0, 607.0, 608.0, 607.0, 608.0, 607.0, 607.0, 606.0, 606.0, 606.0, 606.0, 605.0, 605.0, 605.0, 605.0, 605.0, 605.0, 606.0, 607.0, 607.0, 607.0, 607.0, 607.0, 607.0, 608.0, 607.0, 607.0, 606.0, 606.0, 605.0, 605.0, 605.0, 605.0, 605.0, 606.0, 607.0, 606.0, 606.0, 605.0, 605.0, 605.0, 605.0, 606.0, 605.0, 605.0, 605.0, 605.0, 606.0, 606.0, 607.0, 607.0, 607.0, 607.0, 608.0, 608.0],
      "WindowWidth": [1313.0, 1304.0, 1298.0, 1296.0, 1295.0, 1295.0, 1295.0, 1294.0, 1294.0, 1292.0, 1292.0, 1291.0, 1292.0, 1291.0, 1291.0, 1290.0, 1291.0, 1291.0, 1291.0, 1291.0, 1291.0, 1292.0, 1292.0, 1292.0, 1293.0, 1294.0, 1292.0, 1292.0, 1290.0, 1290.0, 1290.0, 1289.0, 1291.0, 1290.0, 1291.0, 1292.0, 1293.0, 1294.0, 1293.0, 1293.0, 1292.0, 1291.0, 1289.0, 1287.0, 1286.0, 1285.0, 1286.0, 1286.0, 1288.0, 1291.0, 1291.0, 1292.0, 1292.0, 1292.0, 1291.0, 1292.0, 1292.0, 1291.0, 1290.0, 1290.0, 1290.0, 1291.0, 1291.0, 1291.0, 1291.0, 1293.0, 1294.0, 1293.0, 1294.0, 1293.0, 1294.0, 1293.0, 1294.0, 1293.0, 1294.0, 1292.0, 1292.0, 1291.0, 1290.0, 1290.0, 1290.0, 1289.0, 1289.0, 1289.0, 1288.0, 1289.0, 1289.0, 1290.0, 1291.0, 1292.0, 1293.0, 1293.0, 1293.0, 1293.0, 1294.0, 1292.0, 1292.0, 1291.0, 1290.0, 1289.0, 1288.0, 1288.0, 1287.0, 1289.0, 1291.0, 1292.0, 1291.0, 1291.0, 1289.0, 1288.0, 1289.0, 1288.0, 1289.0, 1288.0, 1289.0, 1288.0, 1289.0, 1290.0, 1290.0, 1292.0, 1292.0, 1293.0, 1293.0, 1295.0, 1294.0]
    },
    "slices": {}
  }
}