{
  "AcquisitionMatrixPE": 88,
  "AcquisitionNumber": 1,
  "AcquisitionTime": "13:56:33.987500",
  "BandwidthPerPixelPhaseEncode": 19.592,
  "BaseResolution": 88,
  "BodyPartExamined": "BRAIN",
  "ConsistencyInfo": "N4_VE11C_LATEST_20160120",
  "ConversionSoftware": "dcm2niix",
  "ConversionSoftwareVersion": "v1.0.20190902",
  "DerivedVendorReportedEchoSpacing": 0.000580014,
  "DeviceSerialNumber": "67050",
  "DwellTime": 2.6e-06,
  "EchoTime": 0.033,
  "EchoTrainLength": 88,
  "EffectiveEchoSpacing": 0.000580014,
  "FlipAngle": 62,
  "ImageOrientationPatientDICOM": [0.998953, 0.0386617, -0.0244382, -0.039249, 0.99894, -0.0240308],
  "ImageType": [
    "ORIGINAL",
    "PRIMARY",
    "M",
    "ND",
    "MOSAIC"
],
  "ImagingFrequency": 123.251,
  "InPlanePhaseEncodingDirectionDICOM": "COL",
  "InstitutionAddress": "Olive_Street_60_Providence_RI_US_02912",
  "InstitutionName": "BROWN_UNIVERSITY_MRF",
  "InstitutionalDepartmentName": "Department",
  "MRAcquisitionType": "2D",
  "MagneticFieldStrength": 3,
  "Manufacturer": "Siemens",
  "ManufacturersModelName": "Prisma_fit",
  "Modality": "MR",
  "MultibandAccelerationFactor": 4,
  "PartialFourier": 1,
  "PatientPosition": "HFS",
  "PercentPhaseFOV": 100,
  "PhaseEncodingDirection": "j-",
  "PhaseEncodingSteps": 88,
  "PhaseResolution": 1,
  "PixelBandwidth": 2185,
  "ProcedureStepDescription": "ASHENHAV_1222",
  "ProtocolName": "func-bold_task-RDMmotion_run-06",
  "PulseSequenceDetails": "%SiemensSeq%_ep2d_bold",
  "ReceiveCoilActiveElements": "HC1-7",
  "ReceiveCoilName": "HeadNeck_64",
  "ReconMatrixPE": 88,
  "RefLinesPE": 8,
  "RepetitionTime": 1.2,
  "SAR": 0.0486004,
  "ScanOptions": "FS",
  "ScanningSequence": "EP",
  "SequenceName": "_epfid2d1_88",
  "SequenceVariant": "SK",
  "SeriesDescription": "func-bold_task-RDMmotion_run-06",
  "SeriesNumber": 17,
  "ShimSetting": [1753, -9128, 4445, 707, -67, -187, 31, -1],
  "SliceThickness": 2.4,
  "SliceTiming": [0.5525, 0, 0.63, 0.08, 0.71, 0.1575, 0.7875, 0.2375, 0.865, 0.315, 0.945, 0.395, 1.0225, 0.4725, 1.1025, 0.5525, 0, 0.63, 0.08, 0.71, 0.1575, 0.7875, 0.2375, 0.865, 0.315, 0.945, 0.395, 1.0225, 0.4725, 1.1025, 0.5525, 0, 0.63, 0.08, 0.71, 0.1575, 0.7875, 0.2375, 0.865, 0.315, 0.945, 0.395, 1.0225, 0.4725, 1.1025, 0.5525, 0, 0.63, 0.08, 0.71, 0.1575, 0.7875, 0.2375, 0.865, 0.315, 0.945, 0.395, 1.0225, 0.4725, 1.1025],
  "SoftwareVersions": "syngo_MR_E11",
  "SpacingBetweenSlices": 2.4,
  "StationName": "AWP67050",
  "TaskName": "RDMmotion",
  "TotalReadoutTime": 0.0504612,
  "TxRefAmp": 219.091,
  "dcmmeta_affine": [
    [-2.3952178955078125, -0.09410848468542099, -0.056359704583883286, 112.23524475097656],
    [-0.09270010888576508, 2.39518666267395, -0.05991552397608757, -89.46002960205078],
    [-0.05859607085585594, 0.05761924386024475, 2.398589849472046, -56.61228942871094],
    [0.0, 0.0, 0.0, 1.0]
],
  "dcmmeta_reorient_transform": [
    [0.0, -1.0, 0.0, 87.0],
    [1.0, 0.0, 0.0, 0.0],
    [0.0, 0.0, 1.0, 0.0],
    [0.0, 0.0, 0.0, 1.0]
],
  "dcmmeta_shape": [88, 88, 60, 125],
  "dcmmeta_slice_dim": 2,
  "dcmmeta_version": 0.6,
  "global": {
    "const": {
      "AcquisitionMatrix": [88, 0, 0, 88],
      "AngioFlag": "N",
      "BitsAllocated": 16,
      "BitsStored": 12,
      "BodyPartExamined": "BRAIN",
      "Columns": 704,
      "DeidentificationMethodCodeSequence": [
        {
          "CodeMeaning": "XNAT DicomEdit 6 Script",
          "CodeValue": "3",
          "CodingSchemeDesignator": "XNAT",
          "CodingSchemeVersion": "1.0"}
],
      "EchoNumbers": 1,
      "EchoTime": 33.0,
      "EchoTrainLength": 88,
      "FlipAngle": 62.0,
      "HighBit": 11,
      "ImageOrientationPatient": [0.99895347834848, 0.03866165837903, -0.0244381723303, -0.0392490378536, 0.99894045611404, -0.0240307753983],
      "ImagePositionPatient": [-812.78952617539, -885.19036887744, -15.805099111792],
      "ImageType": [
        "ORIGINAL",
        "PRIMARY",
        "M",
        "ND",
        "MOSAIC"
],
      "ImagedNucleus": "1H",
      "ImagingFrequency": 123.250737,
      "InPlanePhaseEncodingDirection": "COL",
      "MRAcquisitionType": "2D",
      "MagneticFieldStrength": 3.0,
      "Manufacturer": "SIEMENS",
      "ManufacturerModelName": "Prisma_fit",
      "Modality": "MR",
      "NumberOfAverages": 1.0,
      "NumberOfPhaseEncodingSteps": 88,
      "PercentPhaseFieldOfView": 100.0,
      "PercentSampling": 100.0,
      "PerformedProcedureStepStartTime": "124940.610000",
      "PhotometricInterpretation": "MONOCHROME2",
      "PixelBandwidth": 2185.0,
      "PixelRepresentation": 0,
      "PixelSpacing": [2.3977272510529, 2.3977272510529],
      "ProtocolName": "func-bold_task-RDMmotion_run-06",
      "RepetitionTime": 1200.0,
      "Rows": 704,
      "SAR": 0.0486003956527,
      "SamplesPerPixel": 1,
      "ScanOptions": "FS",
      "ScanningSequence": "EP",
      "SequenceName": "*epfid2d1_88",
      "SequenceVariant": "SK",
      "SeriesDescription": "func-bold_task-RDMmotion_run-06",
      "SeriesNumber": 17,
      "SeriesTime": "135717.994000",
      "SliceLocation": -56.981321649144,
      "SliceThickness": 2.4000000953674,
      "SmallestImagePixelValue": 0,
      "SoftwareVersions": "syngo MR E11",
      "SpacingBetweenSlices": 2.4000000156725,
      "SpecificCharacterSet": "ISO_IR 100",
      "StudyID": "1",
      "StudyTime": "124940.509000",
      "TransmitCoilName": "Body",
      "VariableFlipAngleFlag": "N",
      "WindowCenterWidthExplanation": "Algo1",
      "dBdt": 0.0},
    "slices": {}
  },
  "time": {
    "samples": {
      "AcquisitionNumber": [1, 2, 3, 4, 5, 6, 7, 8, 9, 10, 11, 12, 13, 14, 15, 16, 17, 18, 19, 20, 21, 22, 23, 24, 25, 26, 27, 28, 29, 30, 31, 32, 33, 34, 35, 36, 37, 38, 39, 40, 41, 42, 43, 44, 45, 46, 47, 48, 49, 50, 51, 52, 53, 54, 55, 56, 57, 58, 59, 60, 61, 62, 63, 64, 65, 66, 67, 68, 69, 70, 71, 72, 73, 74, 75, 76, 77, 78, 79, 80, 81, 82, 83, 84, 85, 86, 87, 88, 89, 90, 91, 92, 93, 94, 95, 96, 97, 98, 99, 100, 101, 102, 103, 104, 105, 106, 107, 108, 109, 110, 111, 112, 113, 114, 115, 116, 117, 118, 119, 120, 121, 122, 123, 124, 125],
      "AcquisitionTime": ["135633.987500", "135635.187500", "135636.387500", "135637.587500", "135638.787500", "135639.987500", "135641.187500", "135642.387500", "135643.587500", "135644.787500", "135645.987500", "135647.187500", "135648.387500", "135649.587500", "135650.787500", "135651.987500", "135653.187500", "135654.387500", "135655.587500", "135656.787500", "135657.987500", "135659.187500", "135700.387500", "135701.587500", "135702.787500", "135703.987500", "135705.187500", "135706.387500", "135707.587500", "135708.787500", "135709.987500", "135711.187500", "135712.387500", "135713.587500", "135714.787500", "135715.987500", "135717.187500", "135718.387500", "135719.587500", "135720.787500", "135721.987500", "135723.187500", "135724.387500", "135725.587500", "135726.787500", "135727.987500", "135729.187500", "135730.387500", "135731.587500", "135732.787500", "135733.987500", "135735.187500", "135736.387500", "135737.587500", "135738.787500", "135739.987500", "135741.187500", "135742.387500", "135743.587500", "135744.787500", "135745.987500", "135747.187500", "135748.387500", "135749.587500", "135750.787500", "135751.987500", "135753.187500", "135754.387500", "135755.587500", "135756.787500", "135757.987500", "135759.187500", "135800.387500", "135801.587500", "135802.787500", "135803.987500", "135805.187500", "135806.387500", "135807.587500", "135808.787500", "135809.987500", "135811.187500", "135812.387500", "135813.587500", "135814.787500", "135815.987500", "135817.187500", "135818.387500", "135819.587500", "135820.787500", "135821.987500", "135823.187500", "135824.387500", "135825.587500", "135826.787500", "135827.987500", "135829.187500", "135830.387500", "135831.587500", "135832.787500", "135833.987500", "135835.187500", "135836.387500", "135837.587500", "135838.787500", "135839.987500", "135841.187500", "135842.387500", "135843.587500", "135844.787500", "135845.987500", "135847.187500", "135848.387500", "135849.587500", "135850.787500", "135851.987500", "135853.187500", "135854.387500", "135855.587500", "135856.787500", "135857.987500", "135859.187500", "135900.387500", "135901.587500", "135902.787500"],
      "ContentTime": ["135718.001000", "135718.005000", "135718.011000", "135718.013000", "135718.016000", "135718.019000", "135718.021000", "135718.024000", "135718.027000", "135718.029000", "135718.032000", "135718.034000", "135718.037000", "135718.040000", "135718.042000", "135718.045000", "135718.047000", "135718.050000", "135718.053000", "135718.056000", "135718.058000", "135718.061000", "135718.064000", "135718.066000", "135718.069000", "135718.072000", "135718.074000", "135718.077000", "135718.079000", "135718.082000", "135718.085000", "135718.087000", "135718.090000", "135718.094000", "135718.096000", "135718.099000", "135757.973000", "135757.976000", "135757.978000", "135757.981000", "135757.983000", "135757.986000", "135757.989000", "135757.991000", "135757.994000", "135757.996000", "135758.000000", "135758.003000", "135758.005000", "135758.008000", "135758.011000", "135758.019000", "135758.022000", "135758.025000", "135758.027000", "135758.030000", "135758.032000", "135758.035000", "135758.037000", "135758.040000", "135758.043000", "135758.046000", "135758.049000", "135758.052000", "135758.055000", "135758.059000", "135758.062000", "135758.064000", "135758.067000", "135837.972000", "135837.975000", "135837.983000", "135837.986000", "135837.988000", "135837.991000", "135837.993000", "135837.996000", "135837.998000", "135838.002000", "135838.005000", "135838.007000", "135838.010000", "135838.012000", "135838.015000", "135838.018000", "135838.020000", "135838.025000", "135838.028000", "135838.031000", "135838.033000", "135838.036000", "135838.039000", "135838.041000", "135838.044000", "135838.047000", "135838.050000", "135838.053000", "135838.055000", "135838.058000", "135838.061000", "135838.063000", "135838.066000", "135838.068000", "135904.103000", "135904.106000", "135904.109000", "135904.112000", "135904.114000", "135904.118000", "135904.121000", "135904.123000", "135904.126000", "135904.129000", "135904.131000", "135904.134000", "135904.137000", "135904.139000", "135904.142000", "135904.145000", "135904.148000", "135904.150000", "135904.153000", "135904.156000", "135904.158000", "135904.161000"],
      "InstanceCreationTime": ["135718.001000", "135718.005000", "135718.011000", "135718.013000", "135718.016000", "135718.019000", "135718.021000", "135718.024000", "135718.027000", "135718.029000", "135718.032000", "135718.034000", "135718.037000", "135718.040000", "135718.042000", "135718.045000", "135718.047000", "135718.050000", "135718.053000", "135718.056000", "135718.058000", "135718.061000", "135718.064000", "135718.066000", "135718.069000", "135718.072000", "135718.074000", "135718.077000", "135718.079000", "135718.082000", "135718.085000", "135718.087000", "135718.090000", "135718.094000", "135718.096000", "135718.099000", "135757.973000", "135757.976000", "135757.978000", "135757.981000", "135757.983000", "135757.986000", "135757.989000", "135757.991000", "135757.994000", "135757.996000", "135758.000000", "135758.003000", "135758.005000", "135758.008000", "135758.011000", "135758.019000", "135758.022000", "135758.025000", "135758.027000", "135758.030000", "135758.032000", "135758.035000", "135758.037000", "135758.040000", "135758.043000", "135758.046000", "135758.049000", "135758.052000", "135758.055000", "135758.059000", "135758.062000", "135758.064000", "135758.067000", "135837.972000", "135837.975000", "135837.983000", "135837.986000", "135837.988000", "135837.991000", "135837.993000", "135837.996000", "135837.998000", "135838.002000", "135838.005000", "135838.007000", "135838.010000", "135838.012000", "135838.015000", "135838.018000", "135838.020000", "135838.025000", "135838.028000", "135838.031000", "135838.033000", "135838.036000", "135838.039000", "135838.041000", "135838.044000", "135838.047000", "135838.050000", "135838.053000", "135838.055000", "135838.058000", "135838.061000", "135838.063000", "135838.066000", "135838.068000", "135904.103000", "135904.106000", "135904.109000", "135904.112000", "135904.114000", "135904.118000", "135904.121000", "135904.123000", "135904.126000", "135904.129000", "135904.131000", "135904.134000", "135904.137000", "135904.139000", "135904.142000", "135904.145000", "135904.148000", "135904.150000", "135904.153000", "135904.156000", "135904.158000", "135904.161000"],
      "InstanceNumber": [1, 2, 3, 4, 5, 6, 7, 8, 9, 10, 11, 12, 13, 14, 15, 16, 17, 18, 19, 20, 21, 22, 23, 24, 25, 26, 27, 28, 29, 30, 31, 32, 33, 34, 35, 36, 37, 38, 39, 40, 41, 42, 43, 44, 45, 46, 47, 48, 49, 50, 51, 52, 53, 54, 55, 56, 57, 58, 59, 60, 61, 62, 63, 64, 65, 66, 67, 68, 69, 70, 71, 72, 73, 74, 75, 76, 77, 78, 79, 80, 81, 82, 83, 84, 85, 86, 87, 88, 89, 90, 91, 92, 93, 94, 95, 96, 97, 98, 99, 100, 101, 102, 103, 104, 105, 106, 107, 108, 109, 110, 111, 112, 113, 114, 115, 116, 117, 118, 119, 120, 121, 122, 123, 124, 125],
      "LargestImagePixelValue": [2367, 2302, 2268, 2266, 2239, 2228, 2238, 2250, 2248, 2237, 2243, 2245, 2241, 2244, 2233, 2255, 2251, 2238, 2219, 2214, 2209, 2223, 2211, 2209, 2180, 2184, 2186, 2181, 2177, 2189, 2187, 2173, 2192, 2180, 2200, 2193, 2204, 2188, 2212, 2216, 2210, 2205, 2213, 2183, 2187, 2186, 2183, 2185, 2198, 2187, 2188, 2186, 2185, 2198, 2169, 2178, 2178, 2174, 2158, 2177, 2174, 2193, 2183, 2160, 2162, 2163, 2152, 2163, 2147, 2159, 2125, 2139, 2129, 2167, 2142, 2135, 2140, 2125, 2133, 2144, 2140, 2139, 2148, 2154, 2149, 2140, 2165, 2169, 2150, 2159, 2137, 2142, 2130, 2139, 2150, 2147, 2182, 2172, 2166, 2149, 2146, 2123, 2109, 2098, 2099, 2095, 2104, 2100, 2125, 2124, 2115, 2122, 2101, 2110, 2113, 2115, 2126, 2146, 2146, 2138, 2131, 2133, 2140, 2158, 2162],
      "WindowCenter": [614.0, 609.0, 607.0, 606.0, 606.0, 606.0, 606.0, 608.0, 607.0, 607.0, 608.0, 608.0, 607.0, 608.0, 608.0, 608.0, 608.0, 607.0, 607.0, 606.0, 606.0, 606.0, 605.0, 605.0, 604.0, 604.0, 605.0, 604.0, 605.0, 605.0, 605.0, 605.0, 606.0, 606.0, 606.0, 606.0, 607.0, 606.0, 607.0, 607.0, 606.0, 605.0, 606.0, 605.0, 606.0, 606.0, 606.0, 606.0, 606.0, 605.0, 605.0, 604.0, 604.0, 605.0, 604.0, 604.0, 604.0, 604.0, 604.0, 605.0, 605.0, 605.0, 605.0, 604.0, 605.0, 604.0, 605.0, 605.0, 606.0, 606.0, 606.0, 605.0, 606.0, 606.0, 606.0, 605.0, 605.0, 605.0, 606.0, 605.0, 606.0, 606.0, 605.0, 606.0, 606.0, 606.0, 606.0, 606.0, 605.0, 606.0, 605.0, 605.0, 605.0, 605.0, 605.0, 604.0, 605.0, 606.0, 606.0, 605.0, 604.0, 603.0, 603.0, 604.0, 604.0, 605.0, 605.0, 605.0, 605.0, 605.0, 605.0, 605.0, 604.0, 605.0, 604.0, 604.0, 604.0, 604.0, 604.0, 604.0, 605.0, 605.0, 605.0, 605.0, 605.0],
      "WindowWidth": [1311.0, 1299.0, 1294.0, 1291.0, 1292.0, 1291.0, 1292.0, 1294.0, 1294.0, 1294.0, 1295.0, 1295.0, 1294.0, 1295.0, 1295.0, 1296.0, 1296.0, 1293.0, 1292.0, 1291.0, 1290.0, 1291.0, 1289.0, 1289.0, 1287.0, 1287.0, 1287.0, 1287.0, 1288.0, 1287.0, 1288.0, 1289.0, 1291.0, 1291.0, 1292.0, 1292.0, 1293.0, 1292.0, 1292.0, 1292.0, 1291.0, 1290.0, 1291.0, 1289.0, 1290.0, 1291.0, 1291.0, 1291.0, 1291.0, 1290.0, 1288.0, 1287.0, 1287.0, 1288.0, 1286.0, 1287.0, 1287.0, 1287.0, 1287.0, 1288.0, 1288.0, 1288.0, 1288.0, 1288.0, 1288.0, 1288.0, 1290.0, 1290.0, 1291.0, 1291.0, 1291.0, 1289.0, 1290.0, 1291.0, 1290.0, 1289.0, 1290.0, 1288.0, 1290.0, 1290.0, 1290.0, 1290.0, 1289.0, 1290.0, 1290.0, 1290.0, 1290.0, 1290.0, 1289.0, 1290.0, 1288.0, 1288.0, 1288.0, 1289.0, 1289.0, 1288.0, 1289.0, 1292.0, 1291.0, 1289.0, 1286.0, 1285.0, 1284.0, 1286.0, 1286.0, 1288.0, 1288.0, 1289.0, 1289.0, 1289.0, 1289.0, 1289.0, 1287.0, 1288.0, 1287.0, 1287.0, 1287.0, 1286.0, 1287.0, 1286.0, 1288.0, 1288.0, 1288.0, 1289.0, 1289.0]
    },
    "slices": {}
  }
}