{
  "AcquisitionMatrixPE": 88,
  "AcquisitionNumber": 1,
  "AcquisitionTime": "12:03:55.472500",
  "BandwidthPerPixelPhaseEncode": 19.592,
  "BaseResolution": 88,
  "BodyPartExamined": "BRAIN",
  "ConsistencyInfo": "N4_VE11C_LATEST_20160120",
  "ConversionSoftware": "dcm2niix",
  "ConversionSoftwareVersion": "v1.0.20190902",
  "DerivedVendorReportedEchoSpacing": 0.000580014,
  "DeviceSerialNumber": "67050",
  "DwellTime": 2.6e-06,
  "EchoTime": 0.033,
  "EchoTrainLength": 88,
  "EffectiveEchoSpacing": 0.000580014,
  "FlipAngle": 62,
  "ImageOrientationPatientDICOM": [0.997424, -0.0480032, 0.0532933, 0.0522728, 0.995273, -0.0818458],
  "ImageType": [
    "ORIGINAL",
    "PRIMARY",
    "M",
    "ND",
    "MOSAIC"
],
  "ImagingFrequency": 123.251,
  "InPlanePhaseEncodingDirectionDICOM": "COL",
  "InstitutionAddress": "Olive_Street_60_Providence_RI_US_02912",
  "InstitutionName": "BROWN_UNIVERSITY_MRF",
  "InstitutionalDepartmentName": "Department",
  "MRAcquisitionType": "2D",
  "MagneticFieldStrength": 3,
  "Manufacturer": "Siemens",
  "ManufacturersModelName": "Prisma_fit",
  "Modality": "MR",
  "MultibandAccelerationFactor": 4,
  "PartialFourier": 1,
  "PatientPosition": "HFS",
  "PercentPhaseFOV": 100,
  "PhaseEncodingDirection": "j-",
  "PhaseEncodingSteps": 88,
  "PhaseResolution": 1,
  "PixelBandwidth": 2185,
  "ProcedureStepDescription": "ASHENHAV_1222",
  "ProtocolName": "func-bold_task-RDMcolor_run-05",
  "PulseSequenceDetails": "%SiemensSeq%_ep2d_bold",
  "ReceiveCoilActiveElements": "HC1-7",
  "ReceiveCoilName": "HeadNeck_64",
  "ReconMatrixPE": 88,
  "RefLinesPE": 8,
  "RepetitionTime": 1.2,
  "SAR": 0.0565461,
  "ScanOptions": "FS",
  "ScanningSequence": "EP",
  "SequenceName": "_epfid2d1_88",
  "SequenceVariant": "SK",
  "SeriesDescription": "func-bold_task-RDMcolor_run-05",
  "SeriesNumber": 16,
  "ShimSetting": [1763, -9088, 4400, 393, -46, -114, -11, -18],
  "SliceThickness": 2.4,
  "SliceTiming": [0.55, 0, 0.63, 0.0775, 0.7075, 0.1575, 0.785, 0.235, 0.865, 0.315, 0.9425, 0.3925, 1.0225, 0.4725, 1.1, 0.55, 0, 0.63, 0.0775, 0.7075, 0.1575, 0.785, 0.235, 0.865, 0.315, 0.9425, 0.3925, 1.0225, 0.4725, 1.1, 0.55, 0, 0.63, 0.0775, 0.7075, 0.1575, 0.785, 0.235, 0.865, 0.315, 0.9425, 0.3925, 1.0225, 0.4725, 1.1, 0.55, 0, 0.63, 0.0775, 0.7075, 0.1575, 0.785, 0.235, 0.865, 0.315, 0.9425, 0.3925, 1.0225, 0.4725, 1.1],
  "SoftwareVersions": "syngo_MR_E11",
  "SpacingBetweenSlices": 2.4,
  "StationName": "AWP67050",
  "TaskName": "RDMcolor",
  "TotalReadoutTime": 0.0504612,
  "TxRefAmp": 228.252,
  "dcmmeta_affine": [
    [-2.3915517330169678, 0.1253359317779541, 0.1178700253367424, 99.62566375732422],
    [0.11509868502616882, 2.3863937854766846, -0.2026098519563675, -97.7523193359375],
    [0.12778274714946747, 0.19624385237693787, 2.38852596282959, -64.01099395751953],
    [0.0, 0.0, 0.0, 1.0]
],
  "dcmmeta_reorient_transform": [
    [0.0, -1.0, 0.0, 87.0],
    [1.0, 0.0, 0.0, 0.0],
    [0.0, 0.0, 1.0, 0.0],
    [0.0, 0.0, 0.0, 1.0]
],
  "dcmmeta_shape": [88, 88, 60, 392],
  "dcmmeta_slice_dim": 2,
  "dcmmeta_version": 0.6,
  "global": {
    "const": {
      "AcquisitionMatrix": [88, 0, 0, 88],
      "AngioFlag": "N",
      "BitsAllocated": 16,
      "BitsStored": 12,
      "BodyPartExamined": "BRAIN",
      "Columns": 704,
      "DeidentificationMethodCodeSequence": [
        {
          "CodeMeaning": "XNAT DicomEdit 6 Script",
          "CodeValue": "3",
          "CodingSchemeDesignator": "XNAT",
          "CodingSchemeVersion": "1.0"}
],
      "EchoNumbers": 1,
      "EchoTime": 33.0,
      "EchoTrainLength": 88,
      "FlipAngle": 62.0,
      "HighBit": 11,
      "ImageOrientationPatient": [0.9974244408647, -0.0480032440685, 0.05329327654247, 0.05227280573031, 0.99527323992413, -0.0818457798057],
      "ImagePositionPatient": [-885.73130256621, -809.42282354443, -25.851756891126],
      "ImageType": [
        "ORIGINAL",
        "PRIMARY",
        "M",
        "ND",
        "MOSAIC"
],
      "ImagedNucleus": "1H",
      "ImagingFrequency": 123.250635,
      "InPlanePhaseEncodingDirection": "COL",
      "MRAcquisitionType": "2D",
      "MagneticFieldStrength": 3.0,
      "Manufacturer": "SIEMENS",
      "ManufacturerModelName": "Prisma_fit",
      "Modality": "MR",
      "NumberOfAverages": 1.0,
      "NumberOfPhaseEncodingSteps": 88,
      "PercentPhaseFieldOfView": 100.0,
      "PercentSampling": 100.0,
      "PerformedProcedureStepStartTime": "110350.685000",
      "PhotometricInterpretation": "MONOCHROME2",
      "PixelBandwidth": 2185.0,
      "PixelRepresentation": 0,
      "PixelSpacing": [2.3977272510529, 2.3977272510529],
      "ProtocolName": "func-bold_task-RDMcolor_run-05",
      "RepetitionTime": 1200.0,
      "Rows": 704,
      "SAR": 0.05654611448385,
      "SamplesPerPixel": 1,
      "ScanOptions": "FS",
      "ScanningSequence": "EP",
      "SequenceName": "*epfid2d1_88",
      "SequenceVariant": "SK",
      "SeriesDescription": "func-bold_task-RDMcolor_run-05",
      "SeriesNumber": 16,
      "SeriesTime": "120435.828000",
      "SliceLocation": -50.559774314888,
      "SliceThickness": 2.4000000953674,
      "SmallestImagePixelValue": 0,
      "SoftwareVersions": "syngo MR E11",
      "SpacingBetweenSlices": 2.4000000606126,
      "SpecificCharacterSet": "ISO_IR 100",
      "StudyID": "1",
      "StudyTime": "110350.614000",
      "TransmitCoilName": "Body",
      "VariableFlipAngleFlag": "N",
      "WindowCenterWidthExplanation": "Algo1",
      "dBdt": 0.0},
    "slices": {}
  },
  "time": {
    "samples": {
      "AcquisitionNumber": [1, 2, 3, 4, 5, 6, 7, 8, 9, 10, 11, 12, 13, 14, 15, 16, 17, 18, 19, 20, 21, 22, 23, 24, 25, 26, 27, 28, 29, 30, 31, 32, 33, 34, 35, 36, 37, 38, 39, 40, 41, 42, 43, 44, 45, 46, 47, 48, 49, 50, 51, 52, 53, 54, 55, 56, 57, 58, 59, 60, 61, 62, 63, 64, 65, 66, 67, 68, 69, 70, 71, 72, 73, 74, 75, 76, 77, 78, 79, 80, 81, 82, 83, 84, 85, 86, 87, 88, 89, 90, 91, 92, 93, 94, 95, 96, 97, 98, 99, 100, 101, 102, 103, 104, 105, 106, 107, 108, 109, 110, 111, 112, 113, 114, 115, 116, 117, 118, 119, 120, 121, 122, 123, 124, 125, 126, 127, 128, 129, 130, 131, 132, 133, 134, 135, 136, 137, 138, 139, 140, 141, 142, 143, 144, 145, 146, 147, 148, 149, 150, 151, 152, 153, 154, 155, 156, 157, 158, 159, 160, 161, 162, 163, 164, 165, 166, 167, 168, 169, 170, 171, 172, 173, 174, 175, 176, 177, 178, 179, 180, 181, 182, 183, 184, 185, 186, 187, 188, 189, 190, 191, 192, 193, 194, 195, 196, 197, 198, 199, 200, 201, 202, 203, 204, 205, 206, 207, 208, 209, 210, 211, 212, 213, 214, 215, 216, 217, 218, 219, 220, 221, 222, 223, 224, 225, 226, 227, 228, 229, 230, 231, 232, 233, 234, 235, 236, 237, 238, 239, 240, 241, 242, 243, 244, 245, 246, 247, 248, 249, 250, 251, 252, 253, 254, 255, 256, 257, 258, 259, 260, 261, 262, 263, 264, 265, 266, 267, 268, 269, 270, 271, 272, 273, 274, 275, 276, 277, 278, 279, 280, 281, 282, 283, 284, 285, 286, 287, 288, 289, 290, 291, 292, 293, 294, 295, 296, 297, 298, 299, 300, 301, 302, 303, 304, 305, 306, 307, 308, 309, 310, 311, 312, 313, 314, 315, 316, 317, 318, 319, 320, 321, 322, 323, 324, 325, 326, 327, 328, 329, 330, 331, 332, 333, 334, 335, 336, 337, 338, 339, 340, 341, 342, 343, 344, 345, 346, 347, 348, 349, 350, 351, 352, 353, 354, 355, 356, 357, 358, 359, 360, 361, 362, 363, 364, 365, 366, 367, 368, 369, 370, 371, 372, 373, 374, 375, 376, 377, 378, 379, 380, 381, 382, 383, 384, 385, 386, 387, 388, 389, 390, 391, 392],
      "AcquisitionTime": ["120355.472500", "120356.672500", "120357.872500", "120359.072500", "120400.272500", "120401.472500", "120402.672500", "120403.872500", "120405.072500", "120406.272500", "120407.472500", "120408.672500", "120409.872500", "120411.072500", "120412.272500", "120413.472500", "120414.672500", "120415.872500", "120417.072500", "120418.272500", "120419.472500", "120420.672500", "120421.872500", "120423.072500", "120424.272500", "120425.472500", "120426.672500", "120427.872500", "120429.072500", "120430.272500", "120431.472500", "120432.672500", "120433.872500", "120435.072500", "120436.272500", "120437.472500", "120438.672500", "120439.872500", "120441.072500", "120442.272500", "120443.472500", "120444.672500", "120445.872500", "120447.072500", "120448.272500", "120449.472500", "120450.672500", "120451.872500", "120453.072500", "120454.272500", "120455.472500", "120456.672500", "120457.872500", "120459.072500", "120500.272500", "120501.472500", "120502.672500", "120503.872500", "120505.072500", "120506.272500", "120507.472500", "120508.672500", "120509.872500", "120511.072500", "120512.272500", "120513.472500", "120514.672500", "120515.872500", "120517.072500", "120518.272500", "120519.472500", "120520.672500", "120521.872500", "120523.072500", "120524.272500", "120525.472500", "120526.672500", "120527.872500", "120529.072500", "120530.272500", "120531.472500", "120532.672500", "120533.872500", "120535.072500", "120536.272500", "120537.472500", "120538.672500", "120539.872500", "120541.072500", "120542.272500", "120543.472500", "120544.672500", "120545.872500", "120547.072500", "120548.272500", "120549.472500", "120550.672500", "120551.872500", "120553.072500", "120554.272500", "120555.472500", "120556.672500", "120557.872500", "120559.072500", "120600.272500", "120601.472500", "120602.672500", "120603.872500", "120605.072500", "120606.272500", "120607.472500", "120608.672500", "120609.872500", "120611.072500", "120612.272500", "120613.472500", "120614.672500", "120615.872500", "120617.072500", "120618.272500", "120619.472500", "120620.672500", "120621.872500", "120623.072500", "120624.272500", "120625.472500", "120626.672500", "120627.872500", "120629.072500", "120630.272500", "120631.472500", "120632.672500", "120633.872500", "120635.072500", "120636.272500", "120637.472500", "120638.672500", "120639.872500", "120641.072500", "120642.272500", "120643.472500", "120644.672500", "120645.872500", "120647.072500", "120648.272500", "120649.472500", "120650.672500", "120651.872500", "120653.072500", "120654.272500", "120655.472500", "120656.672500", "120657.872500", "120659.072500", "120700.272500", "120701.472500", "120702.672500", "120703.872500", "120705.072500", "120706.272500", "120707.472500", "120708.672500", "120709.872500", "120711.072500", "120712.272500", "120713.472500", "120714.672500", "120715.872500", "120717.072500", "120718.272500", "120719.472500", "120720.672500", "120721.872500", "120723.072500", "120724.272500", "120725.472500", "120726.672500", "120727.872500", "120729.072500", "120730.272500", "120731.472500", "120732.672500", "120733.872500", "120735.072500", "120736.272500", "120737.472500", "120738.672500", "120739.872500", "120741.072500", "120742.272500", "120743.472500", "120744.672500", "120745.872500", "120747.072500", "120748.272500", "120749.472500", "120750.672500", "120751.872500", "120753.072500", "120754.272500", "120755.472500", "120756.672500", "120757.872500", "120759.072500", "120800.272500", "120801.472500", "120802.672500", "120803.872500", "120805.072500", "120806.272500", "120807.472500", "120808.672500", "120809.872500", "120811.072500", "120812.272500", "120813.472500", "120814.672500", "120815.872500", "120817.072500", "120818.272500", "120819.472500", "120820.672500", "120821.872500", "120823.072500", "120824.272500", "120825.472500", "120826.672500", "120827.872500", "120829.072500", "120830.272500", "120831.472500", "120832.672500", "120833.872500", "120835.072500", "120836.272500", "120837.472500", "120838.672500", "120839.872500", "120841.072500", "120842.272500", "120843.472500", "120844.672500", "120845.872500", "120847.072500", "120848.272500", "120849.472500", "120850.672500", "120851.872500", "120853.072500", "120854.272500", "120855.472500", "120856.672500", "120857.872500", "120859.072500", "120900.272500", "120901.472500", "120902.672500", "120903.872500", "120905.072500", "120906.272500", "120907.472500", "120908.672500", "120909.872500", "120911.072500", "120912.272500", "120913.472500", "120914.672500", "120915.872500", "120917.072500", "120918.272500", "120919.472500", "120920.672500", "120921.872500", "120923.072500", "120924.272500", "120925.472500", "120926.672500", "120927.872500", "120929.072500", "120930.272500", "120931.472500", "120932.672500", "120933.872500", "120935.072500", "120936.272500", "120937.472500", "120938.672500", "120939.872500", "120941.072500", "120942.272500", "120943.472500", "120944.672500", "120945.872500", "120947.072500", "120948.272500", "120949.472500", "120950.672500", "120951.872500", "120953.072500", "120954.272500", "120955.472500", "120956.672500", "120957.872500", "120959.072500", "121000.272500", "121001.472500", "121002.672500", "121003.872500", "121005.072500", "121006.272500", "121007.472500", "121008.672500", "121009.872500", "121011.072500", "121012.272500", "121013.472500", "121014.672500", "121015.872500", "121017.072500", "121018.272500", "121019.472500", "121020.672500", "121021.872500", "121023.072500", "121024.272500", "121025.472500", "121026.672500", "121027.872500", "121029.072500", "121030.272500", "121031.472500", "121032.672500", "121033.872500", "121035.072500", "121036.272500", "121037.472500", "121038.672500", "121039.872500", "121041.072500", "121042.272500", "121043.472500", "121044.672500", "121045.872500", "121047.072500", "121048.272500", "121049.472500", "121050.672500", "121051.872500", "121053.072500", "121054.272500", "121055.472500", "121056.672500", "121057.872500", "121059.072500", "121100.272500", "121101.472500", "121102.672500", "121103.872500", "121105.072500", "121106.272500", "121107.472500", "121108.672500", "121109.872500", "121111.072500", "121112.272500", "121113.472500", "121114.672500", "121115.872500", "121117.072500", "121118.272500", "121119.472500", "121120.672500", "121121.872500", "121123.072500", "121124.272500", "121125.472500", "121126.672500", "121127.872500", "121129.072500", "121130.272500", "121131.472500", "121132.672500", "121133.872500", "121135.072500", "121136.272500", "121137.472500", "121138.672500", "121139.872500", "121141.072500", "121142.272500", "121143.472500", "121144.672500"],
      "ContentTime": ["120435.832000", "120435.835000", "120435.838000", "120435.840000", "120435.843000", "120435.846000", "120435.848000", "120435.851000", "120435.853000", "120435.856000", "120435.858000", "120435.861000", "120435.864000", "120435.866000", "120435.869000", "120435.871000", "120435.874000", "120435.876000", "120435.879000", "120435.882000", "120435.889000", "120435.892000", "120435.895000", "120435.897000", "120435.900000", "120435.902000", "120435.905000", "120435.907000", "120435.910000", "120435.913000", "120435.915000", "120435.918000", "120435.920000", "120515.828000", "120515.831000", "120515.833000", "120515.836000", "120515.838000", "120515.841000", "120515.844000", "120515.846000", "120515.849000", "120515.858000", "120515.861000", "120515.863000", "120515.866000", "120515.869000", "120515.871000", "120515.874000", "120515.876000", "120515.879000", "120515.881000", "120515.884000", "120515.886000", "120515.889000", "120515.892000", "120515.894000", "120515.897000", "120515.900000", "120515.902000", "120515.905000", "120515.907000", "120515.910000", "120515.912000", "120515.915000", "120515.918000", "120555.827000", "120555.830000", "120555.833000", "120555.835000", "120555.838000", "120555.840000", "120555.843000", "120555.846000", "120555.848000", "120555.851000", "120555.853000", "120555.856000", "120555.858000", "120555.861000", "120555.864000", "120555.866000", "120555.869000", "120555.871000", "120555.874000", "120555.876000", "120555.879000", "120555.881000", "120555.884000", "120555.887000", "120555.889000", "120555.892000", "120555.895000", "120555.897000", "120555.900000", "120555.902000", "120555.905000", "120555.919000", "120555.922000", "120635.827000", "120635.830000", "120635.833000", "120635.836000", "120635.838000", "120635.841000", "120635.843000", "120635.846000", "120635.848000", "120635.851000", "120635.854000", "120635.856000", "120635.859000", "120635.861000", "120635.864000", "120635.867000", "120635.869000", "120635.872000", "120635.894000", "120635.897000", "120635.899000", "120635.902000", "120635.904000", "120635.907000", "120635.910000", "120635.912000", "120635.915000", "120635.917000", "120635.920000", "120635.922000", "120635.925000", "120635.928000", "120635.930000", "120635.933000", "120715.827000", "120715.830000", "120715.833000", "120715.835000", "120715.838000", "120715.841000", "120715.843000", "120715.846000", "120715.848000", "120715.851000", "120715.853000", "120715.856000", "120715.858000", "120715.862000", "120715.864000", "120715.867000", "120715.869000", "120715.872000", "120715.875000", "120715.877000", "120715.880000", "120715.882000", "120715.885000", "120715.887000", "120715.890000", "120715.893000", "120715.895000", "120715.898000", "120715.900000", "120715.903000", "120715.906000", "120715.908000", "120715.911000", "120755.828000", "120755.831000", "120755.834000", "120755.837000", "120755.839000", "120755.842000", "120755.844000", "120755.847000", "120755.849000", "120755.852000", "120755.855000", "120755.857000", "120755.866000", "120755.868000", "120755.871000", "120755.873000", "120755.876000", "120755.878000", "120755.881000", "120755.884000", "120755.886000", "120755.889000", "120755.892000", "120755.894000", "120755.897000", "120755.899000", "120755.902000", "120755.904000", "120755.907000", "120755.909000", "120755.912000", "120755.915000", "120755.917000", "120835.827000", "120835.830000", "120835.833000", "120835.836000", "120835.838000", "120835.841000", "120835.844000", "120835.846000", "120835.849000", "120835.851000", "120835.854000", "120835.857000", "120835.859000", "120835.862000", "120835.864000", "120835.867000", "120835.870000", "120835.872000", "120835.875000", "120835.877000", "120835.880000", "120835.883000", "120835.885000", "120835.888000", "120835.891000", "120835.893000", "120835.896000", "120835.898000", "120835.901000", "120835.904000", "120835.906000", "120835.909000", "120835.911000", "120835.914000", "120915.828000", "120915.831000", "120915.834000", "120915.836000", "120915.839000", "120915.841000", "120915.844000", "120915.846000", "120915.849000", "120915.852000", "120915.854000", "120915.857000", "120915.859000", "120915.862000", "120915.864000", "120915.867000", "120915.870000", "120915.872000", "120915.875000", "120915.878000", "120915.880000", "120915.883000", "120915.885000", "120915.888000", "120915.890000", "120915.893000", "120915.896000", "120915.898000", "120915.901000", "120915.904000", "120915.906000", "120915.909000", "120915.911000", "120955.828000", "120955.831000", "120955.834000", "120955.836000", "120955.839000", "120955.842000", "120955.845000", "120955.847000", "120955.850000", "120955.853000", "120955.856000", "120955.858000", "120955.861000", "120955.864000", "120955.867000", "120955.869000", "120955.872000", "120955.875000", "120955.877000", "120955.880000", "120955.883000", "120955.885000", "120955.888000", "120955.891000", "120955.894000", "120955.896000", "120955.899000", "120955.902000", "120955.905000", "120955.907000", "120955.910000", "120955.913000", "120955.915000", "121035.827000", "121035.830000", "121035.833000", "121035.836000", "121035.838000", "121035.841000", "121035.843000", "121035.846000", "121035.848000", "121035.851000", "121035.854000", "121035.856000", "121035.859000", "121035.862000", "121035.864000", "121035.883000", "121035.886000", "121035.888000", "121035.891000", "121035.893000", "121035.896000", "121035.899000", "121035.901000", "121035.904000", "121035.906000", "121035.909000", "121035.911000", "121035.914000", "121035.917000", "121035.919000", "121035.922000", "121035.924000", "121035.927000", "121035.930000", "121115.828000", "121115.831000", "121115.833000", "121115.836000", "121115.838000", "121115.841000", "121115.844000", "121115.846000", "121115.849000", "121115.852000", "121115.854000", "121115.857000", "121115.859000", "121115.862000", "121115.864000", "121115.867000", "121115.869000", "121115.872000", "121115.875000", "121115.877000", "121115.880000", "121115.882000", "121115.885000", "121115.888000", "121115.890000", "121115.893000", "121115.895000", "121115.898000", "121115.900000", "121115.903000", "121115.906000", "121115.908000", "121115.911000", "121146.561000", "121146.564000", "121146.566000", "121146.569000", "121146.572000", "121146.574000", "121146.577000", "121146.579000", "121146.582000", "121146.585000", "121146.587000", "121146.590000", "121146.593000", "121146.595000", "121146.598000", "121146.600000", "121146.603000", "121146.606000", "121146.608000", "121146.611000", "121146.620000", "121146.623000", "121146.626000", "121146.628000", "121146.631000", "121146.634000"],
      "InstanceCreationTime": ["120435.832000", "120435.835000", "120435.838000", "120435.840000", "120435.843000", "120435.846000", "120435.848000", "120435.851000", "120435.853000", "120435.856000", "120435.858000", "120435.861000", "120435.864000", "120435.866000", "120435.869000", "120435.871000", "120435.874000", "120435.876000", "120435.879000", "120435.882000", "120435.889000", "120435.892000", "120435.895000", "120435.897000", "120435.900000", "120435.902000", "120435.905000", "120435.907000", "120435.910000", "120435.913000", "120435.915000", "120435.918000", "120435.920000", "120515.828000", "120515.831000", "120515.833000", "120515.836000", "120515.838000", "120515.841000", "120515.844000", "120515.846000", "120515.849000", "120515.858000", "120515.861000", "120515.863000", "120515.866000", "120515.869000", "120515.871000", "120515.874000", "120515.876000", "120515.879000", "120515.881000", "120515.884000", "120515.886000", "120515.889000", "120515.892000", "120515.894000", "120515.897000", "120515.900000", "120515.902000", "120515.905000", "120515.907000", "120515.910000", "120515.912000", "120515.915000", "120515.918000", "120555.827000", "120555.830000", "120555.833000", "120555.835000", "120555.838000", "120555.840000", "120555.843000", "120555.846000", "120555.848000", "120555.851000", "120555.853000", "120555.856000", "120555.858000", "120555.861000", "120555.864000", "120555.866000", "120555.869000", "120555.871000", "120555.874000", "120555.876000", "120555.879000", "120555.881000", "120555.884000", "120555.887000", "120555.889000", "120555.892000", "120555.895000", "120555.897000", "120555.900000", "120555.902000", "120555.905000", "120555.919000", "120555.922000", "120635.827000", "120635.830000", "120635.833000", "120635.836000", "120635.838000", "120635.841000", "120635.843000", "120635.846000", "120635.848000", "120635.851000", "120635.854000", "120635.856000", "120635.859000", "120635.861000", "120635.864000", "120635.867000", "120635.869000", "120635.872000", "120635.894000", "120635.897000", "120635.899000", "120635.902000", "120635.904000", "120635.907000", "120635.910000", "120635.912000", "120635.915000", "120635.917000", "120635.920000", "120635.922000", "120635.925000", "120635.928000", "120635.930000", "120635.933000", "120715.827000", "120715.830000", "120715.833000", "120715.835000", "120715.838000", "120715.841000", "120715.843000", "120715.846000", "120715.848000", "120715.851000", "120715.853000", "120715.856000", "120715.858000", "120715.862000", "120715.864000", "120715.867000", "120715.869000", "120715.872000", "120715.875000", "120715.877000", "120715.880000", "120715.882000", "120715.885000", "120715.887000", "120715.890000", "120715.893000", "120715.895000", "120715.898000", "120715.900000", "120715.903000", "120715.906000", "120715.908000", "120715.911000", "120755.828000", "120755.831000", "120755.834000", "120755.837000", "120755.839000", "120755.842000", "120755.844000", "120755.847000", "120755.849000", "120755.852000", "120755.855000", "120755.857000", "120755.866000", "120755.868000", "120755.871000", "120755.873000", "120755.876000", "120755.878000", "120755.881000", "120755.884000", "120755.886000", "120755.889000", "120755.892000", "120755.894000", "120755.897000", "120755.899000", "120755.902000", "120755.904000", "120755.907000", "120755.909000", "120755.912000", "120755.915000", "120755.917000", "120835.827000", "120835.830000", "120835.833000", "120835.836000", "120835.838000", "120835.841000", "120835.844000", "120835.846000", "120835.849000", "120835.851000", "120835.854000", "120835.857000", "120835.859000", "120835.862000", "120835.864000", "120835.867000", "120835.870000", "120835.872000", "120835.875000", "120835.877000", "120835.880000", "120835.883000", "120835.885000", "120835.888000", "120835.891000", "120835.893000", "120835.896000", "120835.898000", "120835.901000", "120835.904000", "120835.906000", "120835.909000", "120835.911000", "120835.914000", "120915.828000", "120915.831000", "120915.834000", "120915.836000", "120915.839000", "120915.841000", "120915.844000", "120915.846000", "120915.849000", "120915.852000", "120915.854000", "120915.857000", "120915.859000", "120915.862000", "120915.864000", "120915.867000", "120915.870000", "120915.872000", "120915.875000", "120915.878000", "120915.880000", "120915.883000", "120915.885000", "120915.888000", "120915.890000", "120915.893000", "120915.896000", "120915.898000", "120915.901000", "120915.904000", "120915.906000", "120915.909000", "120915.911000", "120955.828000", "120955.831000", "120955.834000", "120955.836000", "120955.839000", "120955.842000", "120955.845000", "120955.847000", "120955.850000", "120955.853000", "120955.856000", "120955.858000", "120955.861000", "120955.864000", "120955.867000", "120955.869000", "120955.872000", "120955.875000", "120955.877000", "120955.880000", "120955.883000", "120955.885000", "120955.888000", "120955.891000", "120955.894000", "120955.896000", "120955.899000", "120955.902000", "120955.905000", "120955.907000", "120955.910000", "120955.913000", "120955.915000", "121035.827000", "121035.830000", "121035.833000", "121035.836000", "121035.838000", "121035.841000", "121035.843000", "121035.846000", "121035.848000", "121035.851000", "121035.854000", "121035.856000", "121035.859000", "121035.862000", "121035.864000", "121035.883000", "121035.886000", "121035.888000", "121035.891000", "121035.893000", "121035.896000", "121035.899000", "121035.901000", "121035.904000", "121035.906000", "121035.909000", "121035.911000", "121035.914000", "121035.917000", "121035.919000", "121035.922000", "121035.924000", "121035.927000", "121035.930000", "121115.828000", "121115.831000", "121115.833000", "121115.836000", "121115.838000", "121115.841000", "121115.844000", "121115.846000", "121115.849000", "121115.852000", "121115.854000", "121115.857000", "121115.859000", "121115.862000", "121115.864000", "121115.867000", "121115.869000", "121115.872000", "121115.875000", "121115.877000", "121115.880000", "121115.882000", "121115.885000", "121115.888000", "121115.890000", "121115.893000", "121115.895000", "121115.898000", "121115.900000", "121115.903000", "121115.906000", "121115.908000", "121115.911000", "121146.561000", "121146.564000", "121146.566000", "121146.569000", "121146.572000", "121146.574000", "121146.577000", "121146.579000", "121146.582000", "121146.585000", "121146.587000", "121146.590000", "121146.593000", "121146.595000", "121146.598000", "121146.600000", "121146.603000", "121146.606000", "121146.608000", "121146.611000", "121146.620000", "121146.623000", "121146.626000", "121146.628000", "121146.631000", "121146.634000"],
      "InstanceNumber": [1, 2, 3, 4, 5, 6, 7, 8, 9, 10, 11, 12, 13, 14, 15, 16, 17, 18, 19, 20, 21, 22, 23, 24, 25, 26, 27, 28, 29, 30, 31, 32, 33, 34, 35, 36, 37, 38, 39, 40, 41, 42, 43, 44, 45, 46, 47, 48, 49, 50, 51, 52, 53, 54, 55, 56, 57, 58, 59, 60, 61, 62, 63, 64, 65, 66, 67, 68, 69, 70, 71, 72, 73, 74, 75, 76, 77, 78, 79, 80, 81, 82, 83, 84, 85, 86, 87, 88, 89, 90, 91, 92, 93, 94, 95, 96, 97, 98, 99, 100, 101, 102, 103, 104, 105, 106, 107, 108, 109, 110, 111, 112, 113, 114, 115, 116, 117, 118, 119, 120, 121, 122, 123, 124, 125, 126, 127, 128, 129, 130, 131, 132, 133, 134, 135, 136, 137, 138, 139, 140, 141, 142, 143, 144, 145, 146, 147, 148, 149, 150, 151, 152, 153, 154, 155, 156, 157, 158, 159, 160, 161, 162, 163, 164, 165, 166, 167, 168, 169, 170, 171, 172, 173, 174, 175, 176, 177, 178, 179, 180, 181, 182, 183, 184, 185, 186, 187, 188, 189, 190, 191, 192, 193, 194, 195, 196, 197, 198, 199, 200, 201, 202, 203, 204, 205, 206, 207, 208, 209, 210, 211, 212, 213, 214, 215, 216, 217, 218, 219, 220, 221, 222, 223, 224, 225, 226, 227, 228, 229, 230, 231, 232, 233, 234, 235, 236, 237, 238, 239, 240, 241, 242, 243, 244, 245, 246, 247, 248, 249, 250, 251, 252, 253, 254, 255, 256, 257, 258, 259, 260, 261, 262, 263, 264, 265, 266, 267, 268, 269, 270, 271, 272, 273, 274, 275, 276, 277, 278, 279, 280, 281, 282, 283, 284, 285, 286, 287, 288, 289, 290, 291, 292, 293, 294, 295, 296, 297, 298, 299, 300, 301, 302, 303, 304, 305, 306, 307, 308, 309, 310, 311, 312, 313, 314, 315, 316, 317, 318, 319, 320, 321, 322, 323, 324, 325, 326, 327, 328, 329, 330, 331, 332, 333, 334, 335, 336, 337, 338, 339, 340, 341, 342, 343, 344, 345, 346, 347, 348, 349, 350, 351, 352, 353, 354, 355, 356, 357, 358, 359, 360, 361, 362, 363, 364, 365, 366, 367, 368, 369, 370, 371, 372, 373, 374, 375, 376, 377, 378, 379, 380, 381, 382, 383, 384, 385, 386, 387, 388, 389, 390, 391, 392],
