{
  "AcquisitionMatrixPE": 88,
  "AcquisitionNumber": 1,
  "AcquisitionTime": "17:44:7.307500",
  "BandwidthPerPixelPhaseEncode": 19.592,
  "BaseResolution": 88,
  "BodyPartExamined": "BRAIN",
  "ConsistencyInfo": "N4_VE11C_LATEST_20160120",
  "ConversionSoftware": "dcm2niix",
  "ConversionSoftwareVersion": "v1.0.20190902",
  "DerivedVendorReportedEchoSpacing": 0.000580014,
  "DeviceSerialNumber": "67050",
  "DwellTime": 2.6e-06,
  "EchoTime": 0.033,
  "EchoTrainLength": 88,
  "EffectiveEchoSpacing": 0.000580014,
  "FlipAngle": 62,
  "ImageOrientationPatientDICOM": [0.99735, 0.0725488, -0.00548851, -0.0727158, 0.996469, -0.041984],
  "ImageType": [
    "ORIGINAL",
    "PRIMARY",
    "M",
    "ND",
    "MOSAIC"
],
  "ImagingFrequency": 123.25,
  "InPlanePhaseEncodingDirectionDICOM": "COL",
  "InstitutionAddress": "Olive_Street_60_Providence_RI_US_02912",
  "InstitutionName": "BROWN_UNIVERSITY_MRF",
  "InstitutionalDepartmentName": "Department",
  "MRAcquisitionType": "2D",
  "MagneticFieldStrength": 3,
  "Manufacturer": "Siemens",
  "ManufacturersModelName": "Prisma_fit",
  "Modality": "MR",
  "MultibandAccelerationFactor": 4,
  "PartialFourier": 1,
  "PatientPosition": "HFS",
  "PercentPhaseFOV": 100,
  "PhaseEncodingDirection": "j-",
  "PhaseEncodingSteps": 88,
  "PhaseResolution": 1,
  "PixelBandwidth": 2185,
  "ProcedureStepDescription": "ASHENHAV_1222",
  "ProtocolName": "func-bold_task-RDMcolor_run-04",
  "PulseSequenceDetails": "%SiemensSeq%_ep2d_bold",
  "ReceiveCoilActiveElements": "HC1-7",
  "ReceiveCoilName": "HeadNeck_64",
  "ReconMatrixPE": 88,
  "RefLinesPE": 8,
  "RepetitionTime": 1.2,
  "SAR": 0.0601099,
  "ScanOptions": "FS",
  "ScanningSequence": "EP",
  "SequenceName": "_epfid2d1_88",
  "SequenceVariant": "SK",
  "SeriesDescription": "func-bold_task-RDMcolor_run-04",
  "SeriesNumber": 14,
  "ShimSetting": [1752, -9088, 4419, 342, -17, -59, -45, 0],
  "SliceThickness": 2.4,
  "SliceTiming": [0.5525, 0, 0.63, 0.08, 0.7075, 0.1575, 0.7875, 0.2375, 0.865, 0.315, 0.945, 0.395, 1.0225, 0.4725, 1.1025, 0.5525, 0, 0.63, 0.08, 0.7075, 0.1575, 0.7875, 0.2375, 0.865, 0.315, 0.945, 0.395, 1.0225, 0.4725, 1.1025, 0.5525, 0, 0.63, 0.08, 0.7075, 0.1575, 0.7875, 0.2375, 0.865, 0.315, 0.945, 0.395, 1.0225, 0.4725, 1.1025, 0.5525, 0, 0.63, 0.08, 0.7075, 0.1575, 0.7875, 0.2375, 0.865, 0.315, 0.945, 0.395, 1.0225, 0.4725, 1.1025],
  "SoftwareVersions": "syngo_MR_E11",
  "SpacingBetweenSlices": 2.4,
  "StationName": "AWP67050",
  "TaskName": "RDMcolor",
  "TotalReadoutTime": 0.0504612,
  "TxRefAmp": 234.758,
  "dcmmeta_affine": [
    [-2.3913726806640625, -0.17435261607170105, -0.005815757438540459, 115.19979095458984],
    [-0.17395231127738953, 2.3892600536346436, -0.10145245492458344, -85.26564025878906],
    [-0.013159940019249916, 0.10066623985767365, 2.3978476524353027, -58.80396270751953],
    [0.0, 0.0, 0.0, 1.0]
],
  "dcmmeta_reorient_transform": [
    [0.0, -1.0, 0.0, 87.0],
    [1.0, 0.0, 0.0, 0.0],
    [0.0, 0.0, 1.0, 0.0],
    [0.0, 0.0, 0.0, 1.0]
],
  "dcmmeta_shape": [88, 88, 60, 392],
  "dcmmeta_slice_dim": 2,
  "dcmmeta_version": 0.6,
  "global": {
    "const": {
      "AcquisitionMatrix": [88, 0, 0, 88],
      "AngioFlag": "N",
      "BitsAllocated": 16,
      "BitsStored": 12,
      "BodyPartExamined": "BRAIN",
      "Columns": 704,
      "DeidentificationMethodCodeSequence": [
        {
          "CodeMeaning": "XNAT DicomEdit 6 Script",
          "CodeValue": "3",
          "CodingSchemeDesignator": "XNAT",
          "CodingSchemeVersion": "1.0"}
],
      "EchoNumbers": 1,
      "EchoTime": 33.0,
      "EchoTrainLength": 88,
      "FlipAngle": 62.0,
      "HighBit": 11,
      "ImageOrientationPatient": [0.99734975969822, 0.07254883274229, -0.0054885059573, -0.0727157807882, 0.99646864326278, -0.0419840233707],
      "ImagePositionPatient": [-782.87330133211, -912.06938230124, -14.987537415944],
      "ImageType": [
        "ORIGINAL",
        "PRIMARY",
        "M",
        "ND",
        "MOSAIC"
],
      "ImagedNucleus": "1H",
      "ImagingFrequency": 123.249981,
      "InPlanePhaseEncodingDirection": "COL",
      "MRAcquisitionType": "2D",
      "MagneticFieldStrength": 3.0,
      "Manufacturer": "SIEMENS",
      "ManufacturerModelName": "Prisma_fit",
      "Modality": "MR",
      "NumberOfAverages": 1.0,
      "NumberOfPhaseEncodingSteps": 88,
      "PercentPhaseFieldOfView": 100.0,
      "PercentSampling": 100.0,
      "PerformedProcedureStepStartTime": "164442.180000",
      "PhotometricInterpretation": "MONOCHROME2",
      "PixelBandwidth": 2185.0,
      "PixelRepresentation": 0,
      "PixelSpacing": [2.3977272510529, 2.3977272510529],
      "ProtocolName": "func-bold_task-RDMcolor_run-04",
      "RepetitionTime": 1200.0,
      "Rows": 704,
      "SAR": 0.06010986175512,
      "SamplesPerPixel": 1,
      "ScanOptions": "FS",
      "ScanningSequence": "EP",
      "SequenceName": "*epfid2d1_88",
      "SequenceVariant": "SK",
      "SeriesDescription": "func-bold_task-RDMcolor_run-04",
      "SeriesNumber": 14,
      "SeriesTime": "174433.345000",
      "SliceLocation": -55.426046637402,
      "SliceThickness": 2.4000000953674,
      "SmallestImagePixelValue": 0,
      "SoftwareVersions": "syngo MR E11",
      "SpacingBetweenSlices": 2.4000000123726,
      "SpecificCharacterSet": "ISO_IR 100",
      "StudyID": "1",
      "StudyTime": "164442.108000",
      "TransmitCoilName": "Body",
      "VariableFlipAngleFlag": "N",
      "WindowCenterWidthExplanation": "Algo1",
      "dBdt": 0.0},
    "slices": {}
  },
  "time": {
    "samples": {
      "AcquisitionNumber": [1, 2, 3, 4, 5, 6, 7, 8, 9, 10, 11, 12, 13, 14, 15, 16, 17, 18, 19, 20, 21, 22, 23, 24, 25, 26, 27, 28, 29, 30, 31, 32, 33, 34, 35, 36, 37, 38, 39, 40, 41, 42, 43, 44, 45, 46, 47, 48, 49, 50, 51, 52, 53, 54, 55, 56, 57, 58, 59, 60, 61, 62, 63, 64, 65, 66, 67, 68, 69, 70, 71, 72, 73, 74, 75, 76, 77, 78, 79, 80, 81, 82, 83, 84, 85, 86, 87, 88, 89, 90, 91, 92, 93, 94, 95, 96, 97, 98, 99, 100, 101, 102, 103, 104, 105, 106, 107, 108, 109, 110, 111, 112, 113, 114, 115, 116, 117, 118, 119, 120, 121, 122, 123, 124, 125, 126, 127, 128, 129, 130, 131, 132, 133, 134, 135, 136, 137, 138, 139, 140, 141, 142, 143, 144, 145, 146, 147, 148, 149, 150, 151, 152, 153, 154, 155, 156, 157, 158, 159, 160, 161, 162, 163, 164, 165, 166, 167, 168, 169, 170, 171, 172, 173, 174, 175, 176, 177, 178, 179, 180, 181, 182, 183, 184, 185, 186, 187, 188, 189, 190, 191, 192, 193, 194, 195, 196, 197, 198, 199, 200, 201, 202, 203, 204, 205, 206, 207, 208, 209, 210, 211, 212, 213, 214, 215, 216, 217, 218, 219, 220, 221, 222, 223, 224, 225, 226, 227, 228, 229, 230, 231, 232, 233, 234, 235, 236, 237, 238, 239, 240, 241, 242, 243, 244, 245, 246, 247, 248, 249, 250, 251, 252, 253, 254, 255, 256, 257, 258, 259, 260, 261, 262, 263, 264, 265, 266, 267, 268, 269, 270, 271, 272, 273, 274, 275, 276, 277, 278, 279, 280, 281, 282, 283, 284, 285, 286, 287, 288, 289, 290, 291, 292, 293, 294, 295, 296, 297, 298, 299, 300, 301, 302, 303, 304, 305, 306, 307, 308, 309, 310, 311, 312, 313, 314, 315, 316, 317, 318, 319, 320, 321, 322, 323, 324, 325, 326, 327, 328, 329, 330, 331, 332, 333, 334, 335, 336, 337, 338, 339, 340, 341, 342, 343, 344, 345, 346, 347, 348, 349, 350, 351, 352, 353, 354, 355, 356, 357, 358, 359, 360, 361, 362, 363, 364, 365, 366, 367, 368, 369, 370, 371, 372, 373, 374, 375, 376, 377, 378, 379, 380, 381, 382, 383, 384, 385, 386, 387, 388, 389, 390, 391, 392],
      "AcquisitionTime": ["174407.307500", "174408.507500", "174409.707500", "174410.907500", "174412.107500", "174413.307500", "174414.507500", "174415.707500", "174416.907500", "174418.107500", "174419.307500", "174420.507500", "174421.707500", "174422.907500", "174424.107500", "174425.307500", "174426.507500", "174427.707500", "174428.907500", "174430.107500", "174431.307500", "174432.507500", "174433.707500", "174434.907500", "174436.107500", "174437.307500", "174438.507500", "174439.707500", "174440.907500", "174442.107500", "174443.307500", "174444.507500", "174445.707500", "174446.907500", "174448.107500", "174449.307500", "174450.507500", "174451.707500", "174452.907500", "174454.107500", "174455.307500", "174456.507500", "174457.707500", "174458.907500", "174500.107500", "174501.307500", "174502.507500", "174503.707500", "174504.907500", "174506.107500", "174507.307500", "174508.507500", "174509.707500", "174510.907500", "174512.107500", "174513.307500", "174514.507500", "174515.707500", "174516.907500", "174518.107500", "174519.307500", "174520.507500", "174521.707500", "174522.907500", "174524.107500", "174525.307500", "174526.507500", "174527.707500", "174528.907500", "174530.107500", "174531.307500", "174532.507500", "174533.707500", "174534.907500", "174536.107500", "174537.307500", "174538.507500", "174539.707500", "174540.907500", "174542.107500", "174543.307500", "174544.507500", "174545.707500", "174546.907500", "174548.107500", "174549.307500", "174550.507500", "174551.707500", "174552.907500", "174554.107500", "174555.307500", "174556.507500", "174557.707500", "174558.907500", "174600.107500", "174601.307500", "174602.507500", "174603.707500", "174604.907500", "174606.107500", "174607.307500", "174608.507500", "174609.707500", "174610.907500", "174612.107500", "174613.307500", "174614.507500", "174615.707500", "174616.907500", "174618.107500", "174619.307500", "174620.507500", "174621.707500", "174622.907500", "174624.107500", "174625.307500", "174626.507500", "174627.707500", "174628.907500", "174630.107500", "174631.307500", "174632.507500", "174633.707500", "174634.907500", "174636.107500", "174637.307500", "174638.507500", "174639.707500", "174640.907500", "174642.107500", "174643.307500", "174644.507500", "174645.707500", "174646.907500", "174648.107500", "174649.307500", "174650.507500", "174651.707500", "174652.907500", "174654.107500", "174655.307500", "174656.507500", "174657.707500", "174658.907500", "174700.107500", "174701.307500", "174702.507500", "174703.707500", "174704.907500", "174706.107500", "174707.307500", "174708.507500", "174709.707500", "174710.907500", "174712.107500", "174713.307500", "174714.507500", "174715.707500", "174716.907500", "174718.107500", "174719.307500", "174720.507500", "174721.707500", "174722.907500", "174724.107500", "174725.307500", "174726.507500", "174727.707500", "174728.907500", "174730.107500", "174731.307500", "174732.507500", "174733.707500", "174734.907500", "174736.107500", "174737.307500", "174738.507500", "174739.707500", "174740.907500", "174742.107500", "174743.307500", "174744.507500", "174745.707500", "174746.907500", "174748.107500", "174749.307500", "174750.507500", "174751.707500", "174752.907500", "174754.107500", "174755.307500", "174756.507500", "174757.707500", "174758.907500", "174800.107500", "174801.307500", "174802.507500", "174803.707500", "174804.907500", "174806.107500", "174807.307500", "174808.507500", "174809.707500", "174810.907500", "174812.107500", "174813.307500", "174814.507500", "174815.707500", "174816.907500", "174818.107500", "174819.307500", "174820.507500", "174821.707500", "174822.907500", "174824.107500", "174825.307500", "174826.507500", "174827.707500", "174828.907500", "174830.107500", "174831.307500", "174832.507500", "174833.707500", "174834.907500", "174836.107500", "174837.307500", "174838.507500", "174839.707500", "174840.907500", "174842.107500", "174843.307500", "174844.507500", "174845.707500", "174846.907500", "174848.107500", "174849.307500", "174850.507500", "174851.707500", "174852.907500", "174854.107500", "174855.307500", "174856.507500", "174857.707500", "174858.907500", "174900.107500", "174901.307500", "174902.507500", "174903.707500", "174904.907500", "174906.107500", "174907.307500", "174908.507500", "174909.707500", "174910.907500", "174912.107500", "174913.307500", "174914.507500", "174915.707500", "174916.907500", "174918.107500", "174919.307500", "174920.507500", "174921.707500", "174922.907500", "174924.107500", "174925.307500", "174926.507500", "174927.707500", "174928.907500", "174930.107500", "174931.307500", "174932.507500", "174933.707500", "174934.907500", "174936.107500", "174937.307500", "174938.507500", "174939.707500", "174940.907500", "174942.107500", "174943.307500", "174944.507500", "174945.707500", "174946.907500", "174948.107500", "174949.307500", "174950.507500", "174951.707500", "174952.907500", "174954.107500", "174955.307500", "174956.507500", "174957.707500", "174958.907500", "175000.107500", "175001.307500", "175002.507500", "175003.707500", "175004.907500", "175006.107500", "175007.307500", "175008.507500", "175009.707500", "175010.907500", "175012.107500", "175013.307500", "175014.507500", "175015.707500", "175016.907500", "175018.107500", "175019.307500", "175020.507500", "175021.707500", "175022.907500", "175024.107500", "175025.307500", "175026.507500", "175027.707500", "175028.907500", "175030.107500", "175031.307500", "175032.507500", "175033.707500", "175034.907500", "175036.107500", "175037.307500", "175038.507500", "175039.707500", "175040.907500", "175042.107500", "175043.307500", "175044.507500", "175045.707500", "175046.907500", "175048.107500", "175049.307500", "175050.507500", "175051.707500", "175052.907500", "175054.107500", "175055.307500", "175056.507500", "175057.707500", "175058.907500", "175100.107500", "175101.307500", "175102.507500", "175103.707500", "175104.907500", "175106.107500", "175107.307500", "175108.507500", "175109.707500", "175110.907500", "175112.107500", "175113.307500", "175114.507500", "175115.707500", "175116.907500", "175118.107500", "175119.307500", "175120.507500", "175121.707500", "175122.907500", "175124.107500", "175125.307500", "175126.507500", "175127.707500", "175128.907500", "175130.107500", "175131.307500", "175132.507500", "175133.707500", "175134.907500", "175136.107500", "175137.307500", "175138.507500", "175139.707500", "175140.907500", "175142.107500", "175143.307500", "175144.507500", "175145.707500", "175146.907500", "175148.107500", "175149.307500", "175150.507500", "175151.707500", "175152.907500", "175154.107500", "175155.307500", "175156.507500"],
      "ContentTime": ["174433.348000", "174433.351000", "174433.354000", "174433.356000", "174433.359000", "174433.362000", "174433.364000", "174433.367000", "174433.369000", "174433.372000", "174433.375000", "174433.377000", "174433.388000", "174433.390000", "174433.393000", "174433.395000", "174433.404000", "174433.407000", "174433.409000", "174433.412000", "174433.415000", "174513.345000", "174513.348000", "174513.350000", "174513.353000", "174513.355000", "174513.359000", "174513.361000", "174513.364000", "174513.366000", "174513.369000", "174513.372000", "174513.374000", "174513.377000", "174513.379000", "174513.382000", "174513.385000", "174513.387000", "174513.390000", "174513.393000", "174513.395000", "174513.398000", "174513.400000", "174513.403000", "174513.405000", "174513.408000", "174513.411000", "174513.414000", "174513.416000", "174513.419000", "174513.421000", "174513.424000", "174513.427000", "174513.429000", "174513.432000", "174553.345000", "174553.348000", "174553.351000", "174553.353000", "174553.356000", "174553.359000", "174553.361000", "174553.364000", "174553.366000", "174553.369000", "174553.372000", "174553.374000", "174553.377000", "174553.379000", "174553.382000", "174553.385000", "174553.387000", "174553.390000", "174553.392000", "174553.396000", "174553.398000", "174553.401000", "174553.404000", "174553.406000", "174553.409000", "174553.412000", "174553.414000", "174553.417000", "174553.419000", "174553.422000", "174553.425000", "174553.427000", "174553.430000", "174633.344000", "174633.347000", "174633.350000", "174633.352000", "174633.355000", "174633.358000", "174633.360000", "174633.363000", "174633.365000", "174633.368000", "174633.371000", "174633.373000", "174633.376000", "174633.378000", "174633.381000", "174633.384000", "174633.386000", "174633.393000", "174633.396000", "174633.398000", "174633.401000", "174633.403000", "174633.406000", "174633.408000", "174633.411000", "174633.414000", "174633.416000", "174633.419000", "174633.421000", "174633.441000", "174633.451000", "174633.453000", "174633.456000", "174713.343000", "174713.347000", "174713.349000", "174713.352000", "174713.354000", "174713.357000", "174713.360000", "174713.362000", "174713.365000", "174713.368000", "174713.370000", "174713.373000", "174713.375000", "174713.378000", "174713.381000", "174713.383000", "174713.386000", "174713.389000", "174713.391000", "174713.394000", "174713.396000", "174713.399000", "174713.401000", "174713.404000", "174713.406000", "174713.409000", "174713.412000", "174713.414000", "174713.417000", "174713.420000", "174713.422000", "174713.425000", "174713.427000", "174713.430000", "174733.345000", "174733.348000", "174733.350000", "174733.353000", "174733.355000", "174733.358000", "174733.361000", "174733.363000", "174733.366000", "174733.368000", "174733.371000", "174733.373000", "174733.376000", "174733.379000", "174733.381000", "174733.384000", "174813.344000", "174813.347000", "174813.350000", "174813.353000", "174813.355000", "174813.358000", "174813.360000", "174813.363000", "174813.366000", "174813.368000", "174813.371000", "174813.373000", "174813.376000", "174813.378000", "174813.381000", "174813.384000", "174813.386000", "174813.389000", "174813.391000", "174813.394000", "174813.396000", "174813.399000", "174813.402000", "174813.404000", "174813.407000", "174813.410000", "174813.412000", "174813.415000", "174813.417000", "174813.420000", "174813.422000", "174813.425000", "174813.428000", "174813.430000", "174853.345000", "174853.347000", "174853.350000", "174853.353000", "174853.356000", "174853.358000", "174853.361000", "174853.364000", "174853.366000", "174853.369000", "174853.371000", "174853.374000", "174853.376000", "174853.379000", "174853.382000", "174853.384000", "174853.387000", "174853.389000", "174853.392000", "174853.395000", "174853.397000", "174853.400000", "174853.403000", "174853.405000", "174853.408000", "174853.411000", "174853.413000", "174853.416000", "174853.419000", "174853.421000", "174853.424000", "174853.427000", "174853.429000", "174933.344000", "174933.347000", "174933.350000", "174933.353000", "174933.355000", "174933.358000", "174933.360000", "174933.363000", "174933.366000", "174933.368000", "174933.371000", "174933.374000", "174933.376000", "174933.379000", "174933.382000", "174933.384000", "174933.387000", "174933.389000", "174933.392000", "174933.395000", "174933.397000", "174933.400000", "174933.402000", "174933.405000", "174933.408000", "174933.410000", "174933.413000", "174933.415000", "174933.418000", "174933.421000", "174933.423000", "174933.426000", "174933.428000", "175013.344000", "175013.347000", "175013.350000", "175013.353000", "175013.355000", "175013.358000", "175013.361000", "175013.363000", "175013.366000", "175013.369000", "175013.371000", "175013.374000", "175013.377000", "175013.379000", "175013.382000", "175013.384000", "175013.387000", "175013.390000", "175013.393000", "175013.395000", "175013.398000", "175013.400000", "175013.403000", "175013.406000", "175013.408000", "175013.411000", "175013.414000", "175013.416000", "175013.419000", "175013.422000", "175013.424000", "175013.427000", "175013.430000", "175013.432000", "175053.344000", "175053.348000", "175053.350000", "175053.353000", "175053.355000", "175053.358000", "175053.361000", "175053.363000", "175053.366000", "175053.384000", "175053.386000", "175053.389000", "175053.392000", "175053.394000", "175053.397000", "175053.399000", "175053.402000", "175053.405000", "175053.407000", "175053.410000", "175053.412000", "175053.415000", "175053.418000", "175053.421000", "175053.423000", "175053.426000", "175053.429000", "175053.432000", "175053.434000", "175053.437000", "175053.439000", "175053.442000", "175053.444000", "175133.344000", "175133.347000", "175133.350000", "175133.353000", "175133.355000", "175133.358000", "175133.361000", "175133.363000", "175133.366000", "175133.368000", "175133.371000", "175133.374000", "175133.376000", "175133.379000", "175133.381000", "175133.384000", "175133.387000", "175133.389000", "175133.392000", "175133.395000", "175133.397000", "175133.400000", "175133.403000", "175133.405000", "175133.408000", "175133.410000", "175133.413000", "175133.416000", "175133.418000", "175133.421000", "175133.424000", "175133.426000", "175133.429000", "175157.581000", "175157.583000", "175157.586000", "175157.589000", "175157.592000", "175157.594000", "175157.602000", "175157.605000", "175157.607000", "175157.610000", "175157.613000", "175157.615000", "175157.618000", "175157.621000", "175157.623000", "175157.626000", "175157.629000", "175157.632000", "175157.634000", "175157.637000", "175157.640000"],
      "InstanceCreationTime": ["174433.348000", "174433.351000", "174433.354000", "174433.356000", "174433.359000", "174433.362000", "174433.364000", "174433.367000", "174433.369000", "174433.372000", "174433.375000", "174433.377000", "174433.388000", "174433.390000", "174433.393000", "174433.395000", "174433.404000", "174433.407000", "174433.409000", "174433.412000", "174433.415000", "174513.345000", "174513.348000", "174513.350000", "174513.353000", "174513.355000", "174513.359000", "174513.361000", "174513.364000", "174513.366000", "174513.369000", "174513.372000", "174513.374000", "174513.377000", "174513.379000", "174513.382000", "174513.385000", "174513.387000", "174513.390000", "174513.393000", "174513.395000", "174513.398000", "174513.400000", "174513.403000", "174513.405000", "174513.408000", "174513.411000", "174513.414000", "174513.416000", "174513.419000", "174513.421000", "174513.424000", "174513.427000", "174513.429000", "174513.432000", "174553.345000", "174553.348000", "174553.351000", "174553.353000", "174553.356000", "174553.359000", "174553.361000", "174553.364000", "174553.366000", "174553.369000", "174553.372000", "174553.374000", "174553.377000", "174553.379000", "174553.382000", "174553.385000", "174553.387000", "174553.390000", "174553.392000", "174553.396000", "174553.398000", "174553.401000", "174553.404000", "174553.406000", "174553.409000", "174553.412000", "174553.414000", "174553.417000", "174553.419000", "174553.422000", "174553.425000", "174553.427000", "174553.430000", "174633.344000", "174633.347000", "174633.350000", "174633.352000", "174633.355000", "174633.358000", "174633.360000", "174633.363000", "174633.365000", "174633.368000", "174633.371000", "174633.373000", "174633.376000", "174633.378000", "174633.381000", "174633.384000", "174633.386000", "174633.393000", "174633.396000", "174633.398000", "174633.401000", "174633.403000", "174633.406000", "174633.408000", "174633.411000", "174633.414000", "174633.416000", "174633.419000", "174633.421000", "174633.441000", "174633.451000", "174633.453000", "174633.456000", "174713.343000", "174713.347000", "174713.349000", "174713.352000", "174713.354000", "174713.357000", "174713.360000", "174713.362000", "174713.365000", "174713.368000", "174713.370000", "174713.373000", "174713.375000", "174713.378000", "174713.381000", "174713.383000", "174713.386000", "174713.389000", "174713.391000", "174713.394000", "174713.396000", "174713.399000", "174713.401000", "174713.404000", "174713.406000", "174713.409000", "174713.412000", "174713.414000", "174713.417000", "174713.420000", "174713.422000", "174713.425000", "174713.427000", "174713.430000", "174733.345000", "174733.348000", "174733.350000", "174733.353000", "174733.355000", "174733.358000", "174733.361000", "174733.363000", "174733.366000", "174733.368000", "174733.371000", "174733.373000", "174733.376000", "174733.379000", "174733.381000", "174733.384000", "174813.344000", "174813.347000", "174813.350000", "174813.353000", "174813.355000", "174813.358000", "174813.360000", "174813.363000", "174813.366000", "174813.368000", "174813.371000", "174813.373000", "174813.376000", "174813.378000", "174813.381000", "174813.384000", "174813.386000", "174813.389000", "174813.391000", "174813.394000", "174813.396000", "174813.399000", "174813.402000", "174813.404000", "174813.407000", "174813.410000", "174813.412000", "174813.415000", "174813.417000", "174813.420000", "174813.422000", "174813.425000", "174813.428000", "174813.430000", "174853.345000", "174853.347000", "174853.350000", "174853.353000", "174853.356000", "174853.358000", "174853.361000", "174853.364000", "174853.366000", "174853.369000", "174853.371000", "174853.374000", "174853.376000", "174853.379000", "174853.382000", "174853.384000", "174853.387000", "174853.389000", "174853.392000", "174853.395000", "174853.397000", "174853.400000", "174853.403000", "174853.405000", "174853.408000", "174853.411000", "174853.413000", "174853.416000", "174853.419000", "174853.421000", "174853.424000", "174853.427000", "174853.429000", "174933.344000", "174933.347000", "174933.350000", "174933.353000", "174933.355000", "174933.358000", "174933.360000", "174933.363000", "174933.366000", "174933.368000", "174933.371000", "174933.374000", "174933.376000", "174933.379000", "174933.382000", "174933.384000", "174933.387000", "174933.389000", "174933.392000", "174933.395000", "174933.397000", "174933.400000", "174933.402000", "174933.405000", "174933.408000", "174933.410000", "174933.413000", "174933.415000", "174933.418000", "174933.421000", "174933.423000", "174933.426000", "174933.428000", "175013.344000", "175013.347000", "175013.350000", "175013.353000", "175013.355000", "175013.358000", "175013.361000", "175013.363000", "175013.366000", "175013.369000", "175013.371000", "175013.374000", "175013.377000", "175013.379000", "175013.382000", "175013.384000", "175013.387000", "175013.390000", "175013.393000", "175013.395000", "175013.398000", "175013.400000", "175013.403000", "175013.406000", "175013.408000", "175013.411000", "175013.414000", "175013.416000", "175013.419000", "175013.422000", "175013.424000", "175013.427000", "175013.430000", "175013.432000", "175053.344000", "175053.348000", "175053.350000", "175053.353000", "175053.355000", "175053.358000", "175053.361000", "175053.363000", "175053.366000", "175053.384000", "175053.386000", "175053.389000", "175053.392000", "175053.394000", "175053.397000", "175053.399000", "175053.402000", "175053.405000", "175053.407000", "175053.410000", "175053.412000", "175053.415000", "175053.418000", "175053.421000", "175053.423000", "175053.426000", "175053.429000", "175053.432000", "175053.434000", "175053.437000", "175053.439000", "175053.442000", "175053.444000", "175133.344000", "175133.347000", "175133.350000", "175133.353000", "175133.355000", "175133.358000", "175133.361000", "175133.363000", "175133.366000", "175133.368000", "175133.371000", "175133.374000", "175133.376000", "175133.379000", "175133.381000", "175133.384000", "175133.387000", "175133.389000", "175133.392000", "175133.395000", "175133.397000", "175133.400000", "175133.403000", "175133.405000", "175133.408000", "175133.410000", "175133.413000", "175133.416000", "175133.418000", "175133.421000", "175133.424000", "175133.426000", "175133.429000", "175157.581000", "175157.583000", "175157.586000", "175157.589000", "175157.592000", "175157.594000", "175157.602000", "175157.605000", "175157.607000", "175157.610000", "175157.613000", "175157.615000", "175157.618000", "175157.621000", "175157.623000", "175157.626000", "175157.629000", "175157.632000", "175157.634000", "175157.637000", "175157.640000"],
      "InstanceNumber": [1, 2, 3, 4, 5, 6, 7, 8, 9, 10, 11, 12, 13, 14, 15, 16, 17, 18, 19, 20, 21, 22, 23, 24, 25, 26, 27, 28, 29, 30, 31, 32, 33, 34, 35, 36, 37, 38, 39, 40, 41, 42, 43, 44, 45, 46, 47, 48, 49, 50, 51, 52, 53, 54, 55, 56, 57, 58, 59, 60, 61, 62, 63, 64, 65, 66, 67, 68, 69, 70, 71, 72, 73, 74, 75, 76, 77, 78, 79, 80, 81, 82, 83, 84, 85, 86, 87, 88, 89, 90, 91, 92, 93, 94, 95, 96, 97, 98, 99, 100, 101, 102, 103, 104, 105, 106, 107, 108, 109, 110, 111, 112, 113, 114, 115, 116, 117, 118, 119, 120, 121, 122, 123, 124, 125, 126, 127, 128, 129, 130, 131, 132, 133, 134, 135, 136, 137, 138, 139, 140, 141, 142, 143, 144, 145, 146, 147, 148, 149, 150, 151, 152, 153, 154, 155, 156, 157, 158, 159, 160, 161, 162, 163, 164, 165, 166, 167, 168, 169, 170, 171, 172, 173, 174, 175, 176, 177, 178, 179, 180, 181, 182, 183, 184, 185, 186, 187, 188, 189, 190, 191, 192, 193, 194, 195, 196, 197, 198, 199, 200, 201, 202, 203, 204, 205, 206, 207, 208, 209, 210, 211, 212, 213, 214, 215, 216, 217, 218, 219, 220, 221, 222, 223, 224, 225, 226, 227, 228, 229, 230, 231, 232, 233, 234, 235, 236, 237, 238, 239, 240, 241, 242, 243, 244, 245, 246, 247, 248, 249, 250, 251, 252, 253, 254, 255, 256, 257, 258, 259, 260, 261, 262, 263, 264, 265, 266, 267, 268, 269, 270, 271, 272, 273, 274, 275, 276, 277, 278, 279, 280, 281, 282, 283, 284, 285, 286, 287, 288, 289, 290, 291, 292, 293, 294, 295, 296, 297, 298, 299, 300, 301, 302, 303, 304, 305, 306, 307, 308, 309, 310, 311, 312, 313, 314, 315, 316, 317, 318, 319, 320, 321, 322, 323, 324, 325, 326, 327, 328, 329, 330, 331, 332, 333, 334, 335, 336, 337, 338, 339, 340, 341, 342, 343, 344, 345, 346, 347, 348, 349, 350, 351, 352, 353, 354, 355, 356, 357, 358, 359, 360, 361, 362, 363, 364, 365, 366, 367, 368, 369, 370, 371, 372, 373, 374, 375, 376, 377, 378, 379, 380, 381, 382, 383, 384, 385, 386, 387, 388, 389, 390, 391, 392],
