{
  "AcquisitionMatrixPE": 88,
  "AcquisitionNumber": 1,
  "AcquisitionTime": "17:29:8.442500",
  "BandwidthPerPixelPhaseEncode": 19.592,
  "BaseResolution": 88,
  "BodyPartExamined": "BRAIN",
  "ConsistencyInfo": "N4_VE11C_LATEST_20160120",
  "ConversionSoftware": "dcm2niix",
  "ConversionSoftwareVersion": "v1.0.20190902",
  "DerivedVendorReportedEchoSpacing": 0.000580014,
  "DeviceSerialNumber": "67050",
  "DwellTime": 2.6e-06,
  "EchoTime": 0.033,
  "EchoTrainLength": 88,
  "EffectiveEchoSpacing": 0.000580014,
  "FlipAngle": 62,
  "ImageOrientationPatientDICOM": [0.99735, 0.0725488, -0.00548851, -0.0727158, 0.996469, -0.041984],
  "ImageType": [
    "ORIGINAL",
    "PRIMARY",
    "M",
    "ND",
    "MOSAIC"
],
  "ImagingFrequency": 123.25,
  "InPlanePhaseEncodingDirectionDICOM": "COL",
  "InstitutionAddress": "Olive_Street_60_Providence_RI_US_02912",
  "InstitutionName": "BROWN_UNIVERSITY_MRF",
  "InstitutionalDepartmentName": "Department",
  "MRAcquisitionType": "2D",
  "MagneticFieldStrength": 3,
  "Manufacturer": "Siemens",
  "ManufacturersModelName": "Prisma_fit",
  "Modality": "MR",
  "MultibandAccelerationFactor": 4,
  "PartialFourier": 1,
  "PatientPosition": "HFS",
  "PercentPhaseFOV": 100,
  "PhaseEncodingDirection": "j-",
  "PhaseEncodingSteps": 88,
  "PhaseResolution": 1,
  "PixelBandwidth": 2185,
  "ProcedureStepDescription": "ASHENHAV_1222",
  "ProtocolName": "func-bold_task-RDMmotion_run-03",
  "PulseSequenceDetails": "%SiemensSeq%_ep2d_bold",
  "ReceiveCoilActiveElements": "HC1-7",
  "ReceiveCoilName": "HeadNeck_64",
  "ReconMatrixPE": 88,
  "RefLinesPE": 8,
  "RepetitionTime": 1.2,
  "SAR": 0.0594997,
  "ScanOptions": "FS",
  "ScanningSequence": "EP",
  "SequenceName": "_epfid2d1_88",
  "SequenceVariant": "SK",
  "SeriesDescription": "func-bold_task-RDMmotion_run-03",
  "SeriesNumber": 11,
  "ShimSetting": [1752, -9088, 4419, 342, -17, -59, -45, 0],
  "SliceThickness": 2.4,
  "SliceTiming": [0.55, 0, 0.6275, 0.0775, 0.7075, 0.155, 0.785, 0.235, 0.865, 0.3125, 0.9425, 0.3925, 1.0225, 0.47, 1.1, 0.55, 0, 0.6275, 0.0775, 0.7075, 0.155, 0.785, 0.235, 0.865, 0.3125, 0.9425, 0.3925, 1.0225, 0.47, 1.1, 0.55, 0, 0.6275, 0.0775, 0.7075, 0.155, 0.785, 0.235, 0.865, 0.3125, 0.9425, 0.3925, 1.0225, 0.47, 1.1, 0.55, 0, 0.6275, 0.0775, 0.7075, 0.155, 0.785, 0.235, 0.865, 0.3125, 0.9425, 0.3925, 1.0225, 0.47, 1.1],
  "SoftwareVersions": "syngo_MR_E11",
  "SpacingBetweenSlices": 2.4,
  "StationName": "AWP67050",
  "TaskName": "RDMmotion",
  "TotalReadoutTime": 0.0504612,
  "TxRefAmp": 234.758,
  "dcmmeta_affine": [
    [-2.3913726806640625, -0.17435261607170105, -0.005815757438540459, 115.19979095458984],
    [-0.17395231127738953, 2.3892600536346436, -0.10145245492458344, -85.26564025878906],
    [-0.013159940019249916, 0.10066623985767365, 2.3978476524353027, -58.80396270751953],
    [0.0, 0.0, 0.0, 1.0]
],
  "dcmmeta_reorient_transform": [
    [0.0, -1.0, 0.0, 87.0],
    [1.0, 0.0, 0.0, 0.0],
    [0.0, 0.0, 1.0, 0.0],
    [0.0, 0.0, 0.0, 1.0]
],
  "dcmmeta_shape": [88, 88, 60, 125],
  "dcmmeta_slice_dim": 2,
  "dcmmeta_version": 0.6,
  "global": {
    "const": {
      "AcquisitionMatrix": [88, 0, 0, 88],
      "AngioFlag": "N",
      "BitsAllocated": 16,
      "BitsStored": 12,
      "BodyPartExamined": "BRAIN",
      "Columns": 704,
      "DeidentificationMethodCodeSequence": [
        {
          "CodeMeaning": "XNAT DicomEdit 6 Script",
          "CodeValue": "3",
          "CodingSchemeDesignator": "XNAT",
          "CodingSchemeVersion": "1.0"}
],
      "EchoNumbers": 1,
      "EchoTime": 33.0,
      "EchoTrainLength": 88,
      "FlipAngle": 62.0,
      "HighBit": 11,
      "ImageOrientationPatient": [0.99734975969822, 0.07254883274229, -0.0054885059573, -0.0727157807882, 0.99646864326278, -0.0419840233707],
      "ImagePositionPatient": [-782.87330133211, -912.06938230124, -14.987537415944],
      "ImageType": [
        "ORIGINAL",
        "PRIMARY",
        "M",
        "ND",
        "MOSAIC"
],
      "ImagedNucleus": "1H",
      "ImagingFrequency": 123.249977,
      "InPlanePhaseEncodingDirection": "COL",
      "MRAcquisitionType": "2D",
      "MagneticFieldStrength": 3.0,
      "Manufacturer": "SIEMENS",
      "ManufacturerModelName": "Prisma_fit",
      "Modality": "MR",
      "NumberOfAverages": 1.0,
      "NumberOfPhaseEncodingSteps": 88,
      "PercentPhaseFieldOfView": 100.0,
      "PercentSampling": 100.0,
      "PerformedProcedureStepStartTime": "164442.180000",
      "PhotometricInterpretation": "MONOCHROME2",
      "PixelBandwidth": 2185.0,
      "PixelRepresentation": 0,
      "PixelSpacing": [2.3977272510529, 2.3977272510529],
      "ProtocolName": "func-bold_task-RDMmotion_run-03",
      "RepetitionTime": 1200.0,
      "Rows": 704,
      "SAR": 0.05949972610368,
      "SamplesPerPixel": 1,
      "ScanOptions": "FS",
      "ScanningSequence": "EP",
      "SequenceName": "*epfid2d1_88",
      "SequenceVariant": "SK",
      "SeriesDescription": "func-bold_task-RDMmotion_run-03",
      "SeriesNumber": 11,
      "SeriesTime": "172933.345000",
      "SliceLocation": -55.426046637402,
      "SliceThickness": 2.4000000953674,
      "SmallestImagePixelValue": 0,
      "SoftwareVersions": "syngo MR E11",
      "SpacingBetweenSlices": 2.4000000123726,
      "SpecificCharacterSet": "ISO_IR 100",
      "StudyID": "1",
      "StudyTime": "164442.108000",
      "TransmitCoilName": "Body",
      "VariableFlipAngleFlag": "N",
      "WindowCenterWidthExplanation": "Algo1",
      "dBdt": 0.0},
    "slices": {}
  },
  "time": {
    "samples": {
      "AcquisitionNumber": [1, 2, 3, 4, 5, 6, 7, 8, 9, 10, 11, 12, 13, 14, 15, 16, 17, 18, 19, 20, 21, 22, 23, 24, 25, 26, 27, 28, 29, 30, 31, 32, 33, 34, 35, 36, 37, 38, 39, 40, 41, 42, 43, 44, 45, 46, 47, 48, 49, 50, 51, 52, 53, 54, 55, 56, 57, 58, 59, 60, 61, 62, 63, 64, 65, 66, 67, 68, 69, 70, 71, 72, 73, 74, 75, 76, 77, 78, 79, 80, 81, 82, 83, 84, 85, 86, 87, 88, 89, 90, 91, 92, 93, 94, 95, 96, 97, 98, 99, 100, 101, 102, 103, 104, 105, 106, 107, 108, 109, 110, 111, 112, 113, 114, 115, 116, 117, 118, 119, 120, 121, 122, 123, 124, 125],
      "AcquisitionTime": ["172908.442500", "172909.642500", "172910.842500", "172912.042500", "172913.242500", "172914.442500", "172915.642500", "172916.842500", "172918.042500", "172919.242500", "172920.442500", "172921.642500", "172922.842500", "172924.042500", "172925.242500", "172926.442500", "172927.642500", "172928.842500", "172930.042500", "172931.242500", "172932.442500", "172933.642500", "172934.842500", "172936.042500", "172937.242500", "172938.442500", "172939.642500", "172940.842500", "172942.042500", "172943.242500", "172944.442500", "172945.642500", "172946.842500", "172948.042500", "172949.242500", "172950.442500", "172951.642500", "172952.842500", "172954.042500", "172955.242500", "172956.442500", "172957.642500", "172958.842500", "173000.042500", "173001.242500", "173002.442500", "173003.642500", "173004.842500", "173006.042500", "173007.242500", "173008.442500", "173009.642500", "173010.842500", "173012.042500", "173013.242500", "173014.442500", "173015.642500", "173016.842500", "173018.042500", "173019.242500", "173020.442500", "173021.642500", "173022.842500", "173024.042500", "173025.242500", "173026.442500", "173027.642500", "173028.842500", "173030.042500", "173031.242500", "173032.442500", "173033.642500", "173034.842500", "173036.042500", "173037.242500", "173038.442500", "173039.642500", "173040.842500", "173042.042500", "173043.242500", "173044.442500", "173045.642500", "173046.842500", "173048.042500", "173049.242500", "173050.442500", "173051.642500", "173052.842500", "173054.042500", "173055.242500", "173056.442500", "173057.642500", "173058.842500", "173100.042500", "173101.242500", "173102.442500", "173103.642500", "173104.842500", "173106.042500", "173107.242500", "173108.442500", "173109.642500", "173110.842500", "173112.042500", "173113.242500", "173114.442500", "173115.642500", "173116.842500", "173118.042500", "173119.242500", "173120.442500", "173121.642500", "173122.842500", "173124.042500", "173125.242500", "173126.442500", "173127.642500", "173128.842500", "173130.042500", "173131.242500", "173132.442500", "173133.642500", "173134.842500", "173136.042500", "173137.242500"],
      "ContentTime": ["172933.349000", "172933.352000", "172933.355000", "172933.362000", "172933.364000", "172933.367000", "172933.370000", "172933.372000", "172933.375000", "172933.382000", "172933.385000", "172933.387000", "172933.390000", "172933.392000", "172933.395000", "172933.398000", "172933.400000", "172933.403000", "172933.405000", "172933.408000", "173013.344000", "173013.347000", "173013.350000", "173013.353000", "173013.355000", "173013.358000", "173013.360000", "173013.363000", "173013.365000", "173013.368000", "173013.371000", "173013.373000", "173013.376000", "173013.379000", "173013.381000", "173013.384000", "173013.386000", "173013.389000", "173013.393000", "173013.396000", "173013.398000", "173013.401000", "173013.403000", "173013.406000", "173013.409000", "173013.411000", "173013.414000", "173013.417000", "173013.419000", "173013.422000", "173013.424000", "173013.427000", "173013.430000", "173053.344000", "173053.356000", "173053.359000", "173053.361000", "173053.364000", "173053.367000", "173053.370000", "173053.373000", "173053.376000", "173053.378000", "173053.381000", "173053.384000", "173053.386000", "173053.389000", "173053.392000", "173053.394000", "173053.397000", "173053.399000", "173053.402000", "173053.405000", "173053.407000", "173053.410000", "173053.412000", "173053.415000", "173053.417000", "173053.420000", "173053.423000", "173053.425000", "173053.428000", "173053.430000", "173053.433000", "173053.435000", "173053.438000", "173133.344000", "173133.347000", "173133.350000", "173133.352000", "173133.355000", "173133.358000", "173133.360000", "173133.363000", "173133.365000", "173133.368000", "173133.370000", "173133.373000", "173133.376000", "173133.378000", "173133.381000", "173133.383000", "173133.386000", "173133.388000", "173133.391000", "173133.394000", "173133.396000", "173133.399000", "173133.401000", "173133.404000", "173133.407000", "173133.409000", "173133.412000", "173133.418000", "173133.421000", "173133.423000", "173133.426000", "173133.429000", "173133.431000", "173133.434000", "173139.026000", "173139.029000", "173139.032000", "173139.034000", "173139.037000"],
      "InstanceCreationTime": ["172933.349000", "172933.352000", "172933.355000", "172933.362000", "172933.364000", "172933.367000", "172933.370000", "172933.372000", "172933.375000", "172933.382000", "172933.385000", "172933.387000", "172933.390000", "172933.392000", "172933.395000", "172933.398000", "172933.400000", "172933.403000", "172933.405000", "172933.408000", "173013.344000", "173013.347000", "173013.350000", "173013.353000", "173013.355000", "173013.358000", "173013.360000", "173013.363000", "173013.365000", "173013.368000", "173013.371000", "173013.373000", "173013.376000", "173013.379000", "173013.381000", "173013.384000", "173013.386000", "173013.389000", "173013.393000", "173013.396000", "173013.398000", "173013.401000", "173013.403000", "173013.406000", "173013.409000", "173013.411000", "173013.414000", "173013.417000", "173013.419000", "173013.422000", "173013.424000", "173013.427000", "173013.430000", "173053.344000", "173053.356000", "173053.359000", "173053.361000", "173053.364000", "173053.367000", "173053.370000", "173053.373000", "173053.376000", "173053.378000", "173053.381000", "173053.384000", "173053.386000", "173053.389000", "173053.392000", "173053.394000", "173053.397000", "173053.399000", "173053.402000", "173053.405000", "173053.407000", "173053.410000", "173053.412000", "173053.415000", "173053.417000", "173053.420000", "173053.423000", "173053.425000", "173053.428000", "173053.430000", "173053.433000", "173053.435000", "173053.438000", "173133.344000", "173133.347000", "173133.350000", "173133.352000", "173133.355000", "173133.358000", "173133.360000", "173133.363000", "173133.365000", "173133.368000", "173133.370000", "173133.373000", "173133.376000", "173133.378000", "173133.381000", "173133.383000", "173133.386000", "173133.388000", "173133.391000", "173133.394000", "173133.396000", "173133.399000", "173133.401000", "173133.404000", "173133.407000", "173133.409000", "173133.412000", "173133.418000", "173133.421000", "173133.423000", "173133.426000", "173133.429000", "173133.431000", "173133.434000", "173139.026000", "173139.029000", "173139.032000", "173139.034000", "173139.037000"],
      "InstanceNumber": [1, 2, 3, 4, 5, 6, 7, 8, 9, 10, 11, 12, 13, 14, 15, 16, 17, 18, 19, 20, 21, 22, 23, 24, 25, 26, 27, 28, 29, 30, 31, 32, 33, 34, 35, 36, 37, 38, 39, 40, 41, 42, 43, 44, 45, 46, 47, 48, 49, 50, 51, 52, 53, 54, 55, 56, 57, 58, 59, 60, 61, 62, 63, 64, 65, 66, 67, 68, 69, 70, 71, 72, 73, 74, 75, 76, 77, 78, 79, 80, 81, 82, 83, 84, 85, 86, 87, 88, 89, 90, 91, 92, 93, 94, 95, 96, 97, 98, 99, 100, 101, 102, 103, 104, 105, 106, 107, 108, 109, 110, 111, 112, 113, 114, 115, 116, 117, 118, 119, 120, 121, 122, 123, 124, 125],
      "LargestImagePixelValue": [2103, 2034, 2027, 2036, 2024, 2039, 2032, 2021, 2010, 1995, 2024, 2024, 2018, 1992, 2014, 1998, 2015, 2011, 1966, 2000, 2001, 2003, 2000, 2003, 1997, 1998, 2000, 1971, 2013, 2009, 2002, 1975, 1942, 1959, 1964, 1982, 1996, 2002, 1997, 2013, 2014, 2017, 2014, 2009, 2000, 2007, 1986, 1999, 1991, 1985, 1974, 1945, 1961, 1990, 2007, 2013, 2011, 2030, 2001, 2027, 2017, 2016, 2026, 2015, 1988, 2008, 1979, 1995, 2007, 1990, 1997, 1959, 1925, 1952, 1934, 1931, 1941, 1962, 1972, 2000, 1984, 1994, 1996, 1971, 1992, 1986, 1963, 1922, 1927, 1955, 1966, 1990, 2017, 2006, 1986, 1954, 1930, 1916, 1909, 1937, 1924, 1957, 1950, 1979, 2001, 2005, 2024, 2003, 2007, 1989, 1967, 2019, 2033, 2016, 2016, 2002, 1997, 1989, 1964, 1970, 1940, 1966, 1949, 1933, 1923],
      "WindowCenter": [597.0, 594.0, 593.0, 593.0, 593.0, 594.0, 594.0, 592.0, 592.0, 590.0, 591.0, 590.0, 590.0, 591.0, 592.0, 592.0, 593.0, 592.0, 591.0, 590.0, 590.0, 589.0, 589.0, 589.0, 589.0, 590.0, 590.0, 589.0, 590.0, 591.0, 592.0, 592.0, 590.0, 589.0, 589.0, 590.0, 590.0, 590.0, 591.0, 591.0, 592.0, 592.0, 593.0, 592.0, 592.0, 591.0, 590.0, 590.0, 590.0, 589.0, 590.0, 590.0, 590.0, 591.0, 591.0, 591.0, 592.0, 592.0, 591.0, 591.0, 591.0, 591.0, 591.0, 591.0, 590.0, 590.0, 590.0, 590.0, 590.0, 591.0, 591.0, 590.0, 589.0, 589.0, 589.0, 589.0, 589.0, 589.0, 589.0, 589.0, 590.0, 590.0, 590.0, 590.0, 591.0, 590.0, 589.0, 588.0, 588.0, 589.0, 590.0, 591.0, 591.0, 590.0, 590.0, 589.0, 588.0, 588.0, 587.0, 588.0, 588.0, 589.0, 589.0, 589.0, 590.0, 590.0, 590.0, 590.0, 590.0, 589.0, 589.0, 590.0, 590.0, 590.0, 590.0, 590.0, 590.0, 590.0, 590.0, 590.0, 590.0, 589.0, 589.0, 588.0, 587.0],
      "WindowWidth": [1268.0, 1261.0, 1258.0, 1259.0, 1260.0, 1262.0, 1261.0, 1258.0, 1255.0, 1253.0, 1253.0, 1253.0, 1253.0, 1254.0, 1256.0, 1257.0, 1258.0, 1258.0, 1254.0, 1253.0, 1251.0, 1250.0, 1250.0, 1251.0, 1250.0, 1252.0, 1251.0, 1250.0, 1253.0, 1255.0, 1257.0, 1256.0, 1252.0, 1251.0, 1250.0, 1251.0, 1251.0, 1252.0, 1254.0, 1255.0, 1256.0, 1258.0, 1258.0, 1256.0, 1256.0, 1255.0, 1252.0, 1251.0, 1251.0, 1250.0, 1251.0, 1251.0, 1252.0, 1253.0, 1254.0, 1254.0, 1256.0, 1257.0, 1256.0, 1255.0, 1255.0, 1255.0, 1255.0, 1255.0, 1253.0, 1253.0, 1252.0, 1252.0, 1253.0, 1254.0, 1255.0, 1253.0, 1251.0, 1250.0, 1251.0, 1251.0, 1250.0, 1249.0, 1249.0, 1250.0, 1252.0, 1253.0, 1253.0, 1253.0, 1254.0, 1253.0, 1251.0, 1249.0, 1249.0, 1251.0, 1253.0, 1255.0, 1255.0, 1252.0, 1252.0, 1250.0, 1249.0, 1248.0, 1247.0, 1249.0, 1248.0, 1249.0, 1250.0, 1251.0, 1253.0, 1253.0, 1253.0, 1253.0, 1253.0, 1251.0, 1250.0, 1252.0, 1253.0, 1252.0, 1252.0, 1252.0, 1252.0, 1251.0, 1251.0, 1252.0, 1251.0, 1251.0, 1249.0, 1247.0, 1246.0]
    },
    "slices": {}
  }
}