{
  "AcquisitionMatrixPE": 88,
  "AcquisitionNumber": 1,
  "AcquisitionTime": "17:56:22.987500",
  "BandwidthPerPixelPhaseEncode": 19.592,
  "BaseResolution": 88,
  "BodyPartExamined": "BRAIN",
  "ConsistencyInfo": "N4_VE11C_LATEST_20160120",
  "ConversionSoftware": "dcm2niix",
  "ConversionSoftwareVersion": "v1.0.20190902",
  "DerivedVendorReportedEchoSpacing": 0.000580014,
  "DeviceSerialNumber": "67050",
  "DwellTime": 2.6e-06,
  "EchoTime": 0.033,
  "EchoTrainLength": 88,
  "EffectiveEchoSpacing": 0.000580014,
  "FlipAngle": 62,
  "ImageOrientationPatientDICOM": [0.99735, 0.0725488, -0.00548851, -0.0727158, 0.996469, -0.041984],
  "ImageType": [
    "ORIGINAL",
    "PRIMARY",
    "M",
    "ND",
    "MOSAIC"
],
  "ImagingFrequency": 123.25,
  "InPlanePhaseEncodingDirectionDICOM": "COL",
  "InstitutionAddress": "Olive_Street_60_Providence_RI_US_02912",
  "InstitutionName": "BROWN_UNIVERSITY_MRF",
  "InstitutionalDepartmentName": "Department",
  "MRAcquisitionType": "2D",
  "MagneticFieldStrength": 3,
  "Manufacturer": "Siemens",
  "ManufacturersModelName": "Prisma_fit",
  "Modality": "MR",
  "MultibandAccelerationFactor": 4,
  "PartialFourier": 1,
  "PatientPosition": "HFS",
  "PercentPhaseFOV": 100,
  "PhaseEncodingDirection": "j-",
  "PhaseEncodingSteps": 88,
  "PhaseResolution": 1,
  "PixelBandwidth": 2185,
  "ProcedureStepDescription": "ASHENHAV_1222",
  "ProtocolName": "func-bold_task-RDMcolor_run-05",
  "PulseSequenceDetails": "%SiemensSeq%_ep2d_bold",
  "ReceiveCoilActiveElements": "HC1-7",
  "ReceiveCoilName": "HeadNeck_64",
  "ReconMatrixPE": 88,
  "RefLinesPE": 8,
  "RepetitionTime": 1.2,
  "SAR": 0.0601099,
  "ScanOptions": "FS",
  "ScanningSequence": "EP",
  "SequenceName": "_epfid2d1_88",
  "SequenceVariant": "SK",
  "SeriesDescription": "func-bold_task-RDMcolor_run-05",
  "SeriesNumber": 16,
  "ShimSetting": [1752, -9088, 4419, 342, -17, -59, -45, 0],
  "SliceThickness": 2.4,
  "SliceTiming": [0.5525, 0, 0.63, 0.08, 0.71, 0.1575, 0.7875, 0.2375, 0.865, 0.315, 0.945, 0.395, 1.0225, 0.4725, 1.1025, 0.5525, 0, 0.63, 0.08, 0.71, 0.1575, 0.7875, 0.2375, 0.865, 0.315, 0.945, 0.395, 1.0225, 0.4725, 1.1025, 0.5525, 0, 0.63, 0.08, 0.71, 0.1575, 0.7875, 0.2375, 0.865, 0.315, 0.945, 0.395, 1.0225, 0.4725, 1.1025, 0.5525, 0, 0.63, 0.08, 0.71, 0.1575, 0.7875, 0.2375, 0.865, 0.315, 0.945, 0.395, 1.0225, 0.4725, 1.1025],
  "SoftwareVersions": "syngo_MR_E11",
  "SpacingBetweenSlices": 2.4,
  "StationName": "AWP67050",
  "TaskName": "RDMcolor",
  "TotalReadoutTime": 0.0504612,
  "TxRefAmp": 234.758,
  "dcmmeta_affine": [
    [-2.3913726806640625, -0.17435261607170105, -0.005815757438540459, 115.19979095458984],
    [-0.17395231127738953, 2.3892600536346436, -0.10145245492458344, -85.26564025878906],
    [-0.013159940019249916, 0.10066623985767365, 2.3978476524353027, -58.80396270751953],
    [0.0, 0.0, 0.0, 1.0]
],
  "dcmmeta_reorient_transform": [
    [0.0, -1.0, 0.0, 87.0],
    [1.0, 0.0, 0.0, 0.0],
    [0.0, 0.0, 1.0, 0.0],
    [0.0, 0.0, 0.0, 1.0]
],
  "dcmmeta_shape": [88, 88, 60, 392],
  "dcmmeta_slice_dim": 2,
  "dcmmeta_version": 0.6,
  "global": {
    "const": {
      "AcquisitionMatrix": [88, 0, 0, 88],
      "AngioFlag": "N",
      "BitsAllocated": 16,
      "BitsStored": 12,
      "BodyPartExamined": "BRAIN",
      "Columns": 704,
      "DeidentificationMethodCodeSequence": [
        {
          "CodeMeaning": "XNAT DicomEdit 6 Script",
          "CodeValue": "3",
          "CodingSchemeDesignator": "XNAT",
          "CodingSchemeVersion": "1.0"}
],
      "EchoNumbers": 1,
      "EchoTime": 33.0,
      "EchoTrainLength": 88,
      "FlipAngle": 62.0,
      "HighBit": 11,
      "ImageOrientationPatient": [0.99734975969822, 0.07254883274229, -0.0054885059573, -0.0727157807882, 0.99646864326278, -0.0419840233707],
      "ImagePositionPatient": [-782.87330133211, -912.06938230124, -14.987537415944],
      "ImageType": [
        "ORIGINAL",
        "PRIMARY",
        "M",
        "ND",
        "MOSAIC"
],
      "ImagedNucleus": "1H",
      "ImagingFrequency": 123.249983,
      "InPlanePhaseEncodingDirection": "COL",
      "MRAcquisitionType": "2D",
      "MagneticFieldStrength": 3.0,
      "Manufacturer": "SIEMENS",
      "ManufacturerModelName": "Prisma_fit",
      "Modality": "MR",
      "NumberOfAverages": 1.0,
      "NumberOfPhaseEncodingSteps": 88,
      "PercentPhaseFieldOfView": 100.0,
      "PercentSampling": 100.0,
      "PerformedProcedureStepStartTime": "164442.180000",
      "PhotometricInterpretation": "MONOCHROME2",
      "PixelBandwidth": 2185.0,
      "PixelRepresentation": 0,
      "PixelSpacing": [2.3977272510529, 2.3977272510529],
      "ProtocolName": "func-bold_task-RDMcolor_run-05",
      "RepetitionTime": 1200.0,
      "Rows": 704,
      "SAR": 0.06010986175512,
      "SamplesPerPixel": 1,
      "ScanOptions": "FS",
      "ScanningSequence": "EP",
      "SequenceName": "*epfid2d1_88",
      "SequenceVariant": "SK",
      "SeriesDescription": "func-bold_task-RDMcolor_run-05",
      "SeriesNumber": 16,
      "SeriesTime": "175647.488000",
      "SliceLocation": -55.426046637402,
      "SliceThickness": 2.4000000953674,
      "SmallestImagePixelValue": 0,
      "SoftwareVersions": "syngo MR E11",
      "SpacingBetweenSlices": 2.4000000123726,
      "SpecificCharacterSet": "ISO_IR 100",
      "StudyID": "1",
      "StudyTime": "164442.108000",
      "TransmitCoilName": "Body",
      "VariableFlipAngleFlag": "N",
      "WindowCenterWidthExplanation": "Algo1",
      "dBdt": 0.0},
    "slices": {}
  },
  "time": {
    "samples": {
      "AcquisitionNumber": [1, 2, 3, 4, 5, 6, 7, 8, 9, 10, 11, 12, 13, 14, 15, 16, 17, 18, 19, 20, 21, 22, 23, 24, 25, 26, 27, 28, 29, 30, 31, 32, 33, 34, 35, 36, 37, 38, 39, 40, 41, 42, 43, 44, 45, 46, 47, 48, 49, 50, 51, 52, 53, 54, 55, 56, 57, 58, 59, 60, 61, 62, 63, 64, 65, 66, 67, 68, 69, 70, 71, 72, 73, 74, 75, 76, 77, 78, 79, 80, 81, 82, 83, 84, 85, 86, 87, 88, 89, 90, 91, 92, 93, 94, 95, 96, 97, 98, 99, 100, 101, 102, 103, 104, 105, 106, 107, 108, 109, 110, 111, 112, 113, 114, 115, 116, 117, 118, 119, 120, 121, 122, 123, 124, 125, 126, 127, 128, 129, 130, 131, 132, 133, 134, 135, 136, 137, 138, 139, 140, 141, 142, 143, 144, 145, 146, 147, 148, 149, 150, 151, 152, 153, 154, 155, 156, 157, 158, 159, 160, 161, 162, 163, 164, 165, 166, 167, 168, 169, 170, 171, 172, 173, 174, 175, 176, 177, 178, 179, 180, 181, 182, 183, 184, 185, 186, 187, 188, 189, 190, 191, 192, 193, 194, 195, 196, 197, 198, 199, 200, 201, 202, 203, 204, 205, 206, 207, 208, 209, 210, 211, 212, 213, 214, 215, 216, 217, 218, 219, 220, 221, 222, 223, 224, 225, 226, 227, 228, 229, 230, 231, 232, 233, 234, 235, 236, 237, 238, 239, 240, 241, 242, 243, 244, 245, 246, 247, 248, 249, 250, 251, 252, 253, 254, 255, 256, 257, 258, 259, 260, 261, 262, 263, 264, 265, 266, 267, 268, 269, 270, 271, 272, 273, 274, 275, 276, 277, 278, 279, 280, 281, 282, 283, 284, 285, 286, 287, 288, 289, 290, 291, 292, 293, 294, 295, 296, 297, 298, 299, 300, 301, 302, 303, 304, 305, 306, 307, 308, 309, 310, 311, 312, 313, 314, 315, 316, 317, 318, 319, 320, 321, 322, 323, 324, 325, 326, 327, 328, 329, 330, 331, 332, 333, 334, 335, 336, 337, 338, 339, 340, 341, 342, 343, 344, 345, 346, 347, 348, 349, 350, 351, 352, 353, 354, 355, 356, 357, 358, 359, 360, 361, 362, 363, 364, 365, 366, 367, 368, 369, 370, 371, 372, 373, 374, 375, 376, 377, 378, 379, 380, 381, 382, 383, 384, 385, 386, 387, 388, 389, 390, 391, 392],
      "AcquisitionTime": ["175622.987500", "175624.187500", "175625.387500", "175626.587500", "175627.787500", "175628.987500", "175630.187500", "175631.387500", "175632.587500", "175633.787500", "175634.987500", "175636.187500", "175637.387500", "175638.587500", "175639.787500", "175640.987500", "175642.187500", "175643.387500", "175644.587500", "175645.787500", "175646.987500", "175648.187500", "175649.387500", "175650.587500", "175651.787500", "175652.987500", "175654.187500", "175655.387500", "175656.587500", "175657.787500", "175658.987500", "175700.187500", "175701.387500", "175702.587500", "175703.787500", "175704.987500", "175706.187500", "175707.387500", "175708.587500", "175709.787500", "175710.987500", "175712.187500", "175713.387500", "175714.587500", "175715.787500", "175716.987500", "175718.187500", "175719.387500", "175720.587500", "175721.787500", "175722.987500", "175724.187500", "175725.387500", "175726.587500", "175727.787500", "175728.987500", "175730.187500", "175731.387500", "175732.587500", "175733.787500", "175734.987500", "175736.187500", "175737.387500", "175738.587500", "175739.787500", "175740.987500", "175742.187500", "175743.387500", "175744.587500", "175745.787500", "175746.987500", "175748.187500", "175749.387500", "175750.587500", "175751.787500", "175752.987500", "175754.187500", "175755.387500", "175756.587500", "175757.787500", "175758.987500", "175800.187500", "175801.387500", "175802.587500", "175803.787500", "175804.987500", "175806.187500", "175807.387500", "175808.587500", "175809.787500", "175810.987500", "175812.187500", "175813.387500", "175814.587500", "175815.787500", "175816.987500", "175818.187500", "175819.387500", "175820.587500", "175821.787500", "175822.987500", "175824.187500", "175825.387500", "175826.587500", "175827.787500", "175828.987500", "175830.187500", "175831.387500", "175832.587500", "175833.787500", "175834.987500", "175836.187500", "175837.387500", "175838.587500", "175839.787500", "175840.987500", "175842.187500", "175843.387500", "175844.587500", "175845.787500", "175846.987500", "175848.187500", "175849.387500", "175850.587500", "175851.787500", "175852.987500", "175854.187500", "175855.387500", "175856.587500", "175857.787500", "175858.987500", "175900.187500", "175901.387500", "175902.587500", "175903.787500", "175904.987500", "175906.187500", "175907.387500", "175908.587500", "175909.787500", "175910.987500", "175912.187500", "175913.387500", "175914.587500", "175915.787500", "175916.987500", "175918.187500", "175919.387500", "175920.587500", "175921.787500", "175922.987500", "175924.187500", "175925.387500", "175926.587500", "175927.787500", "175928.987500", "175930.187500", "175931.387500", "175932.587500", "175933.787500", "175934.987500", "175936.187500", "175937.387500", "175938.587500", "175939.787500", "175940.987500", "175942.187500", "175943.387500", "175944.587500", "175945.787500", "175946.987500", "175948.187500", "175949.387500", "175950.587500", "175951.787500", "175952.987500", "175954.187500", "175955.387500", "175956.587500", "175957.787500", "175958.987500", "180000.187500", "180001.387500", "180002.587500", "180003.787500", "180004.987500", "180006.187500", "180007.387500", "180008.587500", "180009.787500", "180010.987500", "180012.187500", "180013.387500", "180014.587500", "180015.787500", "180016.987500", "180018.187500", "180019.387500", "180020.587500", "180021.787500", "180022.987500", "180024.187500", "180025.387500", "180026.587500", "180027.787500", "180028.987500", "180030.187500", "180031.387500", "180032.587500", "180033.787500", "180034.987500", "180036.187500", "180037.387500", "180038.587500", "180039.787500", "180040.987500", "180042.187500", "180043.387500", "180044.587500", "180045.787500", "180046.987500", "180048.187500", "180049.387500", "180050.587500", "180051.787500", "180052.987500", "180054.187500", "180055.387500", "180056.587500", "180057.787500", "180058.987500", "180100.187500", "180101.387500", "180102.587500", "180103.787500", "180104.987500", "180106.187500", "180107.387500", "180108.587500", "180109.787500", "180110.987500", "180112.187500", "180113.387500", "180114.587500", "180115.787500", "180116.987500", "180118.187500", "180119.387500", "180120.587500", "180121.787500", "180122.987500", "180124.187500", "180125.387500", "180126.587500", "180127.787500", "180128.987500", "180130.187500", "180131.387500", "180132.587500", "180133.787500", "180134.987500", "180136.187500", "180137.387500", "180138.587500", "180139.787500", "180140.987500", "180142.187500", "180143.387500", "180144.587500", "180145.787500", "180146.987500", "180148.187500", "180149.387500", "180150.587500", "180151.787500", "180152.987500", "180154.187500", "180155.387500", "180156.587500", "180157.787500", "180158.987500", "180200.187500", "180201.387500", "180202.587500", "180203.787500", "180204.987500", "180206.187500", "180207.387500", "180208.587500", "180209.787500", "180210.987500", "180212.187500", "180213.387500", "180214.587500", "180215.787500", "180216.987500", "180218.187500", "180219.387500", "180220.587500", "180221.787500", "180222.987500", "180224.187500", "180225.387500", "180226.587500", "180227.787500", "180228.987500", "180230.187500", "180231.387500", "180232.587500", "180233.787500", "180234.987500", "180236.187500", "180237.387500", "180238.587500", "180239.787500", "180240.987500", "180242.187500", "180243.387500", "180244.587500", "180245.787500", "180246.987500", "180248.187500", "180249.387500", "180250.587500", "180251.787500", "180252.987500", "180254.187500", "180255.387500", "180256.587500", "180257.787500", "180258.987500", "180300.187500", "180301.387500", "180302.587500", "180303.787500", "180304.987500", "180306.187500", "180307.387500", "180308.587500", "180309.787500", "180310.987500", "180312.187500", "180313.387500", "180314.587500", "180315.787500", "180316.987500", "180318.187500", "180319.387500", "180320.587500", "180321.787500", "180322.987500", "180324.187500", "180325.387500", "180326.587500", "180327.787500", "180328.987500", "180330.187500", "180331.387500", "180332.587500", "180333.787500", "180334.987500", "180336.187500", "180337.387500", "180338.587500", "180339.787500", "180340.987500", "180342.187500", "180343.387500", "180344.587500", "180345.787500", "180346.987500", "180348.187500", "180349.387500", "180350.587500", "180351.787500", "180352.987500", "180354.187500", "180355.387500", "180356.587500", "180357.787500", "180358.987500", "180400.187500", "180401.387500", "180402.587500", "180403.787500", "180404.987500", "180406.187500", "180407.387500", "180408.587500", "180409.787500", "180410.987500", "180412.187500"],
      "ContentTime": ["175647.491000", "175647.494000", "175647.497000", "175647.499000", "175647.502000", "175647.505000", "175647.507000", "175647.510000", "175647.515000", "175647.521000", "175647.527000", "175647.529000", "175647.532000", "175647.534000", "175647.537000", "175647.539000", "175647.542000", "175647.545000", "175647.547000", "175647.550000", "175727.487000", "175727.490000", "175727.492000", "175727.506000", "175727.509000", "175727.511000", "175727.514000", "175727.517000", "175727.519000", "175727.522000", "175727.524000", "175727.527000", "175727.529000", "175727.532000", "175727.535000", "175727.537000", "175727.540000", "175727.543000", "175727.545000", "175727.548000", "175727.551000", "175727.553000", "175727.556000", "175727.558000", "175727.561000", "175727.563000", "175727.566000", "175727.568000", "175727.571000", "175727.574000", "175727.584000", "175727.587000", "175727.589000", "175807.487000", "175807.489000", "175807.492000", "175807.495000", "175807.497000", "175807.500000", "175807.502000", "175807.505000", "175807.507000", "175807.510000", "175807.513000", "175807.515000", "175807.518000", "175807.520000", "175807.523000", "175807.526000", "175807.528000", "175807.531000", "175807.533000", "175807.536000", "175807.538000", "175807.541000", "175807.544000", "175807.546000", "175807.549000", "175807.551000", "175807.554000", "175807.556000", "175807.559000", "175807.562000", "175807.564000", "175807.567000", "175807.569000", "175847.486000", "175847.489000", "175847.492000", "175847.494000", "175847.497000", "175847.499000", "175847.502000", "175847.505000", "175847.507000", "175847.510000", "175847.512000", "175847.515000", "175847.521000", "175847.523000", "175847.526000", "175847.528000", "175847.531000", "175847.534000", "175847.536000", "175847.539000", "175847.541000", "175847.544000", "175847.547000", "175847.549000", "175847.552000", "175847.554000", "175847.557000", "175847.559000", "175847.562000", "175847.564000", "175847.567000", "175847.570000", "175847.572000", "175847.575000", "175927.486000", "175927.488000", "175927.491000", "175927.493000", "175927.496000", "175927.498000", "175927.501000", "175927.504000", "175927.506000", "175927.509000", "175927.511000", "175927.514000", "175927.517000", "175927.519000", "175927.522000", "175927.524000", "175927.527000", "175927.529000", "175927.533000", "175927.535000", "175927.538000", "175927.540000", "175927.543000", "175927.545000", "175927.565000", "175927.568000", "175927.570000", "175927.573000", "175927.575000", "175927.578000", "175927.581000", "175927.584000", "175927.586000", "180007.486000", "180007.489000", "180007.492000", "180007.494000", "180007.497000", "180007.500000", "180007.502000", "180007.505000", "180007.507000", "180007.510000", "180007.513000", "180007.515000", "180007.518000", "180007.520000", "180007.523000", "180007.525000", "180007.528000", "180007.531000", "180007.533000", "180007.536000", "180007.538000", "180007.541000", "180007.544000", "180007.546000", "180007.549000", "180007.551000", "180007.554000", "180007.557000", "180007.559000", "180007.562000", "180007.564000", "180007.567000", "180007.569000", "180047.486000", "180047.489000", "180047.492000", "180047.494000", "180047.497000", "180047.499000", "180047.502000", "180047.505000", "180047.507000", "180047.510000", "180047.512000", "180047.515000", "180047.518000", "180047.520000", "180047.523000", "180047.525000", "180047.528000", "180047.530000", "180047.533000", "180047.535000", "180047.538000", "180047.541000", "180047.543000", "180047.546000", "180047.548000", "180047.551000", "180047.553000", "180047.556000", "180047.558000", "180047.561000", "180047.563000", "180047.566000", "180047.569000", "180047.571000", "180127.486000", "180127.489000", "180127.492000", "180127.494000", "180127.497000", "180127.500000", "180127.502000", "180127.505000", "180127.514000", "180127.516000", "180127.519000", "180127.521000", "180127.524000", "180127.527000", "180127.529000", "180127.532000", "180127.535000", "180127.537000", "180127.540000", "180127.542000", "180127.545000", "180127.548000", "180127.550000", "180127.553000", "180127.555000", "180127.558000", "180127.560000", "180127.563000", "180127.566000", "180127.568000", "180127.571000", "180127.582000", "180127.585000", "180207.487000", "180207.490000", "180207.492000", "180207.495000", "180207.497000", "180207.500000", "180207.503000", "180207.505000", "180207.508000", "180207.510000", "180207.513000", "180207.516000", "180207.518000", "180207.521000", "180207.523000", "180207.526000", "180207.529000", "180207.531000", "180207.534000", "180207.536000", "180207.539000", "180207.542000", "180207.544000", "180207.547000", "180207.549000", "180207.552000", "180207.555000", "180207.557000", "180207.560000", "180207.563000", "180207.565000", "180207.568000", "180207.570000", "180247.487000", "180247.489000", "180247.492000", "180247.495000", "180247.497000", "180247.500000", "180247.502000", "180247.505000", "180247.508000", "180247.510000", "180247.513000", "180247.515000", "180247.518000", "180247.521000", "180247.523000", "180247.526000", "180247.529000", "180247.531000", "180247.534000", "180247.536000", "180247.539000", "180247.542000", "180247.544000", "180247.547000", "180247.549000", "180247.552000", "180247.554000", "180247.557000", "180247.560000", "180247.562000", "180247.565000", "180247.568000", "180247.570000", "180247.573000", "180327.487000", "180327.489000", "180327.492000", "180327.495000", "180327.498000", "180327.500000", "180327.503000", "180327.505000", "180327.508000", "180327.511000", "180327.513000", "180327.516000", "180327.519000", "180327.521000", "180327.524000", "180327.526000", "180327.529000", "180327.532000", "180327.534000", "180327.537000", "180327.553000", "180327.556000", "180327.559000", "180327.561000", "180327.564000", "180327.567000", "180327.569000", "180327.572000", "180327.574000", "180327.577000", "180327.580000", "180327.582000", "180327.585000", "180407.486000", "180407.488000", "180407.491000", "180407.494000", "180407.496000", "180407.499000", "180407.502000", "180407.504000", "180407.507000", "180407.509000", "180407.512000", "180407.516000", "180407.518000", "180407.521000", "180407.524000", "180407.526000", "180407.529000", "180407.531000", "180407.534000", "180407.537000", "180407.539000", "180407.542000", "180407.544000", "180407.547000", "180407.550000", "180407.559000", "180407.562000", "180407.565000", "180407.567000", "180407.570000", "180407.573000", "180407.575000", "180407.578000", "180413.768000", "180413.770000", "180413.773000", "180413.776000", "180413.781000", "180413.784000"],
      "InstanceCreationTime": ["175647.491000", "175647.494000", "175647.497000", "175647.499000", "175647.502000", "175647.505000", "175647.507000", "175647.510000", "175647.515000", "175647.521000", "175647.527000", "175647.529000", "175647.532000", "175647.534000", "175647.537000", "175647.539000", "175647.542000", "175647.545000", "175647.547000", "175647.550000", "175727.487000", "175727.490000", "175727.492000", "175727.506000", "175727.509000", "175727.511000", "175727.514000", "175727.517000", "175727.519000", "175727.522000", "175727.524000", "175727.527000", "175727.529000", "175727.532000", "175727.535000", "175727.537000", "175727.540000", "175727.543000", "175727.545000", "175727.548000", "175727.551000", "175727.553000", "175727.556000", "175727.558000", "175727.561000", "175727.563000", "175727.566000", "175727.568000", "175727.571000", "175727.574000", "175727.584000", "175727.587000", "175727.589000", "175807.487000", "175807.489000", "175807.492000", "175807.495000", "175807.497000", "175807.500000", "175807.502000", "175807.505000", "175807.507000", "175807.510000", "175807.513000", "175807.515000", "175807.518000", "175807.520000", "175807.523000", "175807.526000", "175807.528000", "175807.531000", "175807.533000", "175807.536000", "175807.538000", "175807.541000", "175807.544000", "175807.546000", "175807.549000", "175807.551000", "175807.554000", "175807.556000", "175807.559000", "175807.562000", "175807.564000", "175807.567000", "175807.569000", "175847.486000", "175847.489000", "175847.492000", "175847.494000", "175847.497000", "175847.499000", "175847.502000", "175847.505000", "175847.507000", "175847.510000", "175847.512000", "175847.515000", "175847.521000", "175847.523000", "175847.526000", "175847.528000", "175847.531000", "175847.534000", "175847.536000", "175847.539000", "175847.541000", "175847.544000", "175847.547000", "175847.549000", "175847.552000", "175847.554000", "175847.557000", "175847.559000", "175847.562000", "175847.564000", "175847.567000", "175847.570000", "175847.572000", "175847.575000", "175927.486000", "175927.488000", "175927.491000", "175927.493000", "175927.496000", "175927.498000", "175927.501000", "175927.504000", "175927.506000", "175927.509000", "175927.511000", "175927.514000", "175927.517000", "175927.519000", "175927.522000", "175927.524000", "175927.527000", "175927.529000", "175927.533000", "175927.535000", "175927.538000", "175927.540000", "175927.543000", "175927.545000", "175927.565000", "175927.568000", "175927.570000", "175927.573000", "175927.575000", "175927.578000", "175927.581000", "175927.584000", "175927.586000", "180007.486000", "180007.489000", "180007.492000", "180007.494000", "180007.497000", "180007.500000", "180007.502000", "180007.505000", "180007.507000", "180007.510000", "180007.513000", "180007.515000", "180007.518000", "180007.520000", "180007.523000", "180007.525000", "180007.528000", "180007.531000", "180007.533000", "180007.536000", "180007.538000", "180007.541000", "180007.544000", "180007.546000", "180007.549000", "180007.551000", "180007.554000", "180007.557000", "180007.559000", "180007.562000", "180007.564000", "180007.567000", "180007.569000", "180047.486000", "180047.489000", "180047.492000", "180047.494000", "180047.497000", "180047.499000", "180047.502000", "180047.505000", "180047.507000", "180047.510000", "180047.512000", "180047.515000", "180047.518000", "180047.520000", "180047.523000", "180047.525000", "180047.528000", "180047.530000", "180047.533000", "180047.535000", "180047.538000", "180047.541000", "180047.543000", "180047.546000", "180047.548000", "180047.551000", "180047.553000", "180047.556000", "180047.558000", "180047.561000", "180047.563000", "180047.566000", "180047.569000", "180047.571000", "180127.486000", "180127.489000", "180127.492000", "180127.494000", "180127.497000", "180127.500000", "180127.502000", "180127.505000", "180127.514000", "180127.516000", "180127.519000", "180127.521000", "180127.524000", "180127.527000", "180127.529000", "180127.532000", "180127.535000", "180127.537000", "180127.540000", "180127.542000", "180127.545000", "180127.548000", "180127.550000", "180127.553000", "180127.555000", "180127.558000", "180127.560000", "180127.563000", "180127.566000", "180127.568000", "180127.571000", "180127.582000", "180127.585000", "180207.487000", "180207.490000", "180207.492000", "180207.495000", "180207.497000", "180207.500000", "180207.503000", "180207.505000", "180207.508000", "180207.510000", "180207.513000", "180207.516000", "180207.518000", "180207.521000", "180207.523000", "180207.526000", "180207.529000", "180207.531000", "180207.534000", "180207.536000", "180207.539000", "180207.542000", "180207.544000", "180207.547000", "180207.549000", "180207.552000", "180207.555000", "180207.557000", "180207.560000", "180207.563000", "180207.565000", "180207.568000", "180207.570000", "180247.487000", "180247.489000", "180247.492000", "180247.495000", "180247.497000", "180247.500000", "180247.502000", "180247.505000", "180247.508000", "180247.510000", "180247.513000", "180247.515000", "180247.518000", "180247.521000", "180247.523000", "180247.526000", "180247.529000", "180247.531000", "180247.534000", "180247.536000", "180247.539000", "180247.542000", "180247.544000", "180247.547000", "180247.549000", "180247.552000", "180247.554000", "180247.557000", "180247.560000", "180247.562000", "180247.565000", "180247.568000", "180247.570000", "180247.573000", "180327.487000", "180327.489000", "180327.492000", "180327.495000", "180327.498000", "180327.500000", "180327.503000", "180327.505000", "180327.508000", "180327.511000", "180327.513000", "180327.516000", "180327.519000", "180327.521000", "180327.524000", "180327.526000", "180327.529000", "180327.532000", "180327.534000", "180327.537000", "180327.553000", "180327.556000", "180327.559000", "180327.561000", "180327.564000", "180327.567000", "180327.569000", "180327.572000", "180327.574000", "180327.577000", "180327.580000", "180327.582000", "180327.585000", "180407.486000", "180407.488000", "180407.491000", "180407.494000", "180407.496000", "180407.499000", "180407.502000", "180407.504000", "180407.507000", "180407.509000", "180407.512000", "180407.516000", "180407.518000", "180407.521000", "180407.524000", "180407.526000", "180407.529000", "180407.531000", "180407.534000", "180407.537000", "180407.539000", "180407.542000", "180407.544000", "180407.547000", "180407.550000", "180407.559000", "180407.562000", "180407.565000", "180407.567000", "180407.570000", "180407.573000", "180407.575000", "180407.578000", "180413.768000", "180413.770000", "180413.773000", "180413.776000", "180413.781000", "180413.784000"],
      "InstanceNumber": [1, 2, 3, 4, 5, 6, 7, 8, 9, 10, 11, 12, 13, 14, 15, 16, 17, 18, 19, 20, 21, 22, 23, 24, 25, 26, 27, 28, 29, 30, 31, 32, 33, 34, 35, 36, 37, 38, 39, 40, 41, 42, 43, 44, 45, 46, 47, 48, 49, 50, 51, 52, 53, 54, 55, 56, 57, 58, 59, 60, 61, 62, 63, 64, 65, 66, 67, 68, 69, 70, 71, 72, 73, 74, 75, 76, 77, 78, 79, 80, 81, 82, 83, 84, 85, 86, 87, 88, 89, 90, 91, 92, 93, 94, 95, 96, 97, 98, 99, 100, 101, 102, 103, 104, 105, 106, 107, 108, 109, 110, 111, 112, 113, 114, 115, 116, 117, 118, 119, 120, 121, 122, 123, 124, 125, 126, 127, 128, 129, 130, 131, 132, 133, 134, 135, 136, 137, 138, 139, 140, 141, 142, 143, 144, 145, 146, 147, 148, 149, 150, 151, 152, 153, 154, 155, 156, 157, 158, 159, 160, 161, 162, 163, 164, 165, 166, 167, 168, 169, 170, 171, 172, 173, 174, 175, 176, 177, 178, 179, 180, 181, 182, 183, 184, 185, 186, 187, 188, 189, 190, 191, 192, 193, 194, 195, 196, 197, 198, 199, 200, 201, 202, 203, 204, 205, 206, 207, 208, 209, 210, 211, 212, 213, 214, 215, 216, 217, 218, 219, 220, 221, 222, 223, 224, 225, 226, 227, 228, 229, 230, 231, 232, 233, 234, 235, 236, 237, 238, 239, 240, 241, 242, 243, 244, 245, 246, 247, 248, 249, 250, 251, 252, 253, 254, 255, 256, 257, 258, 259, 260, 261, 262, 263, 264, 265, 266, 267, 268, 269, 270, 271, 272, 273, 274, 275, 276, 277, 278, 279, 280, 281, 282, 283, 284, 285, 286, 287, 288, 289, 290, 291, 292, 293, 294, 295, 296, 297, 298, 299, 300, 301, 302, 303, 304, 305, 306, 307, 308, 309, 310, 311, 312, 313, 314, 315, 316, 317, 318, 319, 320, 321, 322, 323, 324, 325, 326, 327, 328, 329, 330, 331, 332, 333, 334, 335, 336, 337, 338, 339, 340, 341, 342, 343, 344, 345, 346, 347, 348, 349, 350, 351, 352, 353, 354, 355, 356, 357, 358, 359, 360, 361, 362, 363, 364, 365, 366, 367, 368, 369, 370, 371, 372, 373, 374, 375, 376, 377, 378, 379, 380, 381, 382, 383, 384, 385, 386, 387, 388, 389, 390, 391, 392],
