{
  "AcquisitionMatrixPE": 88,
  "AcquisitionNumber": 1,
  "AcquisitionTime": "18:13:24.285000",
  "BandwidthPerPixelPhaseEncode": 19.592,
  "BaseResolution": 88,
  "BodyPartExamined": "BRAIN",
  "ConsistencyInfo": "N4_VE11C_LATEST_20160120",
  "ConversionSoftware": "dcm2niix",
  "ConversionSoftwareVersion": "v1.0.20190902",
  "DerivedVendorReportedEchoSpacing": 0.000580014,
  "DeviceSerialNumber": "67050",
  "DwellTime": 2.6e-06,
  "EchoTime": 0.033,
  "EchoTrainLength": 88,
  "EffectiveEchoSpacing": 0.000580014,
  "FlipAngle": 62,
  "ImageOrientationPatientDICOM": [0.99735, 0.0725488, -0.00548851, -0.0727158, 0.996469, -0.041984],
  "ImageType": [
    "ORIGINAL",
    "PRIMARY",
    "M",
    "ND",
    "MOSAIC"
],
  "ImagingFrequency": 123.25,
  "InPlanePhaseEncodingDirectionDICOM": "COL",
  "InstitutionAddress": "Olive_Street_60_Providence_RI_US_02912",
  "InstitutionName": "BROWN_UNIVERSITY_MRF",
  "InstitutionalDepartmentName": "Department",
  "MRAcquisitionType": "2D",
  "MagneticFieldStrength": 3,
  "Manufacturer": "Siemens",
  "ManufacturersModelName": "Prisma_fit",
  "Modality": "MR",
  "MultibandAccelerationFactor": 4,
  "PartialFourier": 1,
  "PatientPosition": "HFS",
  "PercentPhaseFOV": 100,
  "PhaseEncodingDirection": "j-",
  "PhaseEncodingSteps": 88,
  "PhaseResolution": 1,
  "PixelBandwidth": 2185,
  "ProcedureStepDescription": "ASHENHAV_1222",
  "ProtocolName": "func-bold_task-RDMcolor_run-06",
  "PulseSequenceDetails": "%SiemensSeq%_ep2d_bold",
  "ReceiveCoilActiveElements": "HC1-7",
  "ReceiveCoilName": "HeadNeck_64",
  "ReconMatrixPE": 88,
  "RefLinesPE": 8,
  "RepetitionTime": 1.2,
  "SAR": 0.0601099,
  "ScanOptions": "FS",
  "ScanningSequence": "EP",
  "SequenceName": "_epfid2d1_88",
  "SequenceVariant": "SK",
  "SeriesDescription": "func-bold_task-RDMcolor_run-06",
  "SeriesNumber": 18,
  "ShimSetting": [1752, -9088, 4419, 342, -17, -59, -45, 0],
  "SliceThickness": 2.4,
  "SliceTiming": [0.5525, 0, 0.63, 0.08, 0.71, 0.1575, 0.7875, 0.2375, 0.8675, 0.315, 0.945, 0.395, 1.0225, 0.4725, 1.1025, 0.5525, 0, 0.63, 0.08, 0.71, 0.1575, 0.7875, 0.2375, 0.8675, 0.315, 0.945, 0.395, 1.0225, 0.4725, 1.1025, 0.5525, 0, 0.63, 0.08, 0.71, 0.1575, 0.7875, 0.2375, 0.8675, 0.315, 0.945, 0.395, 1.0225, 0.4725, 1.1025, 0.5525, 0, 0.63, 0.08, 0.71, 0.1575, 0.7875, 0.2375, 0.8675, 0.315, 0.945, 0.395, 1.0225, 0.4725, 1.1025],
  "SoftwareVersions": "syngo_MR_E11",
  "SpacingBetweenSlices": 2.4,
  "StationName": "AWP67050",
  "TaskName": "RDMcolor",
  "TotalReadoutTime": 0.0504612,
  "TxRefAmp": 234.758,
  "dcmmeta_affine": [
    [-2.3913726806640625, -0.17435261607170105, -0.005815757438540459, 115.19979095458984],
    [-0.17395231127738953, 2.3892600536346436, -0.10145245492458344, -85.26564025878906],
    [-0.013159940019249916, 0.10066623985767365, 2.3978476524353027, -58.80396270751953],
    [0.0, 0.0, 0.0, 1.0]
],
  "dcmmeta_reorient_transform": [
    [0.0, -1.0, 0.0, 87.0],
    [1.0, 0.0, 0.0, 0.0],
    [0.0, 0.0, 1.0, 0.0],
    [0.0, 0.0, 0.0, 1.0]
],
  "dcmmeta_shape": [88, 88, 60, 392],
  "dcmmeta_slice_dim": 2,
  "dcmmeta_version": 0.6,
  "global": {
    "const": {
      "AcquisitionMatrix": [88, 0, 0, 88],
      "AngioFlag": "N",
      "BitsAllocated": 16,
      "BitsStored": 12,
      "BodyPartExamined": "BRAIN",
      "Columns": 704,
      "DeidentificationMethodCodeSequence": [
        {
          "CodeMeaning": "XNAT DicomEdit 6 Script",
          "CodeValue": "3",
          "CodingSchemeDesignator": "XNAT",
          "CodingSchemeVersion": "1.0"}
],
      "EchoNumbers": 1,
      "EchoTime": 33.0,
      "EchoTrainLength": 88,
      "FlipAngle": 62.0,
      "HighBit": 11,
      "ImageOrientationPatient": [0.99734975969822, 0.07254883274229, -0.0054885059573, -0.0727157807882, 0.99646864326278, -0.0419840233707],
      "ImagePositionPatient": [-782.87330133211, -912.06938230124, -14.987537415944],
      "ImageType": [
        "ORIGINAL",
        "PRIMARY",
        "M",
        "ND",
        "MOSAIC"
],
      "ImagedNucleus": "1H",
      "ImagingFrequency": 123.249985,
      "InPlanePhaseEncodingDirection": "COL",
      "MRAcquisitionType": "2D",
      "MagneticFieldStrength": 3.0,
      "Manufacturer": "SIEMENS",
      "ManufacturerModelName": "Prisma_fit",
      "Modality": "MR",
      "NumberOfAverages": 1.0,
      "NumberOfPhaseEncodingSteps": 88,
      "PercentPhaseFieldOfView": 100.0,
      "PercentSampling": 100.0,
      "PerformedProcedureStepStartTime": "164442.180000",
      "PhotometricInterpretation": "MONOCHROME2",
      "PixelBandwidth": 2185.0,
      "PixelRepresentation": 0,
      "PixelSpacing": [2.3977272510529, 2.3977272510529],
      "ProtocolName": "func-bold_task-RDMcolor_run-06",
      "RepetitionTime": 1200.0,
      "Rows": 704,
      "SAR": 0.06010986175512,
      "SamplesPerPixel": 1,
      "ScanOptions": "FS",
      "ScanningSequence": "EP",
      "SequenceName": "*epfid2d1_88",
      "SequenceVariant": "SK",
      "SeriesDescription": "func-bold_task-RDMcolor_run-06",
      "SeriesNumber": 18,
      "SeriesTime": "181407.487000",
      "SliceLocation": -55.426046637402,
      "SliceThickness": 2.4000000953674,
      "SmallestImagePixelValue": 0,
      "SoftwareVersions": "syngo MR E11",
      "SpacingBetweenSlices": 2.4000000123726,
      "SpecificCharacterSet": "ISO_IR 100",
      "StudyID": "1",
      "StudyTime": "164442.108000",
      "TransmitCoilName": "Body",
      "VariableFlipAngleFlag": "N",
      "WindowCenterWidthExplanation": "Algo1",
      "dBdt": 0.0},
    "slices": {}
  },
  "time": {
    "samples": {
      "AcquisitionNumber": [1, 2, 3, 4, 5, 6, 7, 8, 9, 10, 11, 12, 13, 14, 15, 16, 17, 18, 19, 20, 21, 22, 23, 24, 25, 26, 27, 28, 29, 30, 31, 32, 33, 34, 35, 36, 37, 38, 39, 40, 41, 42, 43, 44, 45, 46, 47, 48, 49, 50, 51, 52, 53, 54, 55, 56, 57, 58, 59, 60, 61, 62, 63, 64, 65, 66, 67, 68, 69, 70, 71, 72, 73, 74, 75, 76, 77, 78, 79, 80, 81, 82, 83, 84, 85, 86, 87, 88, 89, 90, 91, 92, 93, 94, 95, 96, 97, 98, 99, 100, 101, 102, 103, 104, 105, 106, 107, 108, 109, 110, 111, 112, 113, 114, 115, 116, 117, 118, 119, 120, 121, 122, 123, 124, 125, 126, 127, 128, 129, 130, 131, 132, 133, 134, 135, 136, 137, 138, 139, 140, 141, 142, 143, 144, 145, 146, 147, 148, 149, 150, 151, 152, 153, 154, 155, 156, 157, 158, 159, 160, 161, 162, 163, 164, 165, 166, 167, 168, 169, 170, 171, 172, 173, 174, 175, 176, 177, 178, 179, 180, 181, 182, 183, 184, 185, 186, 187, 188, 189, 190, 191, 192, 193, 194, 195, 196, 197, 198, 199, 200, 201, 202, 203, 204, 205, 206, 207, 208, 209, 210, 211, 212, 213, 214, 215, 216, 217, 218, 219, 220, 221, 222, 223, 224, 225, 226, 227, 228, 229, 230, 231, 232, 233, 234, 235, 236, 237, 238, 239, 240, 241, 242, 243, 244, 245, 246, 247, 248, 249, 250, 251, 252, 253, 254, 255, 256, 257, 258, 259, 260, 261, 262, 263, 264, 265, 266, 267, 268, 269, 270, 271, 272, 273, 274, 275, 276, 277, 278, 279, 280, 281, 282, 283, 284, 285, 286, 287, 288, 289, 290, 291, 292, 293, 294, 295, 296, 297, 298, 299, 300, 301, 302, 303, 304, 305, 306, 307, 308, 309, 310, 311, 312, 313, 314, 315, 316, 317, 318, 319, 320, 321, 322, 323, 324, 325, 326, 327, 328, 329, 330, 331, 332, 333, 334, 335, 336, 337, 338, 339, 340, 341, 342, 343, 344, 345, 346, 347, 348, 349, 350, 351, 352, 353, 354, 355, 356, 357, 358, 359, 360, 361, 362, 363, 364, 365, 366, 367, 368, 369, 370, 371, 372, 373, 374, 375, 376, 377, 378, 379, 380, 381, 382, 383, 384, 385, 386, 387, 388, 389, 390, 391, 392],
      "AcquisitionTime": ["181324.285000", "181325.485000", "181326.685000", "181327.885000", "181329.085000", "181330.285000", "181331.485000", "181332.685000", "181333.885000", "181335.085000", "181336.285000", "181337.485000", "181338.685000", "181339.885000", "181341.085000", "181342.285000", "181343.485000", "181344.685000", "181345.885000", "181347.085000", "181348.285000", "181349.485000", "181350.685000", "181351.885000", "181353.085000", "181354.285000", "181355.485000", "181356.685000", "181357.885000", "181359.085000", "181400.285000", "181401.485000", "181402.685000", "181403.885000", "181405.085000", "181406.285000", "181407.485000", "181408.685000", "181409.885000", "181411.085000", "181412.285000", "181413.485000", "181414.685000", "181415.885000", "181417.085000", "181418.285000", "181419.485000", "181420.685000", "181421.885000", "181423.085000", "181424.285000", "181425.485000", "181426.685000", "181427.885000", "181429.085000", "181430.285000", "181431.485000", "181432.685000", "181433.885000", "181435.085000", "181436.285000", "181437.485000", "181438.685000", "181439.885000", "181441.085000", "181442.285000", "181443.485000", "181444.685000", "181445.885000", "181447.085000", "181448.285000", "181449.485000", "181450.685000", "181451.885000", "181453.085000", "181454.285000", "181455.485000", "181456.685000", "181457.885000", "181459.085000", "181500.285000", "181501.485000", "181502.685000", "181503.885000", "181505.085000", "181506.285000", "181507.485000", "181508.685000", "181509.885000", "181511.085000", "181512.285000", "181513.485000", "181514.685000", "181515.885000", "181517.085000", "181518.285000", "181519.485000", "181520.685000", "181521.885000", "181523.085000", "181524.285000", "181525.485000", "181526.685000", "181527.885000", "181529.085000", "181530.285000", "181531.485000", "181532.685000", "181533.885000", "181535.085000", "181536.285000", "181537.485000", "181538.685000", "181539.885000", "181541.085000", "181542.285000", "181543.485000", "181544.685000", "181545.885000", "181547.085000", "181548.285000", "181549.485000", "181550.685000", "181551.885000", "181553.085000", "181554.285000", "181555.485000", "181556.685000", "181557.885000", "181559.085000", "181600.285000", "181601.485000", "181602.685000", "181603.885000", "181605.085000", "181606.285000", "181607.485000", "181608.685000", "181609.885000", "181611.085000", "181612.285000", "181613.485000", "181614.685000", "181615.885000", "181617.085000", "181618.285000", "181619.485000", "181620.685000", "181621.885000", "181623.085000", "181624.285000", "181625.485000", "181626.685000", "181627.885000", "181629.085000", "181630.285000", "181631.485000", "181632.685000", "181633.885000", "181635.085000", "181636.285000", "181637.485000", "181638.685000", "181639.885000", "181641.085000", "181642.285000", "181643.485000", "181644.685000", "181645.885000", "181647.085000", "181648.285000", "181649.485000", "181650.685000", "181651.885000", "181653.085000", "181654.285000", "181655.485000", "181656.685000", "181657.885000", "181659.085000", "181700.285000", "181701.485000", "181702.685000", "181703.885000", "181705.085000", "181706.285000", "181707.485000", "181708.685000", "181709.885000", "181711.085000", "181712.285000", "181713.485000", "181714.685000", "181715.885000", "181717.085000", "181718.285000", "181719.485000", "181720.685000", "181721.885000", "181723.085000", "181724.285000", "181725.485000", "181726.685000", "181727.885000", "181729.085000", "181730.285000", "181731.485000", "181732.685000", "181733.885000", "181735.085000", "181736.285000", "181737.485000", "181738.685000", "181739.885000", "181741.085000", "181742.285000", "181743.485000", "181744.685000", "181745.885000", "181747.085000", "181748.285000", "181749.485000", "181750.685000", "181751.885000", "181753.085000", "181754.285000", "181755.485000", "181756.685000", "181757.885000", "181759.085000", "181800.285000", "181801.485000", "181802.685000", "181803.885000", "181805.085000", "181806.285000", "181807.485000", "181808.685000", "181809.885000", "181811.085000", "181812.285000", "181813.485000", "181814.685000", "181815.885000", "181817.085000", "181818.285000", "181819.485000", "181820.685000", "181821.885000", "181823.085000", "181824.285000", "181825.485000", "181826.685000", "181827.885000", "181829.085000", "181830.285000", "181831.485000", "181832.685000", "181833.885000", "181835.085000", "181836.285000", "181837.485000", "181838.685000", "181839.885000", "181841.085000", "181842.285000", "181843.485000", "181844.685000", "181845.885000", "181847.085000", "181848.285000", "181849.485000", "181850.685000", "181851.885000", "181853.085000", "181854.285000", "181855.485000", "181856.685000", "181857.885000", "181859.085000", "181900.285000", "181901.485000", "181902.685000", "181903.885000", "181905.085000", "181906.285000", "181907.485000", "181908.685000", "181909.885000", "181911.085000", "181912.285000", "181913.485000", "181914.685000", "181915.885000", "181917.085000", "181918.285000", "181919.485000", "181920.685000", "181921.885000", "181923.085000", "181924.285000", "181925.485000", "181926.685000", "181927.885000", "181929.085000", "181930.285000", "181931.485000", "181932.685000", "181933.885000", "181935.085000", "181936.285000", "181937.485000", "181938.685000", "181939.885000", "181941.085000", "181942.285000", "181943.485000", "181944.685000", "181945.885000", "181947.085000", "181948.285000", "181949.485000", "181950.685000", "181951.885000", "181953.085000", "181954.285000", "181955.485000", "181956.685000", "181957.885000", "181959.085000", "182000.285000", "182001.485000", "182002.685000", "182003.885000", "182005.085000", "182006.285000", "182007.485000", "182008.685000", "182009.885000", "182011.085000", "182012.285000", "182013.485000", "182014.685000", "182015.885000", "182017.085000", "182018.285000", "182019.485000", "182020.685000", "182021.885000", "182023.085000", "182024.285000", "182025.485000", "182026.685000", "182027.885000", "182029.085000", "182030.285000", "182031.485000", "182032.685000", "182033.885000", "182035.085000", "182036.285000", "182037.485000", "182038.685000", "182039.885000", "182041.085000", "182042.285000", "182043.485000", "182044.685000", "182045.885000", "182047.085000", "182048.285000", "182049.485000", "182050.685000", "182051.885000", "182053.085000", "182054.285000", "182055.485000", "182056.685000", "182057.885000", "182059.085000", "182100.285000", "182101.485000", "182102.685000", "182103.885000", "182105.085000", "182106.285000", "182107.485000", "182108.685000", "182109.885000", "182111.085000", "182112.285000", "182113.485000"],
      "ContentTime": ["181407.491000", "181407.495000", "181407.497000", "181407.505000", "181407.508000", "181407.510000", "181407.513000", "181407.515000", "181407.518000", "181407.521000", "181407.523000", "181407.526000", "181407.528000", "181407.531000", "181407.534000", "181407.536000", "181407.539000", "181407.541000", "181407.544000", "181407.547000", "181407.549000", "181407.552000", "181407.554000", "181407.557000", "181407.559000", "181407.562000", "181407.564000", "181407.567000", "181407.570000", "181407.572000", "181407.575000", "181407.577000", "181407.580000", "181407.583000", "181407.585000", "181447.486000", "181447.489000", "181447.492000", "181447.495000", "181447.497000", "181447.500000", "181447.502000", "181447.505000", "181447.508000", "181447.510000", "181447.513000", "181447.515000", "181447.518000", "181447.520000", "181447.523000", "181447.526000", "181447.528000", "181447.531000", "181447.534000", "181447.536000", "181447.539000", "181447.541000", "181447.544000", "181447.547000", "181447.549000", "181447.552000", "181447.554000", "181447.557000", "181447.560000", "181447.562000", "181447.565000", "181447.567000", "181447.570000", "181527.486000", "181527.489000", "181527.492000", "181527.494000", "181527.497000", "181527.499000", "181527.508000", "181527.511000", "181527.513000", "181527.516000", "181527.519000", "181527.521000", "181527.524000", "181527.526000", "181527.529000", "181527.532000", "181527.534000", "181527.537000", "181527.539000", "181527.542000", "181527.545000", "181527.547000", "181527.550000", "181527.552000", "181527.555000", "181527.558000", "181527.560000", "181527.563000", "181527.565000", "181527.568000", "181527.571000", "181527.573000", "181527.576000", "181527.578000", "181607.486000", "181607.489000", "181607.492000", "181607.494000", "181607.497000", "181607.499000", "181607.502000", "181607.505000", "181607.507000", "181607.510000", "181607.512000", "181607.515000", "181607.518000", "181607.520000", "181607.523000", "181607.525000", "181607.528000", "181607.531000", "181607.533000", "181607.536000", "181607.538000", "181607.541000", "181607.546000", "181607.549000", "181607.552000", "181607.554000", "181607.557000", "181607.559000", "181607.562000", "181607.564000", "181607.567000", "181607.570000", "181607.572000", "181647.487000", "181647.489000", "181647.492000", "181647.495000", "181647.498000", "181647.500000", "181647.503000", "181647.506000", "181647.508000", "181647.511000", "181647.514000", "181647.516000", "181647.519000", "181647.521000", "181647.524000", "181647.527000", "181647.530000", "181647.532000", "181647.535000", "181647.537000", "181647.540000", "181647.543000", "181647.545000", "181647.548000", "181647.551000", "181647.553000", "181647.556000", "181647.558000", "181647.561000", "181647.564000", "181647.566000", "181647.569000", "181647.571000", "181727.487000", "181727.489000", "181727.492000", "181727.495000", "181727.497000", "181727.500000", "181727.503000", "181727.505000", "181727.508000", "181727.510000", "181727.513000", "181727.516000", "181727.525000", "181727.528000", "181727.531000", "181727.556000", "181727.558000", "181727.561000", "181727.567000", "181727.569000", "181727.572000", "181727.574000", "181727.577000", "181727.579000", "181727.582000", "181727.585000", "181727.588000", "181727.590000", "181727.593000", "181727.595000", "181727.598000", "181727.600000", "181727.603000", "181727.606000", "181807.487000", "181807.489000", "181807.492000", "181807.495000", "181807.498000", "181807.500000", "181807.503000", "181807.506000", "181807.508000", "181807.514000", "181807.517000", "181807.519000", "181807.522000", "181807.525000", "181807.527000", "181807.530000", "181807.532000", "181807.535000", "181807.538000", "181807.540000", "181807.543000", "181807.545000", "181807.548000", "181807.551000", "181807.553000", "181807.556000", "181807.559000", "181807.561000", "181807.564000", "181807.566000", "181807.569000", "181807.572000", "181807.574000", "181847.487000", "181847.489000", "181847.492000", "181847.495000", "181847.497000", "181847.500000", "181847.502000", "181847.505000", "181847.508000", "181847.510000", "181847.513000", "181847.515000", "181847.518000", "181847.521000", "181847.523000", "181847.526000", "181847.529000", "181847.531000", "181847.534000", "181847.537000", "181847.539000", "181847.542000", "181847.544000", "181847.547000", "181847.549000", "181847.552000", "181847.555000", "181847.557000", "181847.560000", "181847.563000", "181847.565000", "181847.568000", "181847.570000", "181927.487000", "181927.489000", "181927.492000", "181927.495000", "181927.497000", "181927.500000", "181927.503000", "181927.505000", "181927.508000", "181927.510000", "181927.513000", "181927.515000", "181927.518000", "181927.520000", "181927.523000", "181927.526000", "181927.528000", "181927.531000", "181927.533000", "181927.536000", "181927.539000", "181927.541000", "181927.544000", "181927.546000", "181927.549000", "181927.552000", "181927.554000", "181927.557000", "181927.559000", "181927.562000", "181927.564000", "181927.567000", "181927.570000", "181927.572000", "182007.487000", "182007.489000", "182007.492000", "182007.495000", "182007.497000", "182007.500000", "182007.503000", "182007.505000", "182007.508000", "182007.510000", "182007.513000", "182007.515000", "182007.518000", "182007.521000", "182007.523000", "182007.526000", "182007.528000", "182007.531000", "182007.534000", "182007.536000", "182007.539000", "182007.541000", "182007.544000", "182007.546000", "182007.549000", "182007.552000", "182007.554000", "182007.557000", "182007.559000", "182007.562000", "182007.565000", "182007.567000", "182007.570000", "182047.486000", "182047.489000", "182047.492000", "182047.495000", "182047.497000", "182047.500000", "182047.502000", "182047.505000", "182047.507000", "182047.510000", "182047.513000", "182047.515000", "182047.518000", "182047.520000", "182047.523000", "182047.526000", "182047.528000", "182047.531000", "182047.533000", "182047.536000", "182047.539000", "182047.541000", "182047.544000", "182047.546000", "182047.549000", "182047.552000", "182047.554000", "182047.557000", "182047.559000", "182047.562000", "182047.564000", "182047.567000", "182047.581000", "182115.496000", "182115.499000", "182115.502000", "182115.504000", "182115.507000", "182115.510000", "182115.512000", "182115.515000", "182115.518000", "182115.520000", "182115.523000", "182115.526000", "182115.528000", "182115.531000", "182115.534000", "182115.536000", "182115.539000", "182115.542000", "182115.544000", "182115.547000", "182115.556000", "182115.559000", "182115.562000", "182115.564000"],
      "InstanceCreationTime": ["181407.491000", "181407.495000", "181407.497000", "181407.505000", "181407.508000", "181407.510000", "181407.513000", "181407.515000", "181407.518000", "181407.521000", "181407.523000", "181407.526000", "181407.528000", "181407.531000", "181407.534000", "181407.536000", "181407.539000", "181407.541000", "181407.544000", "181407.547000", "181407.549000", "181407.552000", "181407.554000", "181407.557000", "181407.559000", "181407.562000", "181407.564000", "181407.567000", "181407.570000", "181407.572000", "181407.575000", "181407.577000", "181407.580000", "181407.583000", "181407.585000", "181447.486000", "181447.489000", "181447.492000", "181447.495000", "181447.497000", "181447.500000", "181447.502000", "181447.505000", "181447.508000", "181447.510000", "181447.513000", "181447.515000", "181447.518000", "181447.520000", "181447.523000", "181447.526000", "181447.528000", "181447.531000", "181447.534000", "181447.536000", "181447.539000", "181447.541000", "181447.544000", "181447.547000", "181447.549000", "181447.552000", "181447.554000", "181447.557000", "181447.560000", "181447.562000", "181447.565000", "181447.567000", "181447.570000", "181527.486000", "181527.489000", "181527.492000", "181527.494000", "181527.497000", "181527.499000", "181527.508000", "181527.511000", "181527.513000", "181527.516000", "181527.519000", "181527.521000", "181527.524000", "181527.526000", "181527.529000", "181527.532000", "181527.534000", "181527.537000", "181527.539000", "181527.542000", "181527.545000", "181527.547000", "181527.550000", "181527.552000", "181527.555000", "181527.558000", "181527.560000", "181527.563000", "181527.565000", "181527.568000", "181527.571000", "181527.573000", "181527.576000", "181527.578000", "181607.486000", "181607.489000", "181607.492000", "181607.494000", "181607.497000", "181607.499000", "181607.502000", "181607.505000", "181607.507000", "181607.510000", "181607.512000", "181607.515000", "181607.518000", "181607.520000", "181607.523000", "181607.525000", "181607.528000", "181607.531000", "181607.533000", "181607.536000", "181607.538000", "181607.541000", "181607.546000", "181607.549000", "181607.552000", "181607.554000", "181607.557000", "181607.559000", "181607.562000", "181607.564000", "181607.567000", "181607.570000", "181607.572000", "181647.487000", "181647.489000", "181647.492000", "181647.495000", "181647.498000", "181647.500000", "181647.503000", "181647.506000", "181647.508000", "181647.511000", "181647.514000", "181647.516000", "181647.519000", "181647.521000", "181647.524000", "181647.527000", "181647.530000", "181647.532000", "181647.535000", "181647.537000", "181647.540000", "181647.543000", "181647.545000", "181647.548000", "181647.551000", "181647.553000", "181647.556000", "181647.558000", "181647.561000", "181647.564000", "181647.566000", "181647.569000", "181647.571000", "181727.487000", "181727.489000", "181727.492000", "181727.495000", "181727.497000", "181727.500000", "181727.503000", "181727.505000", "181727.508000", "181727.510000", "181727.513000", "181727.516000", "181727.525000", "181727.528000", "181727.531000", "181727.556000", "181727.558000", "181727.561000", "181727.567000", "181727.569000", "181727.572000", "181727.574000", "181727.577000", "181727.579000", "181727.582000", "181727.585000", "181727.588000", "181727.590000", "181727.593000", "181727.595000", "181727.598000", "181727.600000", "181727.603000", "181727.606000", "181807.487000", "181807.489000", "181807.492000", "181807.495000", "181807.498000", "181807.500000", "181807.503000", "181807.506000", "181807.508000", "181807.514000", "181807.517000", "181807.519000", "181807.522000", "181807.525000", "181807.527000", "181807.530000", "181807.532000", "181807.535000", "181807.538000", "181807.540000", "181807.543000", "181807.545000", "181807.548000", "181807.551000", "181807.553000", "181807.556000", "181807.559000", "181807.561000", "181807.564000", "181807.566000", "181807.569000", "181807.572000", "181807.574000", "181847.487000", "181847.489000", "181847.492000", "181847.495000", "181847.497000", "181847.500000", "181847.502000", "181847.505000", "181847.508000", "181847.510000", "181847.513000", "181847.515000", "181847.518000", "181847.521000", "181847.523000", "181847.526000", "181847.529000", "181847.531000", "181847.534000", "181847.537000", "181847.539000", "181847.542000", "181847.544000", "181847.547000", "181847.549000", "181847.552000", "181847.555000", "181847.557000", "181847.560000", "181847.563000", "181847.565000", "181847.568000", "181847.570000", "181927.487000", "181927.489000", "181927.492000", "181927.495000", "181927.497000", "181927.500000", "181927.503000", "181927.505000", "181927.508000", "181927.510000", "181927.513000", "181927.515000", "181927.518000", "181927.520000", "181927.523000", "181927.526000", "181927.528000", "181927.531000", "181927.533000", "181927.536000", "181927.539000", "181927.541000", "181927.544000", "181927.546000", "181927.549000", "181927.552000", "181927.554000", "181927.557000", "181927.559000", "181927.562000", "181927.564000", "181927.567000", "181927.570000", "181927.572000", "182007.487000", "182007.489000", "182007.492000", "182007.495000", "182007.497000", "182007.500000", "182007.503000", "182007.505000", "182007.508000", "182007.510000", "182007.513000", "182007.515000", "182007.518000", "182007.521000", "182007.523000", "182007.526000", "182007.528000", "182007.531000", "182007.534000", "182007.536000", "182007.539000", "182007.541000", "182007.544000", "182007.546000", "182007.549000", "182007.552000", "182007.554000", "182007.557000", "182007.559000", "182007.562000", "182007.565000", "182007.567000", "182007.570000", "182047.486000", "182047.489000", "182047.492000", "182047.495000", "182047.497000", "182047.500000", "182047.502000", "182047.505000", "182047.507000", "182047.510000", "182047.513000", "182047.515000", "182047.518000", "182047.520000", "182047.523000", "182047.526000", "182047.528000", "182047.531000", "182047.533000", "182047.536000", "182047.539000", "182047.541000", "182047.544000", "182047.546000", "182047.549000", "182047.552000", "182047.554000", "182047.557000", "182047.559000", "182047.562000", "182047.564000", "182047.567000", "182047.581000", "182115.496000", "182115.499000", "182115.502000", "182115.504000", "182115.507000", "182115.510000", "182115.512000", "182115.515000", "182115.518000", "182115.520000", "182115.523000", "182115.526000", "182115.528000", "182115.531000", "182115.534000", "182115.536000", "182115.539000", "182115.542000", "182115.544000", "182115.547000", "182115.556000", "182115.559000", "182115.562000", "182115.564000"],
      "InstanceNumber": [1, 2, 3, 4, 5, 6, 7, 8, 9, 10, 11, 12, 13, 14, 15, 16, 17, 18, 19, 20, 21, 22, 23, 24, 25, 26, 27, 28, 29, 30, 31, 32, 33, 34, 35, 36, 37, 38, 39, 40, 41, 42, 43, 44, 45, 46, 47, 48, 49, 50, 51, 52, 53, 54, 55, 56, 57, 58, 59, 60, 61, 62, 63, 64, 65, 66, 67, 68, 69, 70, 71, 72, 73, 74, 75, 76, 77, 78, 79, 80, 81, 82, 83, 84, 85, 86, 87, 88, 89, 90, 91, 92, 93, 94, 95, 96, 97, 98, 99, 100, 101, 102, 103, 104, 105, 106, 107, 108, 109, 110, 111, 112, 113, 114, 115, 116, 117, 118, 119, 120, 121, 122, 123, 124, 125, 126, 127, 128, 129, 130, 131, 132, 133, 134, 135, 136, 137, 138, 139, 140, 141, 142, 143, 144, 145, 146, 147, 148, 149, 150, 151, 152, 153, 154, 155, 156, 157, 158, 159, 160, 161, 162, 163, 164, 165, 166, 167, 168, 169, 170, 171, 172, 173, 174, 175, 176, 177, 178, 179, 180, 181, 182, 183, 184, 185, 186, 187, 188, 189, 190, 191, 192, 193, 194, 195, 196, 197, 198, 199, 200, 201, 202, 203, 204, 205, 206, 207, 208, 209, 210, 211, 212, 213, 214, 215, 216, 217, 218, 219, 220, 221, 222, 223, 224, 225, 226, 227, 228, 229, 230, 231, 232, 233, 234, 235, 236, 237, 238, 239, 240, 241, 242, 243, 244, 245, 246, 247, 248, 249, 250, 251, 252, 253, 254, 255, 256, 257, 258, 259, 260, 261, 262, 263, 264, 265, 266, 267, 268, 269, 270, 271, 272, 273, 274, 275, 276, 277, 278, 279, 280, 281, 282, 283, 284, 285, 286, 287, 288, 289, 290, 291, 292, 293, 294, 295, 296, 297, 298, 299, 300, 301, 302, 303, 304, 305, 306, 307, 308, 309, 310, 311, 312, 313, 314, 315, 316, 317, 318, 319, 320, 321, 322, 323, 324, 325, 326, 327, 328, 329, 330, 331, 332, 333, 334, 335, 336, 337, 338, 339, 340, 341, 342, 343, 344, 345, 346, 347, 348, 349, 350, 351, 352, 353, 354, 355, 356, 357, 358, 359, 360, 361, 362, 363, 364, 365, 366, 367, 368, 369, 370, 371, 372, 373, 374, 375, 376, 377, 378, 379, 380, 381, 382, 383, 384, 385, 386, 387, 388, 389, 390, 391, 392],
