{
  "AcquisitionMatrixPE": 88,
  "AcquisitionNumber": 1,
  "AcquisitionTime": "18:10:9.847500",
  "BandwidthPerPixelPhaseEncode": 19.592,
  "BaseResolution": 88,
  "BodyPartExamined": "BRAIN",
  "ConsistencyInfo": "N4_VE11C_LATEST_20160120",
  "ConversionSoftware": "dcm2niix",
  "ConversionSoftwareVersion": "v1.0.20190902",
  "DerivedVendorReportedEchoSpacing": 0.000580014,
  "DeviceSerialNumber": "67050",
  "DwellTime": 2.6e-06,
  "EchoTime": 0.033,
  "EchoTrainLength": 88,
  "EffectiveEchoSpacing": 0.000580014,
  "FlipAngle": 62,
  "ImageOrientationPatientDICOM": [0.99735, 0.0725488, -0.00548851, -0.0727158, 0.996469, -0.041984],
  "ImageType": [
    "ORIGINAL",
    "PRIMARY",
    "M",
    "ND",
    "MOSAIC"
],
  "ImagingFrequency": 123.25,
  "InPlanePhaseEncodingDirectionDICOM": "COL",
  "InstitutionAddress": "Olive_Street_60_Providence_RI_US_02912",
  "InstitutionName": "BROWN_UNIVERSITY_MRF",
  "InstitutionalDepartmentName": "Department",
  "MRAcquisitionType": "2D",
  "MagneticFieldStrength": 3,
  "Manufacturer": "Siemens",
  "ManufacturersModelName": "Prisma_fit",
  "Modality": "MR",
  "MultibandAccelerationFactor": 4,
  "PartialFourier": 1,
  "PatientPosition": "HFS",
  "PercentPhaseFOV": 100,
  "PhaseEncodingDirection": "j-",
  "PhaseEncodingSteps": 88,
  "PhaseResolution": 1,
  "PixelBandwidth": 2185,
  "ProcedureStepDescription": "ASHENHAV_1222",
  "ProtocolName": "func-bold_task-RDMmotion_run-06",
  "PulseSequenceDetails": "%SiemensSeq%_ep2d_bold",
  "ReceiveCoilActiveElements": "HC1-7",
  "ReceiveCoilName": "HeadNeck_64",
  "ReconMatrixPE": 88,
  "RefLinesPE": 8,
  "RepetitionTime": 1.2,
  "SAR": 0.0594997,
  "ScanOptions": "FS",
  "ScanningSequence": "EP",
  "SequenceName": "_epfid2d1_88",
  "SequenceVariant": "SK",
  "SeriesDescription": "func-bold_task-RDMmotion_run-06",
  "SeriesNumber": 17,
  "ShimSetting": [1752, -9088, 4419, 342, -17, -59, -45, 0],
  "SliceThickness": 2.4,
  "SliceTiming": [0.55, 0, 0.63, 0.08, 0.7075, 0.1575, 0.7875, 0.235, 0.865, 0.315, 0.945, 0.3925, 1.0225, 0.4725, 1.1025, 0.55, 0, 0.63, 0.08, 0.7075, 0.1575, 0.7875, 0.235, 0.865, 0.315, 0.945, 0.3925, 1.0225, 0.4725, 1.1025, 0.55, 0, 0.63, 0.08, 0.7075, 0.1575, 0.7875, 0.235, 0.865, 0.315, 0.945, 0.3925, 1.0225, 0.4725, 1.1025, 0.55, 0, 0.63, 0.08, 0.7075, 0.1575, 0.7875, 0.235, 0.865, 0.315, 0.945, 0.3925, 1.0225, 0.4725, 1.1025],
  "SoftwareVersions": "syngo_MR_E11",
  "SpacingBetweenSlices": 2.4,
  "StationName": "AWP67050",
  "TaskName": "RDMmotion",
  "TotalReadoutTime": 0.0504612,
  "TxRefAmp": 234.758,
  "dcmmeta_affine": [
    [-2.3913726806640625, -0.17435261607170105, -0.005815757438540459, 115.19979095458984],
    [-0.17395231127738953, 2.3892600536346436, -0.10145245492458344, -85.26564025878906],
    [-0.013159940019249916, 0.10066623985767365, 2.3978476524353027, -58.80396270751953],
    [0.0, 0.0, 0.0, 1.0]
],
  "dcmmeta_reorient_transform": [
    [0.0, -1.0, 0.0, 87.0],
    [1.0, 0.0, 0.0, 0.0],
    [0.0, 0.0, 1.0, 0.0],
    [0.0, 0.0, 0.0, 1.0]
],
  "dcmmeta_shape": [88, 88, 60, 125],
  "dcmmeta_slice_dim": 2,
  "dcmmeta_version": 0.6,
  "global": {
    "const": {
      "AcquisitionMatrix": [88, 0, 0, 88],
      "AngioFlag": "N",
      "BitsAllocated": 16,
      "BitsStored": 12,
      "BodyPartExamined": "BRAIN",
      "Columns": 704,
      "DeidentificationMethodCodeSequence": [
        {
          "CodeMeaning": "XNAT DicomEdit 6 Script",
          "CodeValue": "3",
          "CodingSchemeDesignator": "XNAT",
          "CodingSchemeVersion": "1.0"}
],
      "EchoNumbers": 1,
      "EchoTime": 33.0,
      "EchoTrainLength": 88,
      "FlipAngle": 62.0,
      "HighBit": 11,
      "ImageOrientationPatient": [0.99734975969822, 0.07254883274229, -0.0054885059573, -0.0727157807882, 0.99646864326278, -0.0419840233707],
      "ImagePositionPatient": [-782.87330133211, -912.06938230124, -14.987537415944],
      "ImageType": [
        "ORIGINAL",
        "PRIMARY",
        "M",
        "ND",
        "MOSAIC"
],
      "ImagedNucleus": "1H",
      "ImagingFrequency": 123.249983,
      "InPlanePhaseEncodingDirection": "COL",
      "MRAcquisitionType": "2D",
      "MagneticFieldStrength": 3.0,
      "Manufacturer": "SIEMENS",
      "ManufacturerModelName": "Prisma_fit",
      "Modality": "MR",
      "NumberOfAverages": 1.0,
      "NumberOfPhaseEncodingSteps": 88,
      "PercentPhaseFieldOfView": 100.0,
      "PercentSampling": 100.0,
      "PerformedProcedureStepStartTime": "164442.180000",
      "PhotometricInterpretation": "MONOCHROME2",
      "PixelBandwidth": 2185.0,
      "PixelRepresentation": 0,
      "PixelSpacing": [2.3977272510529, 2.3977272510529],
      "ProtocolName": "func-bold_task-RDMmotion_run-06",
      "RepetitionTime": 1200.0,
      "Rows": 704,
      "SAR": 0.05949972610368,
      "SamplesPerPixel": 1,
      "ScanOptions": "FS",
      "ScanningSequence": "EP",
      "SequenceName": "*epfid2d1_88",
      "SequenceVariant": "SK",
      "SeriesDescription": "func-bold_task-RDMmotion_run-06",
      "SeriesNumber": 17,
      "SeriesTime": "181043.226000",
      "SliceLocation": -55.426046637402,
      "SliceThickness": 2.4000000953674,
      "SmallestImagePixelValue": 0,
      "SoftwareVersions": "syngo MR E11",
      "SpacingBetweenSlices": 2.4000000123726,
      "SpecificCharacterSet": "ISO_IR 100",
      "StudyID": "1",
      "StudyTime": "164442.108000",
      "TransmitCoilName": "Body",
      "VariableFlipAngleFlag": "N",
      "WindowCenterWidthExplanation": "Algo1",
      "dBdt": 0.0},
    "slices": {}
  },
  "time": {
    "samples": {
      "AcquisitionNumber": [1, 2, 3, 4, 5, 6, 7, 8, 9, 10, 11, 12, 13, 14, 15, 16, 17, 18, 19, 20, 21, 22, 23, 24, 25, 26, 27, 28, 29, 30, 31, 32, 33, 34, 35, 36, 37, 38, 39, 40, 41, 42, 43, 44, 45, 46, 47, 48, 49, 50, 51, 52, 53, 54, 55, 56, 57, 58, 59, 60, 61, 62, 63, 64, 65, 66, 67, 68, 69, 70, 71, 72, 73, 74, 75, 76, 77, 78, 79, 80, 81, 82, 83, 84, 85, 86, 87, 88, 89, 90, 91, 92, 93, 94, 95, 96, 97, 98, 99, 100, 101, 102, 103, 104, 105, 106, 107, 108, 109, 110, 111, 112, 113, 114, 115, 116, 117, 118, 119, 120, 121, 122, 123, 124, 125],
      "AcquisitionTime": ["181009.847500", "181011.047500", "181012.247500", "181013.447500", "181014.647500", "181015.847500", "181017.047500", "181018.247500", "181019.447500", "181020.647500", "181021.847500", "181023.047500", "181024.247500", "181025.447500", "181026.647500", "181027.847500", "181029.047500", "181030.247500", "181031.447500", "181032.647500", "181033.847500", "181035.047500", "181036.247500", "181037.447500", "181038.647500", "181039.847500", "181041.047500", "181042.247500", "181043.447500", "181044.647500", "181045.847500", "181047.047500", "181048.247500", "181049.447500", "181050.647500", "181051.847500", "181053.047500", "181054.247500", "181055.447500", "181056.647500", "181057.847500", "181059.047500", "181100.247500", "181101.447500", "181102.647500", "181103.847500", "181105.047500", "181106.247500", "181107.447500", "181108.647500", "181109.847500", "181111.047500", "181112.247500", "181113.447500", "181114.647500", "181115.847500", "181117.047500", "181118.247500", "181119.447500", "181120.647500", "181121.847500", "181123.047500", "181124.247500", "181125.447500", "181126.647500", "181127.847500", "181129.047500", "181130.247500", "181131.447500", "181132.647500", "181133.847500", "181135.047500", "181136.247500", "181137.447500", "181138.647500", "181139.847500", "181141.047500", "181142.247500", "181143.447500", "181144.647500", "181145.847500", "181147.047500", "181148.247500", "181149.447500", "181150.647500", "181151.847500", "181153.047500", "181154.247500", "181155.447500", "181156.647500", "181157.847500", "181159.047500", "181200.247500", "181201.447500", "181202.647500", "181203.847500", "181205.047500", "181206.247500", "181207.447500", "181208.647500", "181209.847500", "181211.047500", "181212.247500", "181213.447500", "181214.647500", "181215.847500", "181217.047500", "181218.247500", "181219.447500", "181220.647500", "181221.847500", "181223.047500", "181224.247500", "181225.447500", "181226.647500", "181227.847500", "181229.047500", "181230.247500", "181231.447500", "181232.647500", "181233.847500", "181235.047500", "181236.247500", "181237.447500", "181238.647500"],
      "ContentTime": ["181043.229000", "181043.232000", "181043.235000", "181043.238000", "181043.240000", "181043.243000", "181043.253000", "181043.256000", "181043.258000", "181043.268000", "181043.271000", "181043.274000", "181043.276000", "181043.279000", "181043.282000", "181043.284000", "181043.287000", "181043.289000", "181043.292000", "181043.295000", "181043.297000", "181043.300000", "181043.302000", "181043.305000", "181043.307000", "181043.310000", "181043.313000", "181123.225000", "181123.227000", "181123.240000", "181123.242000", "181123.245000", "181123.248000", "181123.250000", "181123.253000", "181123.255000", "181123.258000", "181123.260000", "181123.263000", "181123.266000", "181123.268000", "181123.271000", "181123.273000", "181123.276000", "181123.279000", "181123.281000", "181123.285000", "181123.288000", "181123.296000", "181123.298000", "181123.301000", "181123.304000", "181123.306000", "181123.309000", "181123.311000", "181123.314000", "181123.317000", "181123.319000", "181123.322000", "181123.324000", "181203.225000", "181203.228000", "181203.231000", "181203.233000", "181203.236000", "181203.239000", "181203.241000", "181203.244000", "181203.247000", "181203.249000", "181203.252000", "181203.255000", "181203.257000", "181203.260000", "181203.263000", "181203.266000", "181203.269000", "181203.271000", "181203.274000", "181203.277000", "181203.279000", "181203.282000", "181203.284000", "181203.287000", "181203.289000", "181203.292000", "181203.294000", "181203.297000", "181203.300000", "181203.302000", "181203.305000", "181203.308000", "181203.310000", "181240.478000", "181240.481000", "181240.484000", "181240.486000", "181240.490000", "181240.492000", "181240.495000", "181240.497000", "181240.500000", "181240.502000", "181240.505000", "181240.508000", "181240.511000", "181240.513000", "181240.516000", "181240.518000", "181240.521000", "181240.524000", "181240.526000", "181240.529000", "181240.532000", "181240.535000", "181240.537000", "181240.540000", "181240.557000", "181240.560000", "181240.563000", "181240.565000", "181240.570000", "181240.573000", "181240.575000", "181240.578000"],
      "InstanceCreationTime": ["181043.229000", "181043.232000", "181043.235000", "181043.238000", "181043.240000", "181043.243000", "181043.253000", "181043.256000", "181043.258000", "181043.268000", "181043.271000", "181043.274000", "181043.276000", "181043.279000", "181043.282000", "181043.284000", "181043.287000", "181043.289000", "181043.292000", "181043.295000", "181043.297000", "181043.300000", "181043.302000", "181043.305000", "181043.307000", "181043.310000", "181043.313000", "181123.225000", "181123.227000", "181123.240000", "181123.242000", "181123.245000", "181123.248000", "181123.250000", "181123.253000", "181123.255000", "181123.258000", "181123.260000", "181123.263000", "181123.266000", "181123.268000", "181123.271000", "181123.273000", "181123.276000", "181123.279000", "181123.281000", "181123.285000", "181123.288000", "181123.296000", "181123.298000", "181123.301000", "181123.304000", "181123.306000", "181123.309000", "181123.311000", "181123.314000", "181123.317000", "181123.319000", "181123.322000", "181123.324000", "181203.225000", "181203.228000", "181203.231000", "181203.233000", "181203.236000", "181203.239000", "181203.241000", "181203.244000", "181203.247000", "181203.249000", "181203.252000", "181203.255000", "181203.257000", "181203.260000", "181203.263000", "181203.266000", "181203.269000", "181203.271000", "181203.274000", "181203.277000", "181203.279000", "181203.282000", "181203.284000", "181203.287000", "181203.289000", "181203.292000", "181203.294000", "181203.297000", "181203.300000", "181203.302000", "181203.305000", "181203.308000", "181203.310000", "181240.478000", "181240.481000", "181240.484000", "181240.486000", "181240.490000", "181240.492000", "181240.495000", "181240.497000", "181240.500000", "181240.502000", "181240.505000", "181240.508000", "181240.511000", "181240.513000", "181240.516000", "181240.518000", "181240.521000", "181240.524000", "181240.526000", "181240.529000", "181240.532000", "181240.535000", "181240.537000", "181240.540000", "181240.557000", "181240.560000", "181240.563000", "181240.565000", "181240.570000", "181240.573000", "181240.575000", "181240.578000"],
      "InstanceNumber": [1, 2, 3, 4, 5, 6, 7, 8, 9, 10, 11, 12, 13, 14, 15, 16, 17, 18, 19, 20, 21, 22, 23, 24, 25, 26, 27, 28, 29, 30, 31, 32, 33, 34, 35, 36, 37, 38, 39, 40, 41, 42, 43, 44, 45, 46, 47, 48, 49, 50, 51, 52, 53, 54, 55, 56, 57, 58, 59, 60, 61, 62, 63, 64, 65, 66, 67, 68, 69, 70, 71, 72, 73, 74, 75, 76, 77, 78, 79, 80, 81, 82, 83, 84, 85, 86, 87, 88, 89, 90, 91, 92, 93, 94, 95, 96, 97, 98, 99, 100, 101, 102, 103, 104, 105, 106, 107, 108, 109, 110, 111, 112, 113, 114, 115, 116, 117, 118, 119, 120, 121, 122, 123, 124, 125],
      "LargestImagePixelValue": [2063, 1991, 1960, 1938, 1948, 1943, 1946, 1951, 1930, 1938, 1921, 1935, 1934, 1927, 1928, 1940, 1942, 1924, 1937, 1934, 1931, 1928, 1934, 1954, 1939, 1949, 1940, 1939, 1938, 1942, 1936, 1927, 1934, 1936, 1929, 1911, 1940, 1934, 1936, 1930, 1944, 1939, 1945, 1950, 1941, 1939, 1934, 1947, 1957, 1944, 1942, 1924, 1926, 1930, 1942, 1935, 1946, 1935, 1937, 1939, 1929, 1929, 1938, 1917, 1935, 1930, 1942, 1941, 1934, 1932, 1940, 1938, 1921, 1933, 1910, 1941, 1919, 1936, 1912, 1921, 1938, 1937, 1963, 1946, 1948, 1945, 1933, 1934, 1950, 1941, 1926, 1951, 1954, 1964, 1947, 1953, 1949, 1948, 1947, 1957, 1955, 1937, 1956, 1934, 1921, 1933, 1913, 1928, 1919, 1917, 1915, 1922, 1915, 1910, 1928, 1916, 1921, 1935, 1954, 1929, 1949, 1920, 1943, 1961, 1984],
      "WindowCenter": [595.0, 592.0, 591.0, 591.0, 591.0, 592.0, 593.0, 593.0, 592.0, 591.0, 589.0, 588.0, 588.0, 588.0, 588.0, 588.0, 588.0, 588.0, 588.0, 588.0, 589.0, 588.0, 589.0, 589.0, 589.0, 589.0, 589.0, 588.0, 589.0, 588.0, 588.0, 588.0, 588.0, 589.0, 589.0, 589.0, 589.0, 589.0, 588.0, 589.0, 589.0, 590.0, 590.0, 590.0, 589.0, 589.0, 590.0, 590.0, 590.0, 589.0, 588.0, 588.0, 588.0, 589.0, 589.0, 589.0, 590.0, 589.0, 589.0, 589.0, 588.0, 588.0, 588.0, 587.0, 587.0, 587.0, 588.0, 589.0, 589.0, 588.0, 588.0, 588.0, 588.0, 588.0, 587.0, 587.0, 587.0, 587.0, 587.0, 587.0, 589.0, 589.0, 590.0, 588.0, 587.0, 587.0, 587.0, 588.0, 588.0, 588.0, 588.0, 589.0, 589.0, 588.0, 587.0, 588.0, 588.0, 587.0, 588.0, 588.0, 589.0, 589.0, 589.0, 588.0, 586.0, 586.0, 586.0, 586.0, 586.0, 586.0, 586.0, 586.0, 586.0, 586.0, 586.0, 587.0, 588.0, 589.0, 590.0, 589.0, 589.0, 588.0, 589.0, 590.0, 590.0],
      "WindowWidth": [1264.0, 1258.0, 1255.0, 1254.0, 1256.0, 1258.0, 1259.0, 1260.0, 1257.0, 1254.0, 1250.0, 1249.0, 1249.0, 1247.0, 1248.0, 1249.0, 1248.0, 1248.0, 1249.0, 1249.0, 1249.0, 1248.0, 1250.0, 1251.0, 1251.0, 1250.0, 1249.0, 1249.0, 1249.0, 1249.0, 1249.0, 1248.0, 1249.0, 1251.0, 1251.0, 1251.0, 1250.0, 1250.0, 1249.0, 1250.0, 1250.0, 1251.0, 1252.0, 1251.0, 1251.0, 1251.0, 1252.0, 1252.0, 1252.0, 1250.0, 1249.0, 1248.0, 1249.0, 1250.0, 1251.0, 1250.0, 1253.0, 1251.0, 1251.0, 1249.0, 1248.0, 1247.0, 1248.0, 1247.0, 1247.0, 1247.0, 1249.0, 1249.0, 1249.0, 1248.0, 1249.0, 1248.0, 1247.0, 1247.0, 1247.0, 1247.0, 1246.0, 1246.0, 1246.0, 1247.0, 1250.0, 1251.0, 1252.0, 1249.0, 1247.0, 1246.0, 1247.0, 1248.0, 1249.0, 1249.0, 1249.0, 1251.0, 1250.0, 1248.0, 1247.0, 1248.0, 1248.0, 1247.0, 1248.0, 1249.0, 1250.0, 1250.0, 1250.0, 1247.0, 1245.0, 1244.0, 1243.0, 1244.0, 1243.0, 1243.0, 1243.0, 1244.0, 1245.0, 1244.0, 1245.0, 1247.0, 1249.0, 1251.0, 1252.0, 1250.0, 1250.0, 1249.0, 1250.0, 1252.0, 1252.0]
    },
    "slices": {}
  }
}