{
  "AcquisitionMatrixPE": 88,
  "AcquisitionNumber": 1,
  "AcquisitionTime": "11:31:14.980000",
  "BandwidthPerPixelPhaseEncode": 19.592,
  "BaseResolution": 88,
  "BodyPartExamined": "BRAIN",
  "ConsistencyInfo": "N4_VE11C_LATEST_20160120",
  "ConversionSoftware": "dcm2niix",
  "ConversionSoftwareVersion": "v1.0.20190902",
  "DerivedVendorReportedEchoSpacing": 0.000580014,
  "DeviceSerialNumber": "67050",
  "DwellTime": 2.6e-06,
  "EchoTime": 0.033,
  "EchoTrainLength": 88,
  "EffectiveEchoSpacing": 0.000580014,
  "FlipAngle": 62,
  "ImageOrientationPatientDICOM": [0.997163, 0.0300884, 0.0689908, -0.0346474, 0.997227, 0.0658658],
  "ImageType": [
    "ORIGINAL",
    "PRIMARY",
    "M",
    "ND",
    "MOSAIC"
],
  "ImagingFrequency": 123.251,
  "InPlanePhaseEncodingDirectionDICOM": "COL",
  "InstitutionAddress": "Olive_Street_60_Providence_RI_US_02912",
  "InstitutionName": "BROWN_UNIVERSITY_MRF",
  "InstitutionalDepartmentName": "Department",
  "MRAcquisitionType": "2D",
  "MagneticFieldStrength": 3,
  "Manufacturer": "Siemens",
  "ManufacturersModelName": "Prisma_fit",
  "Modality": "MR",
  "MultibandAccelerationFactor": 4,
  "PartialFourier": 1,
  "PatientPosition": "HFS",
  "PercentPhaseFOV": 100,
  "PhaseEncodingDirection": "j-",
  "PhaseEncodingSteps": 88,
  "PhaseResolution": 1,
  "PixelBandwidth": 2185,
  "ProcedureStepDescription": "ASHENHAV_1222",
  "ProtocolName": "func-bold_task-RDMmotion_run-02",
  "PulseSequenceDetails": "%SiemensSeq%_ep2d_bold",
  "ReceiveCoilActiveElements": "HC1-7",
  "ReceiveCoilName": "HeadNeck_64",
  "ReconMatrixPE": 88,
  "RefLinesPE": 8,
  "RepetitionTime": 1.2,
  "SAR": 0.0539945,
  "ScanOptions": "FS",
  "ScanningSequence": "EP",
  "SequenceName": "_epfid2d1_88",
  "SequenceVariant": "SK",
  "SeriesDescription": "func-bold_task-RDMmotion_run-02",
  "SeriesNumber": 9,
  "ShimSetting": [1755, -9106, 4368, 521, -129, -289, -13, -24],
  "SliceThickness": 2.4,
  "SliceTiming": [0.55, 0, 0.6275, 0.0775, 0.7075, 0.1575, 0.785, 0.235, 0.865, 0.315, 0.9425, 0.3925, 1.0225, 0.4725, 1.1, 0.55, 0, 0.6275, 0.0775, 0.7075, 0.1575, 0.785, 0.235, 0.865, 0.315, 0.9425, 0.3925, 1.0225, 0.4725, 1.1, 0.55, 0, 0.6275, 0.0775, 0.7075, 0.1575, 0.785, 0.235, 0.865, 0.315, 0.9425, 0.3925, 1.0225, 0.4725, 1.1, 0.55, 0, 0.6275, 0.0775, 0.7075, 0.1575, 0.785, 0.235, 0.865, 0.315, 0.9425, 0.3925, 1.0225, 0.4725, 1.1],
  "SoftwareVersions": "syngo_MR_E11",
  "SpacingBetweenSlices": 2.4,
  "StationName": "AWP67050",
  "TaskName": "RDMmotion",
  "TotalReadoutTime": 0.0504612,
  "TxRefAmp": 233.939,
  "dcmmeta_affine": [
    [-2.390925884246826, -0.08307506144046783, 0.1603623926639557, 106.84453582763672],
    [-0.07214389741420746, 2.391077756881714, 0.16336631774902344, -98.88887786865234],
    [0.16542109847068787, -0.15792818367481232, 2.3890573978424072, -66.8197250366211],
    [0.0, 0.0, 0.0, 1.0]
],
  "dcmmeta_reorient_transform": [
    [0.0, -1.0, 0.0, 87.0],
    [1.0, 0.0, 0.0, 0.0],
    [0.0, 0.0, 1.0, 0.0],
    [0.0, 0.0, 0.0, 1.0]
],
  "dcmmeta_shape": [88, 88, 60, 125],
  "dcmmeta_slice_dim": 2,
  "dcmmeta_version": 0.6,
  "global": {
    "const": {
      "AcquisitionMatrix": [88, 0, 0, 88],
      "AngioFlag": "N",
      "BitsAllocated": 16,
      "BitsStored": 12,
      "BodyPartExamined": "BRAIN",
      "Columns": 704,
      "DeidentificationMethodCodeSequence": [
        {
          "CodeMeaning": "XNAT DicomEdit 6 Script",
          "CodeValue": "3",
          "CodingSchemeDesignator": "XNAT",
          "CodingSchemeVersion": "1.0"}
],
      "EchoNumbers": 1,
      "EchoTime": 33.0,
      "EchoTrainLength": 88,
      "FlipAngle": 62.0,
      "HighBit": 11,
      "ImageOrientationPatient": [0.99716345496954, 0.03008844891914, 0.06899079152214, -0.0346474184873, 0.99722678221535, 0.06586578189461],
      "ImagePositionPatient": [-810.43509057221, -867.80718548387, -180.15105447881],
      "ImageType": [
        "ORIGINAL",
        "PRIMARY",
        "M",
        "ND",
        "MOSAIC"
],
      "ImagedNucleus": "1H",
      "ImagingFrequency": 123.250724,
      "InPlanePhaseEncodingDirection": "COL",
      "MRAcquisitionType": "2D",
      "MagneticFieldStrength": 3.0,
      "Manufacturer": "SIEMENS",
      "ManufacturerModelName": "Prisma_fit",
      "Modality": "MR",
      "NumberOfAverages": 1.0,
      "NumberOfPhaseEncodingSteps": 88,
      "PercentPhaseFieldOfView": 100.0,
      "PercentSampling": 100.0,
      "PerformedProcedureStepStartTime": "110400.035000",
      "PhotometricInterpretation": "MONOCHROME2",
      "PixelBandwidth": 2185.0,
      "PixelRepresentation": 0,
      "PixelSpacing": [2.3977272510529, 2.3977272510529],
      "ProtocolName": "func-bold_task-RDMmotion_run-02",
      "RepetitionTime": 1200.0,
      "Rows": 704,
      "SAR": 0.05399452067544,
      "SamplesPerPixel": 1,
      "ScanOptions": "FS",
      "ScanningSequence": "EP",
      "SequenceName": "*epfid2d1_88",
      "SequenceVariant": "SK",
      "SeriesDescription": "func-bold_task-RDMmotion_run-02",
      "SeriesNumber": 9,
      "SeriesTime": "113138.584000",
      "SliceLocation": -66.107260365833,
      "SliceThickness": 2.4000000953674,
      "SmallestImagePixelValue": 0,
      "SoftwareVersions": "syngo MR E11",
      "SpacingBetweenSlices": 2.3999999364574,
      "SpecificCharacterSet": "ISO_IR 100",
      "StudyID": "1",
      "StudyTime": "110359.954000",
      "TransmitCoilName": "Body",
      "VariableFlipAngleFlag": "N",
      "WindowCenterWidthExplanation": "Algo1",
      "dBdt": 0.0},
    "slices": {}
  },
  "time": {
    "samples": {
      "AcquisitionNumber": [1, 2, 3, 4, 5, 6, 7, 8, 9, 10, 11, 12, 13, 14, 15, 16, 17, 18, 19, 20, 21, 22, 23, 24, 25, 26, 27, 28, 29, 30, 31, 32, 33, 34, 35, 36, 37, 38, 39, 40, 41, 42, 43, 44, 45, 46, 47, 48, 49, 50, 51, 52, 53, 54, 55, 56, 57, 58, 59, 60, 61, 62, 63, 64, 65, 66, 67, 68, 69, 70, 71, 72, 73, 74, 75, 76, 77, 78, 79, 80, 81, 82, 83, 84, 85, 86, 87, 88, 89, 90, 91, 92, 93, 94, 95, 96, 97, 98, 99, 100, 101, 102, 103, 104, 105, 106, 107, 108, 109, 110, 111, 112, 113, 114, 115, 116, 117, 118, 119, 120, 121, 122, 123, 124, 125],
      "AcquisitionTime": ["113114.980000", "113116.180000", "113117.380000", "113118.580000", "113119.780000", "113120.980000", "113122.180000", "113123.380000", "113124.580000", "113125.780000", "113126.980000", "113128.180000", "113129.380000", "113130.580000", "113131.780000", "113132.980000", "113134.180000", "113135.380000", "113136.580000", "113137.780000", "113138.980000", "113140.180000", "113141.380000", "113142.580000", "113143.780000", "113144.980000", "113146.180000", "113147.380000", "113148.580000", "113149.780000", "113150.980000", "113152.180000", "113153.380000", "113154.580000", "113155.780000", "113156.980000", "113158.180000", "113159.380000", "113200.580000", "113201.780000", "113202.980000", "113204.180000", "113205.380000", "113206.580000", "113207.780000", "113208.980000", "113210.180000", "113211.380000", "113212.580000", "113213.780000", "113214.980000", "113216.180000", "113217.380000", "113218.580000", "113219.780000", "113220.980000", "113222.180000", "113223.380000", "113224.580000", "113225.780000", "113226.980000", "113228.180000", "113229.380000", "113230.580000", "113231.780000", "113232.980000", "113234.180000", "113235.380000", "113236.580000", "113237.780000", "113238.980000", "113240.180000", "113241.380000", "113242.580000", "113243.780000", "113244.980000", "113246.180000", "113247.380000", "113248.580000", "113249.780000", "113250.980000", "113252.180000", "113253.380000", "113254.580000", "113255.780000", "113256.980000", "113258.180000", "113259.380000", "113300.580000", "113301.780000", "113302.980000", "113304.180000", "113305.380000", "113306.580000", "113307.780000", "113308.980000", "113310.180000", "113311.380000", "113312.580000", "113313.780000", "113314.980000", "113316.180000", "113317.380000", "113318.580000", "113319.780000", "113320.980000", "113322.180000", "113323.380000", "113324.580000", "113325.780000", "113326.980000", "113328.180000", "113329.380000", "113330.580000", "113331.780000", "113332.980000", "113334.180000", "113335.380000", "113336.580000", "113337.780000", "113338.980000", "113340.180000", "113341.380000", "113342.580000", "113343.780000"],
      "ContentTime": ["113138.587000", "113138.590000", "113138.593000", "113138.595000", "113138.598000", "113138.600000", "113138.603000", "113138.605000", "113138.608000", "113138.611000", "113138.613000", "113138.616000", "113138.627000", "113138.630000", "113138.632000", "113138.641000", "113138.643000", "113138.646000", "113138.648000", "113218.581000", "113218.584000", "113218.587000", "113218.589000", "113218.592000", "113218.594000", "113218.597000", "113218.599000", "113218.602000", "113218.604000", "113218.607000", "113218.609000", "113218.612000", "113218.615000", "113218.617000", "113218.620000", "113218.622000", "113218.625000", "113218.627000", "113218.630000", "113218.633000", "113218.635000", "113218.638000", "113218.640000", "113218.643000", "113218.645000", "113218.648000", "113218.650000", "113218.653000", "113218.655000", "113218.658000", "113218.660000", "113218.663000", "113258.581000", "113258.584000", "113258.587000", "113258.589000", "113258.592000", "113258.594000", "113258.597000", "113258.599000", "113258.602000", "113258.604000", "113258.607000", "113258.609000", "113258.612000", "113258.615000", "113258.617000", "113258.620000", "113258.622000", "113258.625000", "113258.627000", "113258.630000", "113258.632000", "113258.635000", "113258.637000", "113258.640000", "113258.642000", "113258.645000", "113258.647000", "113258.650000", "113258.653000", "113258.655000", "113258.658000", "113258.660000", "113258.663000", "113338.582000", "113338.584000", "113338.587000", "113338.589000", "113338.592000", "113338.594000", "113338.597000", "113338.599000", "113338.602000", "113338.605000", "113338.616000", "113338.618000", "113338.621000", "113338.623000", "113338.626000", "113338.628000", "113338.631000", "113338.633000", "113338.636000", "113338.638000", "113338.641000", "113338.643000", "113338.651000", "113338.654000", "113338.656000", "113338.659000", "113338.661000", "113338.664000", "113338.666000", "113338.669000", "113338.671000", "113338.674000", "113338.676000", "113338.679000", "113345.525000", "113345.528000", "113345.531000", "113345.533000", "113345.536000", "113345.539000"],
      "InstanceCreationTime": ["113138.587000", "113138.590000", "113138.593000", "113138.595000", "113138.598000", "113138.600000", "113138.603000", "113138.605000", "113138.608000", "113138.611000", "113138.613000", "113138.616000", "113138.627000", "113138.630000", "113138.632000", "113138.641000", "113138.643000", "113138.646000", "113138.648000", "113218.581000", "113218.584000", "113218.587000", "113218.589000", "113218.592000", "113218.594000", "113218.597000", "113218.599000", "113218.602000", "113218.604000", "113218.607000", "113218.609000", "113218.612000", "113218.615000", "113218.617000", "113218.620000", "113218.622000", "113218.625000", "113218.627000", "113218.630000", "113218.633000", "113218.635000", "113218.638000", "113218.640000", "113218.643000", "113218.645000", "113218.648000", "113218.650000", "113218.653000", "113218.655000", "113218.658000", "113218.660000", "113218.663000", "113258.581000", "113258.584000", "113258.587000", "113258.589000", "113258.592000", "113258.594000", "113258.597000", "113258.599000", "113258.602000", "113258.604000", "113258.607000", "113258.609000", "113258.612000", "113258.615000", "113258.617000", "113258.620000", "113258.622000", "113258.625000", "113258.627000", "113258.630000", "113258.632000", "113258.635000", "113258.637000", "113258.640000", "113258.642000", "113258.645000", "113258.647000", "113258.650000", "113258.653000", "113258.655000", "113258.658000", "113258.660000", "113258.663000", "113338.582000", "113338.584000", "113338.587000", "113338.589000", "113338.592000", "113338.594000", "113338.597000", "113338.599000", "113338.602000", "113338.605000", "113338.616000", "113338.618000", "113338.621000", "113338.623000", "113338.626000", "113338.628000", "113338.631000", "113338.633000", "113338.636000", "113338.638000", "113338.641000", "113338.643000", "113338.651000", "113338.654000", "113338.656000", "113338.659000", "113338.661000", "113338.664000", "113338.666000", "113338.669000", "113338.671000", "113338.674000", "113338.676000", "113338.679000", "113345.525000", "113345.528000", "113345.531000", "113345.533000", "113345.536000", "113345.539000"],
      "InstanceNumber": [1, 2, 3, 4, 5, 6, 7, 8, 9, 10, 11, 12, 13, 14, 15, 16, 17, 18, 19, 20, 21, 22, 23, 24, 25, 26, 27, 28, 29, 30, 31, 32, 33, 34, 35, 36, 37, 38, 39, 40, 41, 42, 43, 44, 45, 46, 47, 48, 49, 50, 51, 52, 53, 54, 55, 56, 57, 58, 59, 60, 61, 62, 63, 64, 65, 66, 67, 68, 69, 70, 71, 72, 73, 74, 75, 76, 77, 78, 79, 80, 81, 82, 83, 84, 85, 86, 87, 88, 89, 90, 91, 92, 93, 94, 95, 96, 97, 98, 99, 100, 101, 102, 103, 104, 105, 106, 107, 108, 109, 110, 111, 112, 113, 114, 115, 116, 117, 118, 119, 120, 121, 122, 123, 124, 125],
      "LargestImagePixelValue": [1758, 1727, 1728, 1715, 1695, 1680, 1667, 1668, 1676, 1677, 1679, 1653, 1664, 1674, 1672, 1679, 1665, 1669, 1690, 1662, 1670, 1670, 1669, 1671, 1665, 1668, 1661, 1683, 1659, 1669, 1670, 1653, 1652, 1674, 1656, 1650, 1664, 1677, 1664, 1661, 1662, 1685, 1672, 1673, 1685, 1672, 1684, 1664, 1673, 1684, 1667, 1668, 1675, 1691, 1657, 1661, 1681, 1686, 1675, 1666, 1682, 1679, 1667, 1676, 1649, 1655, 1672, 1662, 1656, 1664, 1673, 1678, 1668, 1675, 1646, 1684, 1682, 1675, 1666, 1655, 1661, 1657, 1673, 1666, 1671, 1665, 1673, 1660, 1676, 1659, 1656, 1675, 1661, 1678, 1673, 1661, 1696, 1665, 1654, 1674, 1640, 1668, 1649, 1659, 1673, 1656, 1651, 1672, 1668, 1655, 1654, 1659, 1649, 1640, 1649, 1647, 1655, 1653, 1654, 1659, 1644, 1654, 1660, 1669, 1646],
      "WindowCenter": [564.0, 562.0, 561.0, 561.0, 562.0, 561.0, 561.0, 561.0, 561.0, 561.0, 560.0, 559.0, 559.0, 559.0, 559.0, 559.0, 559.0, 560.0, 560.0, 560.0, 560.0, 560.0, 560.0, 560.0, 560.0, 560.0, 560.0, 560.0, 560.0, 560.0, 560.0, 559.0, 559.0, 560.0, 559.0, 559.0, 559.0, 559.0, 559.0, 559.0, 559.0, 560.0, 561.0, 561.0, 561.0, 562.0, 561.0, 560.0, 560.0, 560.0, 560.0, 560.0, 560.0, 560.0, 560.0, 559.0, 559.0, 560.0, 560.0, 561.0, 561.0, 561.0, 560.0, 561.0, 560.0, 560.0, 560.0, 560.0, 559.0, 559.0, 560.0, 560.0, 560.0, 561.0, 560.0, 561.0, 561.0, 561.0, 560.0, 560.0, 561.0, 560.0, 560.0, 560.0, 560.0, 560.0, 560.0, 560.0, 561.0, 561.0, 560.0, 561.0, 560.0, 560.0, 561.0, 561.0, 562.0, 561.0, 562.0, 562.0, 559.0, 559.0, 559.0, 559.0, 561.0, 561.0, 561.0, 562.0, 561.0, 561.0, 561.0, 561.0, 560.0, 559.0, 559.0, 559.0, 559.0, 558.0, 559.0, 559.0, 559.0, 559.0, 560.0, 560.0, 560.0],
      "WindowWidth": [1195.0, 1191.0, 1189.0, 1190.0, 1191.0, 1190.0, 1190.0, 1190.0, 1189.0, 1189.0, 1188.0, 1186.0, 1186.0, 1186.0, 1186.0, 1186.0, 1186.0, 1187.0, 1188.0, 1187.0, 1188.0, 1188.0, 1187.0, 1188.0, 1188.0, 1188.0, 1187.0, 1189.0, 1188.0, 1188.0, 1188.0, 1186.0, 1186.0, 1187.0, 1186.0, 1185.0, 1186.0, 1186.0, 1185.0, 1185.0, 1185.0, 1187.0, 1189.0, 1189.0, 1191.0, 1191.0, 1190.0, 1188.0, 1187.0, 1187.0, 1187.0, 1187.0, 1188.0, 1189.0, 1187.0, 1186.0, 1186.0, 1187.0, 1189.0, 1189.0, 1189.0, 1189.0, 1188.0, 1190.0, 1189.0, 1188.0, 1189.0, 1189.0, 1186.0, 1186.0, 1187.0, 1188.0, 1188.0, 1190.0, 1189.0, 1190.0, 1190.0, 1189.0, 1188.0, 1188.0, 1189.0, 1188.0, 1188.0, 1188.0, 1188.0, 1188.0, 1188.0, 1188.0, 1190.0, 1189.0, 1189.0, 1190.0, 1188.0, 1189.0, 1191.0, 1190.0, 1192.0, 1191.0, 1193.0, 1192.0, 1186.0, 1186.0, 1185.0, 1186.0, 1189.0, 1189.0, 1189.0, 1191.0, 1191.0, 1190.0, 1190.0, 1190.0, 1188.0, 1186.0, 1185.0, 1186.0, 1185.0, 1184.0, 1185.0, 1186.0, 1185.0, 1186.0, 1188.0, 1188.0, 1187.0]
    },
    "slices": {}
  }
}