{
  "AcquisitionMatrixPE": 88,
  "AcquisitionNumber": 1,
  "AcquisitionTime": "12:21:57.810000",
  "BandwidthPerPixelPhaseEncode": 19.592,
  "BaseResolution": 88,
  "BodyPartExamined": "BRAIN",
  "ConsistencyInfo": "N4_VE11C_LATEST_20160120",
  "ConversionSoftware": "dcm2niix",
  "ConversionSoftwareVersion": "v1.0.20190902",
  "DerivedVendorReportedEchoSpacing": 0.000580014,
  "DeviceSerialNumber": "67050",
  "DwellTime": 2.6e-06,
  "EchoTime": 0.033,
  "EchoTrainLength": 88,
  "EffectiveEchoSpacing": 0.000580014,
  "FlipAngle": 62,
  "ImageOrientationPatientDICOM": [0.997163, 0.0300884, 0.0689908, -0.0346474, 0.997227, 0.0658658],
  "ImageType": [
    "ORIGINAL",
    "PRIMARY",
    "M",
    "ND",
    "MOSAIC"
],
  "ImagingFrequency": 123.251,
  "InPlanePhaseEncodingDirectionDICOM": "COL",
  "InstitutionAddress": "Olive_Street_60_Providence_RI_US_02912",
  "InstitutionName": "BROWN_UNIVERSITY_MRF",
  "InstitutionalDepartmentName": "Department",
  "MRAcquisitionType": "2D",
  "MagneticFieldStrength": 3,
  "Manufacturer": "Siemens",
  "ManufacturersModelName": "Prisma_fit",
  "Modality": "MR",
  "MultibandAccelerationFactor": 4,
  "PartialFourier": 1,
  "PatientPosition": "HFS",
  "PercentPhaseFOV": 100,
  "PhaseEncodingDirection": "j-",
  "PhaseEncodingSteps": 88,
  "PhaseResolution": 1,
  "PixelBandwidth": 2185,
  "ProcedureStepDescription": "ASHENHAV_1222",
  "ProtocolName": "func-bold_task-RDMcolor_run-06",
  "PulseSequenceDetails": "%SiemensSeq%_ep2d_bold",
  "ReceiveCoilActiveElements": "HC1-7",
  "ReceiveCoilName": "HeadNeck_64",
  "ReconMatrixPE": 88,
  "RefLinesPE": 8,
  "RepetitionTime": 1.2,
  "SAR": 0.0545482,
  "ScanOptions": "FS",
  "ScanningSequence": "EP",
  "SequenceName": "_epfid2d1_88",
  "SequenceVariant": "SK",
  "SeriesDescription": "func-bold_task-RDMcolor_run-06",
  "SeriesNumber": 18,
  "ShimSetting": [1755, -9106, 4368, 521, -129, -289, -13, -24],
  "SliceThickness": 2.4,
  "SliceTiming": [0.55, 0, 0.6275, 0.0775, 0.7075, 0.1575, 0.785, 0.235, 0.865, 0.315, 0.9425, 0.3925, 1.0225, 0.4725, 1.1, 0.55, 0, 0.6275, 0.0775, 0.7075, 0.1575, 0.785, 0.235, 0.865, 0.315, 0.9425, 0.3925, 1.0225, 0.4725, 1.1, 0.55, 0, 0.6275, 0.0775, 0.7075, 0.1575, 0.785, 0.235, 0.865, 0.315, 0.9425, 0.3925, 1.0225, 0.4725, 1.1, 0.55, 0, 0.6275, 0.0775, 0.7075, 0.1575, 0.785, 0.235, 0.865, 0.315, 0.9425, 0.3925, 1.0225, 0.4725, 1.1],
  "SoftwareVersions": "syngo_MR_E11",
  "SpacingBetweenSlices": 2.4,
  "StationName": "AWP67050",
  "TaskName": "RDMcolor",
  "TotalReadoutTime": 0.0504612,
  "TxRefAmp": 233.939,
  "dcmmeta_affine": [
    [-2.390925884246826, -0.08307506144046783, 0.1603623926639557, 106.84453582763672],
    [-0.07214389741420746, 2.391077756881714, 0.16336631774902344, -98.88887786865234],
    [0.16542109847068787, -0.15792818367481232, 2.3890573978424072, -66.8197250366211],
    [0.0, 0.0, 0.0, 1.0]
],
  "dcmmeta_reorient_transform": [
    [0.0, -1.0, 0.0, 87.0],
    [1.0, 0.0, 0.0, 0.0],
    [0.0, 0.0, 1.0, 0.0],
    [0.0, 0.0, 0.0, 1.0]
],
  "dcmmeta_shape": [88, 88, 60, 392],
  "dcmmeta_slice_dim": 2,
  "dcmmeta_version": 0.6,
  "global": {
    "const": {
      "AcquisitionMatrix": [88, 0, 0, 88],
      "AngioFlag": "N",
      "BitsAllocated": 16,
      "BitsStored": 12,
      "BodyPartExamined": "BRAIN",
      "Columns": 704,
      "DeidentificationMethodCodeSequence": [
        {
          "CodeMeaning": "XNAT DicomEdit 6 Script",
          "CodeValue": "3",
          "CodingSchemeDesignator": "XNAT",
          "CodingSchemeVersion": "1.0"}
],
      "EchoNumbers": 1,
      "EchoTime": 33.0,
      "EchoTrainLength": 88,
      "FlipAngle": 62.0,
      "HighBit": 11,
      "ImageOrientationPatient": [0.99716345496954, 0.03008844891914, 0.06899079152214, -0.0346474184873, 0.99722678221535, 0.06586578189461],
      "ImagePositionPatient": [-810.43509057221, -867.80718548387, -180.15105447881],
      "ImageType": [
        "ORIGINAL",
        "PRIMARY",
        "M",
        "ND",
        "MOSAIC"
],
      "ImagedNucleus": "1H",
      "ImagingFrequency": 123.250732,
      "InPlanePhaseEncodingDirection": "COL",
      "MRAcquisitionType": "2D",
      "MagneticFieldStrength": 3.0,
      "Manufacturer": "SIEMENS",
      "ManufacturerModelName": "Prisma_fit",
      "Modality": "MR",
      "NumberOfAverages": 1.0,
      "NumberOfPhaseEncodingSteps": 88,
      "PercentPhaseFieldOfView": 100.0,
      "PercentSampling": 100.0,
      "PerformedProcedureStepStartTime": "110400.035000",
      "PhotometricInterpretation": "MONOCHROME2",
      "PixelBandwidth": 2185.0,
      "PixelRepresentation": 0,
      "PixelSpacing": [2.3977272510529, 2.3977272510529],
      "ProtocolName": "func-bold_task-RDMcolor_run-06",
      "RepetitionTime": 1200.0,
      "Rows": 704,
      "SAR": 0.05454820666579,
      "SamplesPerPixel": 1,
      "ScanOptions": "FS",
      "ScanningSequence": "EP",
      "SequenceName": "*epfid2d1_88",
      "SequenceVariant": "SK",
      "SeriesDescription": "func-bold_task-RDMcolor_run-06",
      "SeriesNumber": 18,
      "SeriesTime": "122218.582000",
      "SliceLocation": -66.107260365833,
      "SliceThickness": 2.4000000953674,
      "SmallestImagePixelValue": 0,
      "SoftwareVersions": "syngo MR E11",
      "SpacingBetweenSlices": 2.3999999364574,
      "SpecificCharacterSet": "ISO_IR 100",
      "StudyID": "1",
      "StudyTime": "110359.954000",
      "TransmitCoilName": "Body",
      "VariableFlipAngleFlag": "N",
      "WindowCenterWidthExplanation": "Algo1",
      "dBdt": 0.0},
    "slices": {}
  },
  "time": {
    "samples": {
      "AcquisitionNumber": [1, 2, 3, 4, 5, 6, 7, 8, 9, 10, 11, 12, 13, 14, 15, 16, 17, 18, 19, 20, 21, 22, 23, 24, 25, 26, 27, 28, 29, 30, 31, 32, 33, 34, 35, 36, 37, 38, 39, 40, 41, 42, 43, 44, 45, 46, 47, 48, 49, 50, 51, 52, 53, 54, 55, 56, 57, 58, 59, 60, 61, 62, 63, 64, 65, 66, 67, 68, 69, 70, 71, 72, 73, 74, 75, 76, 77, 78, 79, 80, 81, 82, 83, 84, 85, 86, 87, 88, 89, 90, 91, 92, 93, 94, 95, 96, 97, 98, 99, 100, 101, 102, 103, 104, 105, 106, 107, 108, 109, 110, 111, 112, 113, 114, 115, 116, 117, 118, 119, 120, 121, 122, 123, 124, 125, 126, 127, 128, 129, 130, 131, 132, 133, 134, 135, 136, 137, 138, 139, 140, 141, 142, 143, 144, 145, 146, 147, 148, 149, 150, 151, 152, 153, 154, 155, 156, 157, 158, 159, 160, 161, 162, 163, 164, 165, 166, 167, 168, 169, 170, 171, 172, 173, 174, 175, 176, 177, 178, 179, 180, 181, 182, 183, 184, 185, 186, 187, 188, 189, 190, 191, 192, 193, 194, 195, 196, 197, 198, 199, 200, 201, 202, 203, 204, 205, 206, 207, 208, 209, 210, 211, 212, 213, 214, 215, 216, 217, 218, 219, 220, 221, 222, 223, 224, 225, 226, 227, 228, 229, 230, 231, 232, 233, 234, 235, 236, 237, 238, 239, 240, 241, 242, 243, 244, 245, 246, 247, 248, 249, 250, 251, 252, 253, 254, 255, 256, 257, 258, 259, 260, 261, 262, 263, 264, 265, 266, 267, 268, 269, 270, 271, 272, 273, 274, 275, 276, 277, 278, 279, 280, 281, 282, 283, 284, 285, 286, 287, 288, 289, 290, 291, 292, 293, 294, 295, 296, 297, 298, 299, 300, 301, 302, 303, 304, 305, 306, 307, 308, 309, 310, 311, 312, 313, 314, 315, 316, 317, 318, 319, 320, 321, 322, 323, 324, 325, 326, 327, 328, 329, 330, 331, 332, 333, 334, 335, 336, 337, 338, 339, 340, 341, 342, 343, 344, 345, 346, 347, 348, 349, 350, 351, 352, 353, 354, 355, 356, 357, 358, 359, 360, 361, 362, 363, 364, 365, 366, 367, 368, 369, 370, 371, 372, 373, 374, 375, 376, 377, 378, 379, 380, 381, 382, 383, 384, 385, 386, 387, 388, 389, 390, 391, 392],
      "AcquisitionTime": ["122157.810000", "122159.010000", "122200.210000", "122201.410000", "122202.610000", "122203.810000", "122205.010000", "122206.210000", "122207.410000", "122208.610000", "122209.810000", "122211.010000", "122212.210000", "122213.410000", "122214.610000", "122215.810000", "122217.010000", "122218.210000", "122219.410000", "122220.610000", "122221.810000", "122223.010000", "122224.210000", "122225.410000", "122226.610000", "122227.810000", "122229.010000", "122230.210000", "122231.410000", "122232.610000", "122233.810000", "122235.010000", "122236.210000", "122237.410000", "122238.610000", "122239.810000", "122241.010000", "122242.210000", "122243.410000", "122244.610000", "122245.810000", "122247.010000", "122248.210000", "122249.410000", "122250.610000", "122251.810000", "122253.010000", "122254.210000", "122255.410000", "122256.610000", "122257.810000", "122259.010000", "122300.210000", "122301.410000", "122302.610000", "122303.810000", "122305.010000", "122306.210000", "122307.410000", "122308.610000", "122309.810000", "122311.010000", "122312.210000", "122313.410000", "122314.610000", "122315.810000", "122317.010000", "122318.210000", "122319.410000", "122320.610000", "122321.810000", "122323.010000", "122324.210000", "122325.410000", "122326.610000", "122327.810000", "122329.010000", "122330.210000", "122331.410000", "122332.610000", "122333.810000", "122335.010000", "122336.210000", "122337.410000", "122338.610000", "122339.810000", "122341.010000", "122342.210000", "122343.410000", "122344.610000", "122345.810000", "122347.010000", "122348.210000", "122349.410000", "122350.610000", "122351.810000", "122353.010000", "122354.210000", "122355.410000", "122356.610000", "122357.810000", "122359.010000", "122400.210000", "122401.410000", "122402.610000", "122403.810000", "122405.010000", "122406.210000", "122407.410000", "122408.610000", "122409.810000", "122411.010000", "122412.210000", "122413.410000", "122414.610000", "122415.810000", "122417.010000", "122418.210000", "122419.410000", "122420.610000", "122421.810000", "122423.010000", "122424.210000", "122425.410000", "122426.610000", "122427.810000", "122429.010000", "122430.210000", "122431.410000", "122432.610000", "122433.810000", "122435.010000", "122436.210000", "122437.410000", "122438.610000", "122439.810000", "122441.010000", "122442.210000", "122443.410000", "122444.610000", "122445.810000", "122447.010000", "122448.210000", "122449.410000", "122450.610000", "122451.810000", "122453.010000", "122454.210000", "122455.410000", "122456.610000", "122457.810000", "122459.010000", "122500.210000", "122501.410000", "122502.610000", "122503.810000", "122505.010000", "122506.210000", "122507.410000", "122508.610000", "122509.810000", "122511.010000", "122512.210000", "122513.410000", "122514.610000", "122515.810000", "122517.010000", "122518.210000", "122519.410000", "122520.610000", "122521.810000", "122523.010000", "122524.210000", "122525.410000", "122526.610000", "122527.810000", "122529.010000", "122530.210000", "122531.410000", "122532.610000", "122533.810000", "122535.010000", "122536.210000", "122537.410000", "122538.610000", "122539.810000", "122541.010000", "122542.210000", "122543.410000", "122544.610000", "122545.810000", "122547.010000", "122548.210000", "122549.410000", "122550.610000", "122551.810000", "122553.010000", "122554.210000", "122555.410000", "122556.610000", "122557.810000", "122559.010000", "122600.210000", "122601.410000", "122602.610000", "122603.810000", "122605.010000", "122606.210000", "122607.410000", "122608.610000", "122609.810000", "122611.010000", "122612.210000", "122613.410000", "122614.610000", "122615.810000", "122617.010000", "122618.210000", "122619.410000", "122620.610000", "122621.810000", "122623.010000", "122624.210000", "122625.410000", "122626.610000", "122627.810000", "122629.010000", "122630.210000", "122631.410000", "122632.610000", "122633.810000", "122635.010000", "122636.210000", "122637.410000", "122638.610000", "122639.810000", "122641.010000", "122642.210000", "122643.410000", "122644.610000", "122645.810000", "122647.010000", "122648.210000", "122649.410000", "122650.610000", "122651.810000", "122653.010000", "122654.210000", "122655.410000", "122656.610000", "122657.810000", "122659.010000", "122700.210000", "122701.410000", "122702.610000", "122703.810000", "122705.010000", "122706.210000", "122707.410000", "122708.610000", "122709.810000", "122711.010000", "122712.210000", "122713.410000", "122714.610000", "122715.810000", "122717.010000", "122718.210000", "122719.410000", "122720.610000", "122721.810000", "122723.010000", "122724.210000", "122725.410000", "122726.610000", "122727.810000", "122729.010000", "122730.210000", "122731.410000", "122732.610000", "122733.810000", "122735.010000", "122736.210000", "122737.410000", "122738.610000", "122739.810000", "122741.010000", "122742.210000", "122743.410000", "122744.610000", "122745.810000", "122747.010000", "122748.210000", "122749.410000", "122750.610000", "122751.810000", "122753.010000", "122754.210000", "122755.410000", "122756.610000", "122757.810000", "122759.010000", "122800.210000", "122801.410000", "122802.610000", "122803.810000", "122805.010000", "122806.210000", "122807.410000", "122808.610000", "122809.810000", "122811.010000", "122812.210000", "122813.410000", "122814.610000", "122815.810000", "122817.010000", "122818.210000", "122819.410000", "122820.610000", "122821.810000", "122823.010000", "122824.210000", "122825.410000", "122826.610000", "122827.810000", "122829.010000", "122830.210000", "122831.410000", "122832.610000", "122833.810000", "122835.010000", "122836.210000", "122837.410000", "122838.610000", "122839.810000", "122841.010000", "122842.210000", "122843.410000", "122844.610000", "122845.810000", "122847.010000", "122848.210000", "122849.410000", "122850.610000", "122851.810000", "122853.010000", "122854.210000", "122855.410000", "122856.610000", "122857.810000", "122859.010000", "122900.210000", "122901.410000", "122902.610000", "122903.810000", "122905.010000", "122906.210000", "122907.410000", "122908.610000", "122909.810000", "122911.010000", "122912.210000", "122913.410000", "122914.610000", "122915.810000", "122917.010000", "122918.210000", "122919.410000", "122920.610000", "122921.810000", "122923.010000", "122924.210000", "122925.410000", "122926.610000", "122927.810000", "122929.010000", "122930.210000", "122931.410000", "122932.610000", "122933.810000", "122935.010000", "122936.210000", "122937.410000", "122938.610000", "122939.810000", "122941.010000", "122942.210000", "122943.410000", "122944.610000", "122945.810000", "122947.010000"],
      "ContentTime": ["122218.586000", "122218.589000", "122218.592000", "122218.594000", "122218.597000", "122218.599000", "122218.602000", "122218.608000", "122218.611000", "122218.613000", "122218.616000", "122218.618000", "122218.621000", "122218.624000", "122218.626000", "122218.629000", "122218.631000", "122258.581000", "122258.584000", "122258.587000", "122258.589000", "122258.592000", "122258.595000", "122258.597000", "122258.600000", "122258.602000", "122258.605000", "122258.607000", "122258.610000", "122258.612000", "122258.615000", "122258.618000", "122258.620000", "122258.623000", "122258.625000", "122258.628000", "122258.630000", "122258.633000", "122258.635000", "122258.638000", "122258.641000", "122258.643000", "122258.646000", "122258.648000", "122258.651000", "122258.653000", "122258.656000", "122258.658000", "122258.661000", "122258.663000", "122338.581000", "122338.584000", "122338.587000", "122338.589000", "122338.592000", "122338.594000", "122338.597000", "122338.600000", "122338.602000", "122338.605000", "122338.607000", "122338.610000", "122338.613000", "122338.615000", "122338.618000", "122338.621000", "122338.623000", "122338.626000", "122338.628000", "122338.631000", "122338.634000", "122338.636000", "122338.639000", "122338.641000", "122338.644000", "122338.646000", "122338.649000", "122338.652000", "122338.655000", "122338.657000", "122338.660000", "122338.662000", "122338.665000", "122418.582000", "122418.584000", "122418.587000", "122418.590000", "122418.593000", "122418.595000", "122418.598000", "122418.600000", "122418.603000", "122418.606000", "122418.609000", "122418.611000", "122418.614000", "122418.617000", "122418.619000", "122418.622000", "122418.624000", "122418.627000", "122418.630000", "122418.633000", "122418.635000", "122418.638000", "122418.641000", "122418.643000", "122418.646000", "122418.648000", "122418.651000", "122418.654000", "122418.656000", "122418.659000", "122418.662000", "122418.664000", "122418.667000", "122458.582000", "122458.585000", "122458.588000", "122458.590000", "122458.593000", "122458.596000", "122458.598000", "122458.601000", "122458.603000", "122458.606000", "122458.608000", "122458.611000", "122458.613000", "122458.616000", "122458.619000", "122458.621000", "122458.624000", "122458.626000", "122458.629000", "122458.631000", "122458.634000", "122458.637000", "122458.639000", "122458.642000", "122458.644000", "122458.647000", "122458.649000", "122458.652000", "122458.655000", "122458.657000", "122458.660000", "122458.662000", "122458.665000", "122458.667000", "122538.582000", "122538.584000", "122538.587000", "122538.590000", "122538.592000", "122538.595000", "122538.598000", "122538.601000", "122538.603000", "122538.606000", "122538.608000", "122538.611000", "122538.614000", "122538.616000", "122538.619000", "122538.621000", "122538.624000", "122538.627000", "122538.629000", "122538.632000", "122538.635000", "122538.637000", "122538.640000", "122538.642000", "122538.645000", "122538.648000", "122538.650000", "122538.653000", "122538.655000", "122538.658000", "122538.660000", "122538.663000", "122538.666000", "122618.582000", "122618.584000", "122618.587000", "122618.590000", "122618.592000", "122618.595000", "122618.597000", "122618.600000", "122618.603000", "122618.605000", "122618.608000", "122618.610000", "122618.613000", "122618.616000", "122618.618000", "122618.621000", "122618.623000", "122618.626000", "122618.629000", "122618.631000", "122618.634000", "122618.636000", "122618.639000", "122618.641000", "122618.644000", "122618.646000", "122618.649000", "122618.652000", "122618.654000", "122618.657000", "122618.659000", "122618.662000", "122618.665000", "122618.667000", "122658.582000", "122658.584000", "122658.587000", "122658.590000", "122658.592000", "122658.595000", "122658.597000", "122658.600000", "122658.602000", "122658.605000", "122658.608000", "122658.610000", "122658.613000", "122658.615000", "122658.618000", "122658.620000", "122658.623000", "122658.626000", "122658.628000", "122658.631000", "122658.633000", "122658.636000", "122658.639000", "122658.641000", "122658.644000", "122658.646000", "122658.649000", "122658.652000", "122658.654000", "122658.657000", "122658.659000", "122658.662000", "122658.664000", "122738.582000", "122738.584000", "122738.587000", "122738.590000", "122738.592000", "122738.595000", "122738.598000", "122738.600000", "122738.603000", "122738.605000", "122738.608000", "122738.610000", "122738.613000", "122738.616000", "122738.619000", "122738.621000", "122738.624000", "122738.626000", "122738.629000", "122738.632000", "122738.634000", "122738.637000", "122738.640000", "122738.642000", "122738.645000", "122738.647000", "122738.650000", "122738.653000", "122738.655000", "122738.658000", "122738.660000", "122738.663000", "122738.666000", "122818.582000", "122818.587000", "122818.589000", "122818.592000", "122818.595000", "122818.597000", "122818.600000", "122818.602000", "122818.605000", "122818.608000", "122818.610000", "122818.613000", "122818.616000", "122818.618000", "122818.621000", "122818.624000", "122818.626000", "122818.629000", "122818.643000", "122818.646000", "122818.648000", "122818.651000", "122818.653000", "122818.656000", "122818.659000", "122818.661000", "122818.664000", "122818.666000", "122818.669000", "122818.672000", "122818.674000", "122818.677000", "122818.679000", "122818.682000", "122858.581000", "122858.584000", "122858.587000", "122858.589000", "122858.592000", "122858.595000", "122858.597000", "122858.600000", "122858.602000", "122858.605000", "122858.608000", "122858.610000", "122858.613000", "122858.615000", "122858.618000", "122858.621000", "122858.623000", "122858.626000", "122858.628000", "122858.631000", "122858.633000", "122858.636000", "122858.639000", "122858.641000", "122858.644000", "122858.647000", "122858.649000", "122858.652000", "122858.654000", "122858.657000", "122858.660000", "122858.662000", "122858.665000", "122938.583000", "122938.585000", "122938.588000", "122938.591000", "122938.593000", "122938.596000", "122938.599000", "122938.601000", "122938.604000", "122938.607000", "122938.609000", "122938.612000", "122938.614000", "122938.617000", "122938.620000", "122938.622000", "122938.625000", "122938.628000", "122938.630000", "122938.633000", "122938.635000", "122938.638000", "122938.641000", "122938.643000", "122938.646000", "122938.648000", "122938.651000", "122938.654000", "122938.656000", "122938.659000", "122938.662000", "122938.664000", "122938.667000", "122948.601000", "122948.604000", "122948.607000", "122948.610000", "122948.612000", "122948.615000", "122948.618000", "122948.620000", "122948.623000"],
      "InstanceCreationTime": ["122218.586000", "122218.589000", "122218.592000", "122218.594000", "122218.597000", "122218.599000", "122218.602000", "122218.608000", "122218.611000", "122218.613000", "122218.616000", "122218.618000", "122218.621000", "122218.624000", "122218.626000", "122218.629000", "122218.631000", "122258.581000", "122258.584000", "122258.587000", "122258.589000", "122258.592000", "122258.595000", "122258.597000", "122258.600000", "122258.602000", "122258.605000", "122258.607000", "122258.610000", "122258.612000", "122258.615000", "122258.618000", "122258.620000", "122258.623000", "122258.625000", "122258.628000", "122258.630000", "122258.633000", "122258.635000", "122258.638000", "122258.641000", "122258.643000", "122258.646000", "122258.648000", "122258.651000", "122258.653000", "122258.656000", "122258.658000", "122258.661000", "122258.663000", "122338.581000", "122338.584000", "122338.587000", "122338.589000", "122338.592000", "122338.594000", "122338.597000", "122338.600000", "122338.602000", "122338.605000", "122338.607000", "122338.610000", "122338.613000", "122338.615000", "122338.618000", "122338.621000", "122338.623000", "122338.626000", "122338.628000", "122338.631000", "122338.634000", "122338.636000", "122338.639000", "122338.641000", "122338.644000", "122338.646000", "122338.649000", "122338.652000", "122338.655000", "122338.657000", "122338.660000", "122338.662000", "122338.665000", "122418.582000", "122418.584000", "122418.587000", "122418.590000", "122418.593000", "122418.595000", "122418.598000", "122418.600000", "122418.603000", "122418.606000", "122418.609000", "122418.611000", "122418.614000", "122418.617000", "122418.619000", "122418.622000", "122418.624000", "122418.627000", "122418.630000", "122418.633000", "122418.635000", "122418.638000", "122418.641000", "122418.643000", "122418.646000", "122418.648000", "122418.651000", "122418.654000", "122418.656000", "122418.659000", "122418.662000", "122418.664000", "122418.667000", "122458.582000", "122458.585000", "122458.588000", "122458.590000", "122458.593000", "122458.596000", "122458.598000", "122458.601000", "122458.603000", "122458.606000", "122458.608000", "122458.611000", "122458.613000", "122458.616000", "122458.619000", "122458.621000", "122458.624000", "122458.626000", "122458.629000", "122458.631000", "122458.634000", "122458.637000", "122458.639000", "122458.642000", "122458.644000", "122458.647000", "122458.649000", "122458.652000", "122458.655000", "122458.657000", "122458.660000", "122458.662000", "122458.665000", "122458.667000", "122538.582000", "122538.584000", "122538.587000", "122538.590000", "122538.592000", "122538.595000", "122538.598000", "122538.601000", "122538.603000", "122538.606000", "122538.608000", "122538.611000", "122538.614000", "122538.616000", "122538.619000", "122538.621000", "122538.624000", "122538.627000", "122538.629000", "122538.632000", "122538.635000", "122538.637000", "122538.640000", "122538.642000", "122538.645000", "122538.648000", "122538.650000", "122538.653000", "122538.655000", "122538.658000", "122538.660000", "122538.663000", "122538.666000", "122618.582000", "122618.584000", "122618.587000", "122618.590000", "122618.592000", "122618.595000", "122618.597000", "122618.600000", "122618.603000", "122618.605000", "122618.608000", "122618.610000", "122618.613000", "122618.616000", "122618.618000", "122618.621000", "122618.623000", "122618.626000", "122618.629000", "122618.631000", "122618.634000", "122618.636000", "122618.639000", "122618.641000", "122618.644000", "122618.646000", "122618.649000", "122618.652000", "122618.654000", "122618.657000", "122618.659000", "122618.662000", "122618.665000", "122618.667000", "122658.582000", "122658.584000", "122658.587000", "122658.590000", "122658.592000", "122658.595000", "122658.597000", "122658.600000", "122658.602000", "122658.605000", "122658.608000", "122658.610000", "122658.613000", "122658.615000", "122658.618000", "122658.620000", "122658.623000", "122658.626000", "122658.628000", "122658.631000", "122658.633000", "122658.636000", "122658.639000", "122658.641000", "122658.644000", "122658.646000", "122658.649000", "122658.652000", "122658.654000", "122658.657000", "122658.659000", "122658.662000", "122658.664000", "122738.582000", "122738.584000", "122738.587000", "122738.590000", "122738.592000", "122738.595000", "122738.598000", "122738.600000", "122738.603000", "122738.605000", "122738.608000", "122738.610000", "122738.613000", "122738.616000", "122738.619000", "122738.621000", "122738.624000", "122738.626000", "122738.629000", "122738.632000", "122738.634000", "122738.637000", "122738.640000", "122738.642000", "122738.645000", "122738.647000", "122738.650000", "122738.653000", "122738.655000", "122738.658000", "122738.660000", "122738.663000", "122738.666000", "122818.582000", "122818.587000", "122818.589000", "122818.592000", "122818.595000", "122818.597000", "122818.600000", "122818.602000", "122818.605000", "122818.608000", "122818.610000", "122818.613000", "122818.616000", "122818.618000", "122818.621000", "122818.624000", "122818.626000", "122818.629000", "122818.643000", "122818.646000", "122818.648000", "122818.651000", "122818.653000", "122818.656000", "122818.659000", "122818.661000", "122818.664000", "122818.666000", "122818.669000", "122818.672000", "122818.674000", "122818.677000", "122818.679000", "122818.682000", "122858.581000", "122858.584000", "122858.587000", "122858.589000", "122858.592000", "122858.595000", "122858.597000", "122858.600000", "122858.602000", "122858.605000", "122858.608000", "122858.610000", "122858.613000", "122858.615000", "122858.618000", "122858.621000", "122858.623000", "122858.626000", "122858.628000", "122858.631000", "122858.633000", "122858.636000", "122858.639000", "122858.641000", "122858.644000", "122858.647000", "122858.649000", "122858.652000", "122858.654000", "122858.657000", "122858.660000", "122858.662000", "122858.665000", "122938.583000", "122938.585000", "122938.588000", "122938.591000", "122938.593000", "122938.596000", "122938.599000", "122938.601000", "122938.604000", "122938.607000", "122938.609000", "122938.612000", "122938.614000", "122938.617000", "122938.620000", "122938.622000", "122938.625000", "122938.628000", "122938.630000", "122938.633000", "122938.635000", "122938.638000", "122938.641000", "122938.643000", "122938.646000", "122938.648000", "122938.651000", "122938.654000", "122938.656000", "122938.659000", "122938.662000", "122938.664000", "122938.667000", "122948.601000", "122948.604000", "122948.607000", "122948.610000", "122948.612000", "122948.615000", "122948.618000", "122948.620000", "122948.623000"],
      "InstanceNumber": [1, 2, 3, 4, 5, 6, 7, 8, 9, 10, 11, 12, 13, 14, 15, 16, 17, 18, 19, 20, 21, 22, 23, 24, 25, 26, 27, 28, 29, 30, 31, 32, 33, 34, 35, 36, 37, 38, 39, 40, 41, 42, 43, 44, 45, 46, 47, 48, 49, 50, 51, 52, 53, 54, 55, 56, 57, 58, 59, 60, 61, 62, 63, 64, 65, 66, 67, 68, 69, 70, 71, 72, 73, 74, 75, 76, 77, 78, 79, 80, 81, 82, 83, 84, 85, 86, 87, 88, 89, 90, 91, 92, 93, 94, 95, 96, 97, 98, 99, 100, 101, 102, 103, 104, 105, 106, 107, 108, 109, 110, 111, 112, 113, 114, 115, 116, 117, 118, 119, 120, 121, 122, 123, 124, 125, 126, 127, 128, 129, 130, 131, 132, 133, 134, 135, 136, 137, 138, 139, 140, 141, 142, 143, 144, 145, 146, 147, 148, 149, 150, 151, 152, 153, 154, 155, 156, 157, 158, 159, 160, 161, 162, 163, 164, 165, 166, 167, 168, 169, 170, 171, 172, 173, 174, 175, 176, 177, 178, 179, 180, 181, 182, 183, 184, 185, 186, 187, 188, 189, 190, 191, 192, 193, 194, 195, 196, 197, 198, 199, 200, 201, 202, 203, 204, 205, 206, 207, 208, 209, 210, 211, 212, 213, 214, 215, 216, 217, 218, 219, 220, 221, 222, 223, 224, 225, 226, 227, 228, 229, 230, 231, 232, 233, 234, 235, 236, 237, 238, 239, 240, 241, 242, 243, 244, 245, 246, 247, 248, 249, 250, 251, 252, 253, 254, 255, 256, 257, 258, 259, 260, 261, 262, 263, 264, 265, 266, 267, 268, 269, 270, 271, 272, 273, 274, 275, 276, 277, 278, 279, 280, 281, 282, 283, 284, 285, 286, 287, 288, 289, 290, 291, 292, 293, 294, 295, 296, 297, 298, 299, 300, 301, 302, 303, 304, 305, 306, 307, 308, 309, 310, 311, 312, 313, 314, 315, 316, 317, 318, 319, 320, 321, 322, 323, 324, 325, 326, 327, 328, 329, 330, 331, 332, 333, 334, 335, 336, 337, 338, 339, 340, 341, 342, 343, 344, 345, 346, 347, 348, 349, 350, 351, 352, 353, 354, 355, 356, 357, 358, 359, 360, 361, 362, 363, 364, 365, 366, 367, 368, 369, 370, 371, 372, 373, 374, 375, 376, 377, 378, 379, 380, 381, 382, 383, 384, 385, 386, 387, 388, 389, 390, 391, 392],
