{
  "AcquisitionMatrixPE": 88,
  "AcquisitionNumber": 1,
  "AcquisitionTime": "12:18:38.590000",
  "BandwidthPerPixelPhaseEncode": 19.592,
  "BaseResolution": 88,
  "BodyPartExamined": "BRAIN",
  "ConsistencyInfo": "N4_VE11C_LATEST_20160120",
  "ConversionSoftware": "dcm2niix",
  "ConversionSoftwareVersion": "v1.0.20190902",
  "DerivedVendorReportedEchoSpacing": 0.000580014,
  "DeviceSerialNumber": "67050",
  "DwellTime": 2.6e-06,
  "EchoTime": 0.033,
  "EchoTrainLength": 88,
  "EffectiveEchoSpacing": 0.000580014,
  "FlipAngle": 62,
  "ImageOrientationPatientDICOM": [0.997163, 0.0300884, 0.0689908, -0.0346474, 0.997227, 0.0658658],
  "ImageType": [
    "ORIGINAL",
    "PRIMARY",
    "M",
    "ND",
    "MOSAIC"
],
  "ImagingFrequency": 123.251,
  "InPlanePhaseEncodingDirectionDICOM": "COL",
  "InstitutionAddress": "Olive_Street_60_Providence_RI_US_02912",
  "InstitutionName": "BROWN_UNIVERSITY_MRF",
  "InstitutionalDepartmentName": "Department",
  "MRAcquisitionType": "2D",
  "MagneticFieldStrength": 3,
  "Manufacturer": "Siemens",
  "ManufacturersModelName": "Prisma_fit",
  "Modality": "MR",
  "MultibandAccelerationFactor": 4,
  "PartialFourier": 1,
  "PatientPosition": "HFS",
  "PercentPhaseFOV": 100,
  "PhaseEncodingDirection": "j-",
  "PhaseEncodingSteps": 88,
  "PhaseResolution": 1,
  "PixelBandwidth": 2185,
  "ProcedureStepDescription": "ASHENHAV_1222",
  "ProtocolName": "func-bold_task-RDMmotion_run-06",
  "PulseSequenceDetails": "%SiemensSeq%_ep2d_bold",
  "ReceiveCoilActiveElements": "HC1-7",
  "ReceiveCoilName": "HeadNeck_64",
  "ReconMatrixPE": 88,
  "RefLinesPE": 8,
  "RepetitionTime": 1.2,
  "SAR": 0.0539945,
  "ScanOptions": "FS",
  "ScanningSequence": "EP",
  "SequenceName": "_epfid2d1_88",
  "SequenceVariant": "SK",
  "SeriesDescription": "func-bold_task-RDMmotion_run-06",
  "SeriesNumber": 17,
  "ShimSetting": [1755, -9106, 4368, 521, -129, -289, -13, -24],
  "SliceThickness": 2.4,
  "SliceTiming": [0.5525, 0, 0.63, 0.08, 0.71, 0.1575, 0.7875, 0.2375, 0.8675, 0.315, 0.945, 0.395, 1.0225, 0.4725, 1.1025, 0.5525, 0, 0.63, 0.08, 0.71, 0.1575, 0.7875, 0.2375, 0.8675, 0.315, 0.945, 0.395, 1.0225, 0.4725, 1.1025, 0.5525, 0, 0.63, 0.08, 0.71, 0.1575, 0.7875, 0.2375, 0.8675, 0.315, 0.945, 0.395, 1.0225, 0.4725, 1.1025, 0.5525, 0, 0.63, 0.08, 0.71, 0.1575, 0.7875, 0.2375, 0.8675, 0.315, 0.945, 0.395, 1.0225, 0.4725, 1.1025],
  "SoftwareVersions": "syngo_MR_E11",
  "SpacingBetweenSlices": 2.4,
  "StationName": "AWP67050",
  "TaskName": "RDMmotion",
  "TotalReadoutTime": 0.0504612,
  "TxRefAmp": 233.939,
  "dcmmeta_affine": [
    [-2.390925884246826, -0.08307506144046783, 0.1603623926639557, 106.84453582763672],
    [-0.07214389741420746, 2.391077756881714, 0.16336631774902344, -98.88887786865234],
    [0.16542109847068787, -0.15792818367481232, 2.3890573978424072, -66.8197250366211],
    [0.0, 0.0, 0.0, 1.0]
],
  "dcmmeta_reorient_transform": [
    [0.0, -1.0, 0.0, 87.0],
    [1.0, 0.0, 0.0, 0.0],
    [0.0, 0.0, 1.0, 0.0],
    [0.0, 0.0, 0.0, 1.0]
],
  "dcmmeta_shape": [88, 88, 60, 125],
  "dcmmeta_slice_dim": 2,
  "dcmmeta_version": 0.6,
  "global": {
    "const": {
      "AcquisitionMatrix": [88, 0, 0, 88],
      "AngioFlag": "N",
      "BitsAllocated": 16,
      "BitsStored": 12,
      "BodyPartExamined": "BRAIN",
      "Columns": 704,
      "DeidentificationMethodCodeSequence": [
        {
          "CodeMeaning": "XNAT DicomEdit 6 Script",
          "CodeValue": "3",
          "CodingSchemeDesignator": "XNAT",
          "CodingSchemeVersion": "1.0"}
],
      "EchoNumbers": 1,
      "EchoTime": 33.0,
      "EchoTrainLength": 88,
      "FlipAngle": 62.0,
      "HighBit": 11,
      "ImageOrientationPatient": [0.99716345496954, 0.03008844891914, 0.06899079152214, -0.0346474184873, 0.99722678221535, 0.06586578189461],
      "ImagePositionPatient": [-810.43509057221, -867.80718548387, -180.15105447881],
      "ImageType": [
        "ORIGINAL",
        "PRIMARY",
        "M",
        "ND",
        "MOSAIC"
],
      "ImagedNucleus": "1H",
      "ImagingFrequency": 123.250732,
      "InPlanePhaseEncodingDirection": "COL",
      "MRAcquisitionType": "2D",
      "MagneticFieldStrength": 3.0,
      "Manufacturer": "SIEMENS",
      "ManufacturerModelName": "Prisma_fit",
      "Modality": "MR",
      "NumberOfAverages": 1.0,
      "NumberOfPhaseEncodingSteps": 88,
      "PercentPhaseFieldOfView": 100.0,
      "PercentSampling": 100.0,
      "PerformedProcedureStepStartTime": "110400.035000",
      "PhotometricInterpretation": "MONOCHROME2",
      "PixelBandwidth": 2185.0,
      "PixelRepresentation": 0,
      "PixelSpacing": [2.3977272510529, 2.3977272510529],
      "ProtocolName": "func-bold_task-RDMmotion_run-06",
      "RepetitionTime": 1200.0,
      "Rows": 704,
      "SAR": 0.05399452067544,
      "SamplesPerPixel": 1,
      "ScanOptions": "FS",
      "ScanningSequence": "EP",
      "SequenceName": "*epfid2d1_88",
      "SequenceVariant": "SK",
      "SeriesDescription": "func-bold_task-RDMmotion_run-06",
      "SeriesNumber": 17,
      "SeriesTime": "121915.011000",
      "SliceLocation": -66.107260365833,
      "SliceThickness": 2.4000000953674,
      "SmallestImagePixelValue": 0,
      "SoftwareVersions": "syngo MR E11",
      "SpacingBetweenSlices": 2.3999999364574,
      "SpecificCharacterSet": "ISO_IR 100",
      "StudyID": "1",
      "StudyTime": "110359.954000",
      "TransmitCoilName": "Body",
      "VariableFlipAngleFlag": "N",
      "WindowCenterWidthExplanation": "Algo1",
      "dBdt": 0.0},
    "slices": {}
  },
  "time": {
    "samples": {
      "AcquisitionNumber": [1, 2, 3, 4, 5, 6, 7, 8, 9, 10, 11, 12, 13, 14, 15, 16, 17, 18, 19, 20, 21, 22, 23, 24, 25, 26, 27, 28, 29, 30, 31, 32, 33, 34, 35, 36, 37, 38, 39, 40, 41, 42, 43, 44, 45, 46, 47, 48, 49, 50, 51, 52, 53, 54, 55, 56, 57, 58, 59, 60, 61, 62, 63, 64, 65, 66, 67, 68, 69, 70, 71, 72, 73, 74, 75, 76, 77, 78, 79, 80, 81, 82, 83, 84, 85, 86, 87, 88, 89, 90, 91, 92, 93, 94, 95, 96, 97, 98, 99, 100, 101, 102, 103, 104, 105, 106, 107, 108, 109, 110, 111, 112, 113, 114, 115, 116, 117, 118, 119, 120, 121, 122, 123, 124, 125],
      "AcquisitionTime": ["121838.590000", "121839.790000", "121840.990000", "121842.190000", "121843.390000", "121844.590000", "121845.790000", "121846.990000", "121848.190000", "121849.390000", "121850.590000", "121851.790000", "121852.990000", "121854.190000", "121855.390000", "121856.590000", "121857.790000", "121858.990000", "121900.190000", "121901.390000", "121902.590000", "121903.790000", "121904.990000", "121906.190000", "121907.390000", "121908.590000", "121909.790000", "121910.990000", "121912.190000", "121913.390000", "121914.590000", "121915.790000", "121916.990000", "121918.190000", "121919.390000", "121920.590000", "121921.790000", "121922.990000", "121924.190000", "121925.390000", "121926.590000", "121927.790000", "121928.990000", "121930.190000", "121931.390000", "121932.590000", "121933.790000", "121934.990000", "121936.190000", "121937.390000", "121938.590000", "121939.790000", "121940.990000", "121942.190000", "121943.390000", "121944.590000", "121945.790000", "121946.990000", "121948.190000", "121949.390000", "121950.590000", "121951.790000", "121952.990000", "121954.190000", "121955.390000", "121956.590000", "121957.790000", "121958.990000", "122000.190000", "122001.390000", "122002.590000", "122003.790000", "122004.990000", "122006.190000", "122007.390000", "122008.590000", "122009.790000", "122010.990000", "122012.190000", "122013.390000", "122014.590000", "122015.790000", "122016.990000", "122018.190000", "122019.390000", "122020.590000", "122021.790000", "122022.990000", "122024.190000", "122025.390000", "122026.590000", "122027.790000", "122028.990000", "122030.190000", "122031.390000", "122032.590000", "122033.790000", "122034.990000", "122036.190000", "122037.390000", "122038.590000", "122039.790000", "122040.990000", "122042.190000", "122043.390000", "122044.590000", "122045.790000", "122046.990000", "122048.190000", "122049.390000", "122050.590000", "122051.790000", "122052.990000", "122054.190000", "122055.390000", "122056.590000", "122057.790000", "122058.990000", "122100.190000", "122101.390000", "122102.590000", "122103.790000", "122104.990000", "122106.190000", "122107.390000"],
      "ContentTime": ["121915.014000", "121915.017000", "121915.020000", "121915.022000", "121915.029000", "121915.032000", "121915.035000", "121915.037000", "121915.040000", "121915.043000", "121915.054000", "121915.057000", "121915.059000", "121915.062000", "121915.065000", "121915.067000", "121915.070000", "121915.072000", "121915.075000", "121915.084000", "121915.086000", "121915.089000", "121915.092000", "121915.094000", "121915.097000", "121915.099000", "121915.102000", "121915.104000", "121915.107000", "121915.109000", "121955.010000", "121955.013000", "121955.015000", "121955.018000", "121955.020000", "121955.023000", "121955.025000", "121955.028000", "121955.030000", "121955.033000", "121955.035000", "121955.038000", "121955.040000", "121955.043000", "121955.046000", "121955.048000", "121955.066000", "121955.069000", "121955.072000", "121955.074000", "121955.077000", "121955.079000", "121955.082000", "121955.084000", "121955.087000", "121955.089000", "121955.092000", "121955.094000", "121955.097000", "121955.100000", "121955.102000", "121955.105000", "121955.107000", "122035.011000", "122035.014000", "122035.031000", "122035.034000", "122035.036000", "122035.039000", "122035.042000", "122035.044000", "122035.047000", "122035.049000", "122035.052000", "122035.054000", "122035.057000", "122035.059000", "122035.062000", "122035.081000", "122035.084000", "122035.086000", "122035.089000", "122035.091000", "122035.094000", "122035.096000", "122035.099000", "122035.101000", "122035.104000", "122035.107000", "122035.109000", "122035.112000", "122035.114000", "122035.117000", "122035.120000", "122035.122000", "122035.125000", "122109.062000", "122109.065000", "122109.068000", "122109.070000", "122109.073000", "122109.075000", "122109.078000", "122109.081000", "122109.083000", "122109.086000", "122109.088000", "122109.091000", "122109.094000", "122109.096000", "122109.099000", "122109.102000", "122109.104000", "122109.107000", "122109.109000", "122109.112000", "122109.115000", "122109.117000", "122109.120000", "122109.123000", "122109.125000", "122109.128000", "122109.131000", "122109.133000", "122109.136000"],
      "InstanceCreationTime": ["121915.014000", "121915.017000", "121915.020000", "121915.022000", "121915.029000", "121915.032000", "121915.035000", "121915.037000", "121915.040000", "121915.043000", "121915.054000", "121915.057000", "121915.059000", "121915.062000", "121915.065000", "121915.067000", "121915.070000", "121915.072000", "121915.075000", "121915.084000", "121915.086000", "121915.089000", "121915.092000", "121915.094000", "121915.097000", "121915.099000", "121915.102000", "121915.104000", "121915.107000", "121915.109000", "121955.010000", "121955.013000", "121955.015000", "121955.018000", "121955.020000", "121955.023000", "121955.025000", "121955.028000", "121955.030000", "121955.033000", "121955.035000", "121955.038000", "121955.040000", "121955.043000", "121955.046000", "121955.048000", "121955.066000", "121955.069000", "121955.072000", "121955.074000", "121955.077000", "121955.079000", "121955.082000", "121955.084000", "121955.087000", "121955.089000", "121955.092000", "121955.094000", "121955.097000", "121955.100000", "121955.102000", "121955.105000", "121955.107000", "122035.011000", "122035.014000", "122035.031000", "122035.034000", "122035.036000", "122035.039000", "122035.042000", "122035.044000", "122035.047000", "122035.049000", "122035.052000", "122035.054000", "122035.057000", "122035.059000", "122035.062000", "122035.081000", "122035.084000", "122035.086000", "122035.089000", "122035.091000", "122035.094000", "122035.096000", "122035.099000", "122035.101000", "122035.104000", "122035.107000", "122035.109000", "122035.112000", "122035.114000", "122035.117000", "122035.120000", "122035.122000", "122035.125000", "122109.062000", "122109.065000", "122109.068000", "122109.070000", "122109.073000", "122109.075000", "122109.078000", "122109.081000", "122109.083000", "122109.086000", "122109.088000", "122109.091000", "122109.094000", "122109.096000", "122109.099000", "122109.102000", "122109.104000", "122109.107000", "122109.109000", "122109.112000", "122109.115000", "122109.117000", "122109.120000", "122109.123000", "122109.125000", "122109.128000", "122109.131000", "122109.133000", "122109.136000"],
      "InstanceNumber": [1, 2, 3, 4, 5, 6, 7, 8, 9, 10, 11, 12, 13, 14, 15, 16, 17, 18, 19, 20, 21, 22, 23, 24, 25, 26, 27, 28, 29, 30, 31, 32, 33, 34, 35, 36, 37, 38, 39, 40, 41, 42, 43, 44, 45, 46, 47, 48, 49, 50, 51, 52, 53, 54, 55, 56, 57, 58, 59, 60, 61, 62, 63, 64, 65, 66, 67, 68, 69, 70, 71, 72, 73, 74, 75, 76, 77, 78, 79, 80, 81, 82, 83, 84, 85, 86, 87, 88, 89, 90, 91, 92, 93, 94, 95, 96, 97, 98, 99, 100, 101, 102, 103, 104, 105, 106, 107, 108, 109, 110, 111, 112, 113, 114, 115, 116, 117, 118, 119, 120, 121, 122, 123, 124, 125],
      "LargestImagePixelValue": [1680, 1627, 1615, 1617, 1615, 1625, 1633, 1616, 1633, 1630, 1608, 1632, 1630, 1626, 1601, 1628, 1614, 1619, 1628, 1626, 1617, 1616, 1619, 1629, 1622, 1617, 1624, 1619, 1628, 1620, 1628, 1625, 1622, 1643, 1621, 1636, 1619, 1626, 1637, 1620, 1631, 1635, 1620, 1626, 1629, 1622, 1623, 1625, 1629, 1634, 1631, 1634, 1635, 1620, 1648, 1628, 1637, 1629, 1629, 1626, 1632, 1653, 1626, 1625, 1642, 1628, 1630, 1634, 1630, 1651, 1633, 1622, 1635, 1624, 1644, 1636, 1628, 1651, 1637, 1641, 1653, 1632, 1641, 1647, 1618, 1662, 1632, 1620, 1656, 1634, 1657, 1626, 1627, 1635, 1619, 1636, 1632, 1631, 1637, 1632, 1625, 1641, 1626, 1632, 1647, 1635, 1647, 1624, 1622, 1640, 1630, 1642, 1638, 1655, 1634, 1636, 1662, 1667, 1650, 1646, 1642, 1661, 1648, 1642, 1656],
      "WindowCenter": [559.0, 557.0, 557.0, 556.0, 557.0, 557.0, 558.0, 557.0, 557.0, 556.0, 556.0, 557.0, 558.0, 558.0, 558.0, 558.0, 558.0, 558.0, 558.0, 557.0, 558.0, 558.0, 558.0, 558.0, 558.0, 558.0, 558.0, 558.0, 558.0, 557.0, 557.0, 557.0, 557.0, 557.0, 557.0, 558.0, 558.0, 558.0, 559.0, 558.0, 558.0, 558.0, 557.0, 557.0, 557.0, 557.0, 557.0, 558.0, 558.0, 559.0, 559.0, 559.0, 559.0, 558.0, 558.0, 558.0, 557.0, 557.0, 557.0, 558.0, 558.0, 559.0, 558.0, 558.0, 558.0, 558.0, 559.0, 558.0, 557.0, 558.0, 557.0, 557.0, 557.0, 557.0, 557.0, 557.0, 557.0, 558.0, 558.0, 558.0, 558.0, 557.0, 557.0, 557.0, 556.0, 558.0, 557.0, 558.0, 558.0, 559.0, 560.0, 558.0, 558.0, 558.0, 558.0, 557.0, 557.0, 558.0, 558.0, 558.0, 557.0, 557.0, 557.0, 557.0, 557.0, 557.0, 557.0, 557.0, 557.0, 558.0, 558.0, 558.0, 558.0, 558.0, 557.0, 558.0, 558.0, 559.0, 560.0, 559.0, 558.0, 558.0, 558.0, 557.0, 557.0],
      "WindowWidth": [1187.0, 1183.0, 1182.0, 1181.0, 1181.0, 1183.0, 1184.0, 1183.0, 1181.0, 1181.0, 1180.0, 1183.0, 1185.0, 1185.0, 1184.0, 1184.0, 1184.0, 1184.0, 1184.0, 1183.0, 1184.0, 1184.0, 1184.0, 1185.0, 1184.0, 1184.0, 1183.0, 1184.0, 1184.0, 1183.0, 1182.0, 1182.0, 1182.0, 1183.0, 1183.0, 1185.0, 1186.0, 1185.0, 1186.0, 1185.0, 1185.0, 1185.0, 1183.0, 1182.0, 1182.0, 1183.0, 1183.0, 1184.0, 1184.0, 1186.0, 1186.0, 1186.0, 1186.0, 1185.0, 1185.0, 1184.0, 1183.0, 1183.0, 1183.0, 1185.0, 1185.0, 1186.0, 1185.0, 1185.0, 1185.0, 1184.0, 1185.0, 1184.0, 1183.0, 1184.0, 1183.0, 1183.0, 1183.0, 1182.0, 1182.0, 1183.0, 1183.0, 1185.0, 1185.0, 1184.0, 1184.0, 1183.0, 1183.0, 1182.0, 1181.0, 1183.0, 1183.0, 1184.0, 1185.0, 1186.0, 1188.0, 1185.0, 1185.0, 1185.0, 1184.0, 1183.0, 1183.0, 1184.0, 1184.0, 1184.0, 1182.0, 1183.0, 1182.0, 1182.0, 1183.0, 1183.0, 1182.0, 1181.0, 1182.0, 1184.0, 1184.0, 1185.0, 1185.0, 1184.0, 1182.0, 1184.0, 1185.0, 1187.0, 1188.0, 1187.0, 1185.0, 1184.0, 1183.0, 1182.0, 1181.0]
    },
    "slices": {}
  }
}