{
  "AcquisitionMatrixPE": 88,
  "AcquisitionNumber": 1,
  "AcquisitionTime": "12:35:39.560000",
  "BandwidthPerPixelPhaseEncode": 19.592,
  "BaseResolution": 88,
  "BodyPartExamined": "BRAIN",
  "ConsistencyInfo": "N4_VE11C_LATEST_20160120",
  "ConversionSoftware": "dcm2niix",
  "ConversionSoftwareVersion": "v1.0.20190902",
  "DerivedVendorReportedEchoSpacing": 0.000580014,
  "DeviceSerialNumber": "67050",
  "DwellTime": 2.6e-06,
  "EchoTime": 0.033,
  "EchoTrainLength": 88,
  "EffectiveEchoSpacing": 0.000580014,
  "FlipAngle": 62,
  "ImageOrientationPatientDICOM": [0.997163, 0.0300884, 0.0689908, -0.0346474, 0.997227, 0.0658658],
  "ImageType": [
    "ORIGINAL",
    "PRIMARY",
    "M",
    "ND",
    "MOSAIC"
],
  "ImagingFrequency": 123.251,
  "InPlanePhaseEncodingDirectionDICOM": "COL",
  "InstitutionAddress": "Olive_Street_60_Providence_RI_US_02912",
  "InstitutionName": "BROWN_UNIVERSITY_MRF",
  "InstitutionalDepartmentName": "Department",
  "MRAcquisitionType": "2D",
  "MagneticFieldStrength": 3,
  "Manufacturer": "Siemens",
  "ManufacturersModelName": "Prisma_fit",
  "Modality": "MR",
  "MultibandAccelerationFactor": 4,
  "PartialFourier": 1,
  "PatientPosition": "HFS",
  "PercentPhaseFOV": 100,
  "PhaseEncodingDirection": "j-",
  "PhaseEncodingSteps": 88,
  "PhaseResolution": 1,
  "PixelBandwidth": 2185,
  "ProcedureStepDescription": "ASHENHAV_1222",
  "ProtocolName": "func-bold_task-RDMlocalizer_run-02",
  "PulseSequenceDetails": "%SiemensSeq%_ep2d_bold",
  "ReceiveCoilActiveElements": "HC1-7",
  "ReceiveCoilName": "HeadNeck_64",
  "ReconMatrixPE": 88,
  "RefLinesPE": 8,
  "RepetitionTime": 1.2,
  "SAR": 0.0542814,
  "ScanOptions": "FS",
  "ScanningSequence": "EP",
  "SequenceName": "_epfid2d1_88",
  "SequenceVariant": "SK",
  "SeriesDescription": "func-bold_task-RDMlocalizer_run-02",
  "SeriesNumber": 20,
  "ShimSetting": [1755, -9106, 4368, 521, -129, -289, -13, -24],
  "SliceThickness": 2.4,
  "SliceTiming": [0.55, 0, 0.63, 0.08, 0.7075, 0.1575, 0.7875, 0.2375, 0.865, 0.315, 0.945, 0.3925, 1.0225, 0.4725, 1.1025, 0.55, 0, 0.63, 0.08, 0.7075, 0.1575, 0.7875, 0.2375, 0.865, 0.315, 0.945, 0.3925, 1.0225, 0.4725, 1.1025, 0.55, 0, 0.63, 0.08, 0.7075, 0.1575, 0.7875, 0.2375, 0.865, 0.315, 0.945, 0.3925, 1.0225, 0.4725, 1.1025, 0.55, 0, 0.63, 0.08, 0.7075, 0.1575, 0.7875, 0.2375, 0.865, 0.315, 0.945, 0.3925, 1.0225, 0.4725, 1.1025],
  "SoftwareVersions": "syngo_MR_E11",
  "SpacingBetweenSlices": 2.4,
  "StationName": "AWP67050",
  "TaskName": "RDMlocalizer",
  "TotalReadoutTime": 0.0504612,
  "TxRefAmp": 233.939,
  "dcmmeta_affine": [
    [-2.390925884246826, -0.08307506144046783, 0.1603623926639557, 106.84453582763672],
    [-0.07214389741420746, 2.391077756881714, 0.16336631774902344, -98.88887786865234],
    [0.16542109847068787, -0.15792818367481232, 2.3890573978424072, -66.8197250366211],
    [0.0, 0.0, 0.0, 1.0]
],
  "dcmmeta_reorient_transform": [
    [0.0, -1.0, 0.0, 87.0],
    [1.0, 0.0, 0.0, 0.0],
    [0.0, 0.0, 1.0, 0.0],
    [0.0, 0.0, 0.0, 1.0]
],
  "dcmmeta_shape": [88, 88, 60, 195],
  "dcmmeta_slice_dim": 2,
  "dcmmeta_version": 0.6,
  "global": {
    "const": {
      "AcquisitionMatrix": [88, 0, 0, 88],
      "AngioFlag": "N",
      "BitsAllocated": 16,
      "BitsStored": 12,
      "BodyPartExamined": "BRAIN",
      "Columns": 704,
      "DeidentificationMethodCodeSequence": [
        {
          "CodeMeaning": "XNAT DicomEdit 6 Script",
          "CodeValue": "3",
          "CodingSchemeDesignator": "XNAT",
          "CodingSchemeVersion": "1.0"}
],
      "EchoNumbers": 1,
      "EchoTime": 33.0,
      "EchoTrainLength": 88,
      "FlipAngle": 62.0,
      "HighBit": 11,
      "ImageOrientationPatient": [0.99716345496954, 0.03008844891914, 0.06899079152214, -0.0346474184873, 0.99722678221535, 0.06586578189461],
      "ImagePositionPatient": [-810.43509057221, -867.80718548387, -180.15105447881],
      "ImageType": [
        "ORIGINAL",
        "PRIMARY",
        "M",
        "ND",
        "MOSAIC"
],
      "ImagedNucleus": "1H",
      "ImagingFrequency": 123.250733,
      "InPlanePhaseEncodingDirection": "COL",
      "MRAcquisitionType": "2D",
      "MagneticFieldStrength": 3.0,
      "Manufacturer": "SIEMENS",
      "ManufacturerModelName": "Prisma_fit",
      "Modality": "MR",
      "NumberOfAverages": 1.0,
      "NumberOfPhaseEncodingSteps": 88,
      "PercentPhaseFieldOfView": 100.0,
      "PercentSampling": 100.0,
      "PerformedProcedureStepStartTime": "110400.035000",
      "PhotometricInterpretation": "MONOCHROME2",
      "PixelBandwidth": 2185.0,
      "PixelRepresentation": 0,
      "PixelSpacing": [2.3977272510529, 2.3977272510529],
      "ProtocolName": "func-bold_task-RDMlocalizer_run-02",
      "RepetitionTime": 1200.0,
      "Rows": 704,
      "SAR": 0.05428141028664,
      "SamplesPerPixel": 1,
      "ScanOptions": "FS",
      "ScanningSequence": "EP",
      "SequenceName": "*epfid2d1_88",
      "SequenceVariant": "SK",
      "SeriesDescription": "func-bold_task-RDMlocalizer_run-02",
      "SeriesNumber": 20,
      "SeriesTime": "123615.011000",
      "SliceLocation": -66.107260365833,
      "SliceThickness": 2.4000000953674,
      "SmallestImagePixelValue": 0,
      "SoftwareVersions": "syngo MR E11",
      "SpacingBetweenSlices": 2.3999999364574,
      "SpecificCharacterSet": "ISO_IR 100",
      "StudyID": "1",
      "StudyTime": "110359.954000",
      "TransmitCoilName": "Body",
      "VariableFlipAngleFlag": "N",
      "WindowCenterWidthExplanation": "Algo1",
      "dBdt": 0.0},
    "slices": {}
  },
  "time": {
    "samples": {
      "AcquisitionNumber": [1, 2, 3, 4, 5, 6, 7, 8, 9, 10, 11, 12, 13, 14, 15, 16, 17, 18, 19, 20, 21, 22, 23, 24, 25, 26, 27, 28, 29, 30, 31, 32, 33, 34, 35, 36, 37, 38, 39, 40, 41, 42, 43, 44, 45, 46, 47, 48, 49, 50, 51, 52, 53, 54, 55, 56, 57, 58, 59, 60, 61, 62, 63, 64, 65, 66, 67, 68, 69, 70, 71, 72, 73, 74, 75, 76, 77, 78, 79, 80, 81, 82, 83, 84, 85, 86, 87, 88, 89, 90, 91, 92, 93, 94, 95, 96, 97, 98, 99, 100, 101, 102, 103, 104, 105, 106, 107, 108, 109, 110, 111, 112, 113, 114, 115, 116, 117, 118, 119, 120, 121, 122, 123, 124, 125, 126, 127, 128, 129, 130, 131, 132, 133, 134, 135, 136, 137, 138, 139, 140, 141, 142, 143, 144, 145, 146, 147, 148, 149, 150, 151, 152, 153, 154, 155, 156, 157, 158, 159, 160, 161, 162, 163, 164, 165, 166, 167, 168, 169, 170, 171, 172, 173, 174, 175, 176, 177, 178, 179, 180, 181, 182, 183, 184, 185, 186, 187, 188, 189, 190, 191, 192, 193, 194, 195],
      "AcquisitionTime": ["123539.560000", "123540.760000", "123541.960000", "123543.160000", "123544.360000", "123545.560000", "123546.760000", "123547.960000", "123549.160000", "123550.360000", "123551.560000", "123552.760000", "123553.960000", "123555.160000", "123556.360000", "123557.560000", "123558.760000", "123559.960000", "123601.160000", "123602.360000", "123603.560000", "123604.760000", "123605.960000", "123607.160000", "123608.360000", "123609.560000", "123610.760000", "123611.960000", "123613.160000", "123614.360000", "123615.560000", "123616.760000", "123617.960000", "123619.160000", "123620.360000", "123621.560000", "123622.760000", "123623.960000", "123625.160000", "123626.360000", "123627.560000", "123628.760000", "123629.960000", "123631.160000", "123632.360000", "123633.560000", "123634.760000", "123635.960000", "123637.160000", "123638.360000", "123639.560000", "123640.760000", "123641.960000", "123643.160000", "123644.360000", "123645.560000", "123646.760000", "123647.960000", "123649.160000", "123650.360000", "123651.560000", "123652.760000", "123653.960000", "123655.160000", "123656.360000", "123657.560000", "123658.760000", "123659.960000", "123701.160000", "123702.360000", "123703.560000", "123704.760000", "123705.960000", "123707.160000", "123708.360000", "123709.560000", "123710.760000", "123711.960000", "123713.160000", "123714.360000", "123715.560000", "123716.760000", "123717.960000", "123719.160000", "123720.360000", "123721.560000", "123722.760000", "123723.960000", "123725.160000", "123726.360000", "123727.560000", "123728.760000", "123729.960000", "123731.160000", "123732.360000", "123733.560000", "123734.760000", "123735.960000", "123737.160000", "123738.360000", "123739.560000", "123740.760000", "123741.960000", "123743.160000", "123744.360000", "123745.560000", "123746.760000", "123747.960000", "123749.160000", "123750.360000", "123751.560000", "123752.760000", "123753.960000", "123755.160000", "123756.360000", "123757.560000", "123758.760000", "123759.960000", "123801.160000", "123802.360000", "123803.560000", "123804.760000", "123805.960000", "123807.160000", "123808.360000", "123809.560000", "123810.760000", "123811.960000", "123813.160000", "123814.360000", "123815.560000", "123816.760000", "123817.960000", "123819.160000", "123820.360000", "123821.560000", "123822.760000", "123823.960000", "123825.160000", "123826.360000", "123827.560000", "123828.760000", "123829.960000", "123831.160000", "123832.360000", "123833.560000", "123834.760000", "123835.960000", "123837.160000", "123838.360000", "123839.560000", "123840.760000", "123841.960000", "123843.160000", "123844.360000", "123845.560000", "123846.760000", "123847.960000", "123849.160000", "123850.360000", "123851.560000", "123852.760000", "123853.960000", "123855.160000", "123856.360000", "123857.560000", "123858.760000", "123859.960000", "123901.160000", "123902.360000", "123903.560000", "123904.760000", "123905.960000", "123907.160000", "123908.360000", "123909.560000", "123910.760000", "123911.960000", "123913.160000", "123914.360000", "123915.560000", "123916.760000", "123917.960000", "123919.160000", "123920.360000", "123921.560000", "123922.760000", "123923.960000", "123925.160000", "123926.360000", "123927.560000", "123928.760000", "123929.960000", "123931.160000", "123932.360000"],
      "ContentTime": ["123615.014000", "123615.018000", "123615.021000", "123615.024000", "123615.027000", "123615.030000", "123615.033000", "123615.041000", "123615.044000", "123615.047000", "123615.049000", "123615.052000", "123615.054000", "123615.057000", "123615.060000", "123615.062000", "123615.065000", "123615.067000", "123615.070000", "123615.073000", "123615.075000", "123615.078000", "123615.080000", "123615.083000", "123615.085000", "123615.088000", "123615.091000", "123615.093000", "123655.011000", "123655.014000", "123655.016000", "123655.019000", "123655.021000", "123655.024000", "123655.026000", "123655.029000", "123655.032000", "123655.034000", "123655.037000", "123655.039000", "123655.042000", "123655.044000", "123655.047000", "123655.049000", "123655.052000", "123655.055000", "123655.057000", "123655.060000", "123655.070000", "123655.073000", "123655.075000", "123655.078000", "123655.081000", "123655.083000", "123655.086000", "123655.089000", "123655.091000", "123655.094000", "123655.096000", "123655.099000", "123655.101000", "123655.104000", "123735.009000", "123735.012000", "123735.015000", "123735.018000", "123735.020000", "123735.023000", "123735.025000", "123735.028000", "123735.030000", "123735.033000", "123735.035000", "123735.038000", "123735.040000", "123735.043000", "123735.045000", "123735.048000", "123735.064000", "123735.068000", "123735.071000", "123735.073000", "123735.076000", "123735.086000", "123735.089000", "123735.091000", "123735.094000", "123735.096000", "123735.099000", "123735.101000", "123735.104000", "123735.106000", "123735.109000", "123735.112000", "123735.114000", "123815.009000", "123815.012000", "123815.015000", "123815.017000", "123815.020000", "123815.023000", "123815.025000", "123815.028000", "123815.037000", "123815.040000", "123815.043000", "123815.046000", "123815.049000", "123815.052000", "123815.055000", "123815.058000", "123815.060000", "123815.063000", "123815.066000", "123815.069000", "123815.071000", "123815.074000", "123815.076000", "123815.079000", "123815.082000", "123815.084000", "123815.087000", "123815.089000", "123815.092000", "123815.094000", "123815.097000", "123815.100000", "123815.103000", "123855.010000", "123855.012000", "123855.015000", "123855.018000", "123855.020000", "123855.023000", "123855.026000", "123855.028000", "123855.031000", "123855.033000", "123855.036000", "123855.039000", "123855.041000", "123855.044000", "123855.046000", "123855.049000", "123855.052000", "123855.054000", "123855.057000", "123855.059000", "123855.062000", "123855.064000", "123855.067000", "123855.070000", "123855.072000", "123855.075000", "123855.077000", "123855.080000", "123855.082000", "123855.085000", "123855.087000", "123855.090000", "123855.093000", "123855.095000", "123934.268000", "123934.271000", "123934.274000", "123934.277000", "123934.279000", "123934.282000", "123934.284000", "123934.287000", "123934.290000", "123934.292000", "123934.295000", "123934.298000", "123934.303000", "123934.306000", "123934.308000", "123934.311000", "123934.314000", "123934.316000", "123934.319000", "123934.322000", "123934.324000", "123934.327000", "123934.330000", "123934.333000", "123934.336000", "123934.339000", "123934.341000", "123934.344000", "123934.347000", "123934.350000", "123934.354000", "123934.362000", "123934.365000"],
      "InstanceCreationTime": ["123615.014000", "123615.018000", "123615.021000", "123615.024000", "123615.027000", "123615.030000", "123615.033000", "123615.041000", "123615.044000", "123615.047000", "123615.049000", "123615.052000", "123615.054000", "123615.057000", "123615.060000", "123615.062000", "123615.065000", "123615.067000", "123615.070000", "123615.073000", "123615.075000", "123615.078000", "123615.080000", "123615.083000", "123615.085000", "123615.088000", "123615.091000", "123615.093000", "123655.011000", "123655.014000", "123655.016000", "123655.019000", "123655.021000", "123655.024000", "123655.026000", "123655.029000", "123655.032000", "123655.034000", "123655.037000", "123655.039000", "123655.042000", "123655.044000", "123655.047000", "123655.049000", "123655.052000", "123655.055000", "123655.057000", "123655.060000", "123655.070000", "123655.073000", "123655.075000", "123655.078000", "123655.081000", "123655.083000", "123655.086000", "123655.089000", "123655.091000", "123655.094000", "123655.096000", "123655.099000", "123655.101000", "123655.104000", "123735.009000", "123735.012000", "123735.015000", "123735.018000", "123735.020000", "123735.023000", "123735.025000", "123735.028000", "123735.030000", "123735.033000", "123735.035000", "123735.038000", "123735.040000", "123735.043000", "123735.045000", "123735.048000", "123735.064000", "123735.068000", "123735.071000", "123735.073000", "123735.076000", "123735.086000", "123735.089000", "123735.091000", "123735.094000", "123735.096000", "123735.099000", "123735.101000", "123735.104000", "123735.106000", "123735.109000", "123735.112000", "123735.114000", "123815.009000", "123815.012000", "123815.015000", "123815.017000", "123815.020000", "123815.023000", "123815.025000", "123815.028000", "123815.037000", "123815.040000", "123815.043000", "123815.046000", "123815.049000", "123815.052000", "123815.055000", "123815.058000", "123815.060000", "123815.063000", "123815.066000", "123815.069000", "123815.071000", "123815.074000", "123815.076000", "123815.079000", "123815.082000", "123815.084000", "123815.087000", "123815.089000", "123815.092000", "123815.094000", "123815.097000", "123815.100000", "123815.103000", "123855.010000", "123855.012000", "123855.015000", "123855.018000", "123855.020000", "123855.023000", "123855.026000", "123855.028000", "123855.031000", "123855.033000", "123855.036000", "123855.039000", "123855.041000", "123855.044000", "123855.046000", "123855.049000", "123855.052000", "123855.054000", "123855.057000", "123855.059000", "123855.062000", "123855.064000", "123855.067000", "123855.070000", "123855.072000", "123855.075000", "123855.077000", "123855.080000", "123855.082000", "123855.085000", "123855.087000", "123855.090000", "123855.093000", "123855.095000", "123934.268000", "123934.271000", "123934.274000", "123934.277000", "123934.279000", "123934.282000", "123934.284000", "123934.287000", "123934.290000", "123934.292000", "123934.295000", "123934.298000", "123934.303000", "123934.306000", "123934.308000", "123934.311000", "123934.314000", "123934.316000", "123934.319000", "123934.322000", "123934.324000", "123934.327000", "123934.330000", "123934.333000", "123934.336000", "123934.339000", "123934.341000", "123934.344000", "123934.347000", "123934.350000", "123934.354000", "123934.362000", "123934.365000"],
      "InstanceNumber": [1, 2, 3, 4, 5, 6, 7, 8, 9, 10, 11, 12, 13, 14, 15, 16, 17, 18, 19, 20, 21, 22, 23, 24, 25, 26, 27, 28, 29, 30, 31, 32, 33, 34, 35, 36, 37, 38, 39, 40, 41, 42, 43, 44, 45, 46, 47, 48, 49, 50, 51, 52, 53, 54, 55, 56, 57, 58, 59, 60, 61, 62, 63, 64, 65, 66, 67, 68, 69, 70, 71, 72, 73, 74, 75, 76, 77, 78, 79, 80, 81, 82, 83, 84, 85, 86, 87, 88, 89, 90, 91, 92, 93, 94, 95, 96, 97, 98, 99, 100, 101, 102, 103, 104, 105, 106, 107, 108, 109, 110, 111, 112, 113, 114, 115, 116, 117, 118, 119, 120, 121, 122, 123, 124, 125, 126, 127, 128, 129, 130, 131, 132, 133, 134, 135, 136, 137, 138, 139, 140, 141, 142, 143, 144, 145, 146, 147, 148, 149, 150, 151, 152, 153, 154, 155, 156, 157, 158, 159, 160, 161, 162, 163, 164, 165, 166, 167, 168, 169, 170, 171, 172, 173, 174, 175, 176, 177, 178, 179, 180, 181, 182, 183, 184, 185, 186, 187, 188, 189, 190, 191, 192, 193, 194, 195],
      "LargestImagePixelValue": [1733, 1704, 1691, 1685, 1669, 1684, 1695, 1665, 1668, 1695, 1686, 1681, 1694, 1694, 1679, 1674, 1687, 1690, 1686, 1683, 1693, 1695, 1683, 1671, 1678, 1714, 1690, 1684, 1698, 1702, 1688, 1683, 1687, 1682, 1694, 1697, 1700, 1705, 1702, 1684, 1706, 1682, 1682, 1694, 1687, 1730, 1684, 1675, 1684, 1681, 1685, 1688, 1693, 1691, 1680, 1704, 1681, 1678, 1699, 1690, 1669, 1704, 1692, 1680, 1681, 1685, 1678, 1677, 1668, 1692, 1679, 1689, 1693, 1699, 1670, 1681, 1654, 1671, 1683, 1665, 1694, 1659, 1680, 1687, 1655, 1688, 1660, 1671, 1681, 1668, 1665, 1684, 1709, 1694, 1694, 1674, 1668, 1678, 1676, 1666, 1679, 1684, 1679, 1668, 1690, 1674, 1678, 1677, 1680, 1680, 1688, 1690, 1695, 1697, 1694, 1707, 1698, 1687, 1690, 1683, 1682, 1669, 1683, 1703, 1680, 1671, 1676, 1683, 1681, 1670, 1672, 1666, 1680, 1658, 1662, 1674, 1661, 1660, 1659, 1675, 1671, 1666, 1671, 1681, 1673, 1672, 1680, 1680, 1676, 1677, 1665, 1652, 1682, 1679, 1659, 1674, 1661, 1670, 1658, 1649, 1664, 1668, 1654, 1662, 1660, 1650, 1663, 1668, 1672, 1670, 1664, 1649, 1652, 1648, 1662, 1657, 1672, 1671, 1662, 1679, 1655, 1660, 1677, 1673, 1677, 1665, 1648, 1656, 1660, 1669, 1683, 1687, 1690, 1671, 1676],
      "WindowCenter": [559.0, 557.0, 557.0, 557.0, 557.0, 557.0, 557.0, 557.0, 557.0, 558.0, 558.0, 558.0, 558.0, 558.0, 558.0, 558.0, 558.0, 559.0, 559.0, 559.0, 559.0, 559.0, 558.0, 559.0, 559.0, 560.0, 559.0, 559.0, 559.0, 559.0, 558.0, 559.0, 559.0, 559.0, 559.0, 559.0, 559.0, 559.0, 559.0, 558.0, 559.0, 558.0, 558.0, 559.0, 559.0, 560.0, 559.0, 558.0, 558.0, 558.0, 558.0, 558.0, 558.0, 558.0, 558.0, 558.0, 558.0, 558.0, 559.0, 559.0, 558.0, 559.0, 558.0, 558.0, 558.0, 559.0, 559.0, 559.0, 558.0, 559.0, 559.0, 559.0, 559.0, 559.0, 558.0, 558.0, 558.0, 558.0, 558.0, 557.0, 557.0, 557.0, 557.0, 557.0, 557.0, 558.0, 558.0, 558.0, 558.0, 557.0, 557.0, 557.0, 558.0, 558.0, 557.0, 556.0, 556.0, 556.0, 557.0, 557.0, 558.0, 558.0, 559.0, 558.0, 559.0, 558.0, 558.0, 558.0, 558.0, 558.0, 558.0, 558.0, 558.0, 558.0, 558.0, 558.0, 558.0, 558.0, 558.0, 558.0, 558.0, 558.0, 558.0, 558.0, 558.0, 558.0, 558.0, 558.0, 558.0, 558.0, 557.0, 557.0, 557.0, 557.0, 556.0, 556.0, 556.0, 557.0, 557.0, 557.0, 557.0, 557.0, 558.0, 557.0, 557.0, 557.0, 556.0, 556.0, 557.0, 557.0, 557.0, 557.0, 557.0, 557.0, 557.0, 556.0, 556.0, 556.0, 556.0, 556.0, 556.0, 556.0, 556.0, 556.0, 557.0, 557.0, 557.0, 557.0, 557.0, 557.0, 556.0, 555.0, 555.0, 556.0, 557.0, 557.0, 558.0, 558.0, 557.0, 557.0, 556.0, 556.0, 558.0, 558.0, 557.0, 556.0, 556.0, 556.0, 557.0, 557.0, 558.0, 558.0, 558.0, 558.0, 558.0],
      "WindowWidth": [1184.0, 1181.0, 1181.0, 1181.0, 1181.0, 1182.0, 1182.0, 1182.0, 1182.0, 1184.0, 1184.0, 1184.0, 1184.0, 1184.0, 1183.0, 1184.0, 1184.0, 1185.0, 1185.0, 1185.0, 1185.0, 1185.0, 1184.0, 1185.0, 1187.0, 1187.0, 1186.0, 1185.0, 1185.0, 1185.0, 1184.0, 1185.0, 1186.0, 1186.0, 1187.0, 1187.0, 1187.0, 1187.0, 1186.0, 1184.0, 1185.0, 1184.0, 1184.0, 1185.0, 1186.0, 1188.0, 1185.0, 1184.0, 1184.0, 1184.0, 1184.0, 1184.0, 1184.0, 1184.0, 1184.0, 1185.0, 1185.0, 1184.0, 1186.0, 1186.0, 1185.0, 1185.0, 1185.0, 1184.0, 1184.0, 1185.0, 1185.0, 1186.0, 1185.0, 1185.0, 1187.0, 1186.0, 1186.0, 1185.0, 1183.0, 1183.0, 1183.0, 1183.0, 1183.0, 1182.0, 1182.0, 1181.0, 1181.0, 1181.0, 1182.0, 1183.0, 1183.0, 1183.0, 1183.0, 1182.0, 1182.0, 1182.0, 1183.0, 1184.0, 1182.0, 1180.0, 1180.0, 1181.0, 1182.0, 1182.0, 1183.0, 1184.0, 1185.0, 1183.0, 1185.0, 1184.0, 1184.0, 1183.0, 1183.0, 1183.0, 1183.0, 1185.0, 1185.0, 1184.0, 1184.0, 1184.0, 1184.0, 1183.0, 1184.0, 1185.0, 1185.0, 1184.0, 1183.0, 1184.0, 1184.0, 1184.0, 1184.0, 1184.0, 1184.0, 1183.0, 1182.0, 1181.0, 1182.0, 1181.0, 1180.0, 1180.0, 1180.0, 1181.0, 1181.0, 1182.0, 1182.0, 1183.0, 1183.0, 1182.0, 1181.0, 1181.0, 1180.0, 1180.0, 1181.0, 1181.0, 1181.0, 1182.0, 1183.0, 1182.0, 1181.0, 1180.0, 1180.0, 1180.0, 1180.0, 1179.0, 1179.0, 1179.0, 1179.0, 1179.0, 1180.0, 1182.0, 1181.0, 1182.0, 1182.0, 1181.0, 1180.0, 1178.0, 1178.0, 1179.0, 1181.0, 1182.0, 1184.0, 1183.0, 1181.0, 1181.0, 1180.0, 1181.0, 1184.0, 1184.0, 1180.0, 1180.0, 1178.0, 1180.0, 1180.0, 1182.0, 1183.0, 1183.0, 1184.0, 1183.0, 1182.0]
    },
    "slices": {}
  }
}