{
  "AcquisitionMatrixPE": 88,
  "AcquisitionNumber": 1,
  "AcquisitionTime": "18:26:21.557500",
  "BandwidthPerPixelPhaseEncode": 19.592,
  "BaseResolution": 88,
  "BodyPartExamined": "BRAIN",
  "ConsistencyInfo": "N4_VE11C_LATEST_20160120",
  "ConversionSoftware": "dcm2niix",
  "ConversionSoftwareVersion": "v1.0.20190902",
  "DerivedVendorReportedEchoSpacing": 0.000580014,
  "DeviceSerialNumber": "67050",
  "DwellTime": 2.6e-06,
  "EchoTime": 0.033,
  "EchoTrainLength": 88,
  "EffectiveEchoSpacing": 0.000580014,
  "FlipAngle": 62,
  "ImageOrientationPatientDICOM": [0.9985, 0.0543661, 0.00641502, -0.0546012, 0.997484, 0.0452209],
  "ImageType": [
    "ORIGINAL",
    "PRIMARY",
    "M",
    "ND",
    "MOSAIC"
],
  "ImagingFrequency": 123.251,
  "InPlanePhaseEncodingDirectionDICOM": "COL",
  "InstitutionAddress": "Olive_Street_60_Providence_RI_US_02912",
  "InstitutionName": "BROWN_UNIVERSITY_MRF",
  "InstitutionalDepartmentName": "Department",
  "MRAcquisitionType": "2D",
  "MagneticFieldStrength": 3,
  "Manufacturer": "Siemens",
  "ManufacturersModelName": "Prisma_fit",
  "Modality": "MR",
  "MultibandAccelerationFactor": 4,
  "PartialFourier": 1,
  "PatientPosition": "HFS",
  "PercentPhaseFOV": 100,
  "PhaseEncodingDirection": "j-",
  "PhaseEncodingSteps": 88,
  "PhaseResolution": 1,
  "PixelBandwidth": 2185,
  "ProcedureStepDescription": "ASHENHAV_1222",
  "ProtocolName": "func-bold_task-RDMcolor_run-04",
  "PulseSequenceDetails": "%SiemensSeq%_ep2d_bold",
  "ReceiveCoilActiveElements": "HC3-7;NC1",
  "ReceiveCoilName": "HeadNeck_64",
  "ReconMatrixPE": 88,
  "RefLinesPE": 8,
  "RepetitionTime": 1.2,
  "SAR": 0.0457196,
  "ScanOptions": "FS",
  "ScanningSequence": "EP",
  "SequenceName": "_epfid2d1_88",
  "SequenceVariant": "SK",
  "SeriesDescription": "func-bold_task-RDMcolor_run-04",
  "SeriesNumber": 14,
  "ShimSetting": [1757, -9231, 4402, 858, -28, -297, 415, -38],
  "SliceThickness": 2.4,
  "SliceTiming": [0.55, 0, 0.63, 0.08, 0.7075, 0.1575, 0.7875, 0.235, 0.865, 0.315, 0.945, 0.3925, 1.0225, 0.4725, 1.1025, 0.55, 0, 0.63, 0.08, 0.7075, 0.1575, 0.7875, 0.235, 0.865, 0.315, 0.945, 0.3925, 1.0225, 0.4725, 1.1025, 0.55, 0, 0.63, 0.08, 0.7075, 0.1575, 0.7875, 0.235, 0.865, 0.315, 0.945, 0.3925, 1.0225, 0.4725, 1.1025, 0.55, 0, 0.63, 0.08, 0.7075, 0.1575, 0.7875, 0.235, 0.865, 0.315, 0.945, 0.3925, 1.0225, 0.4725, 1.1025],
  "SoftwareVersions": "syngo_MR_E11",
  "SpacingBetweenSlices": 2.4,
  "StationName": "AWP67050",
  "TaskName": "RDMcolor",
  "TotalReadoutTime": 0.0504612,
  "TxRefAmp": 220.458,
  "dcmmeta_affine": [
    [-2.394131660461426, -0.13091884553432465, 0.009456954896450043, 113.38870239257812],
    [-0.13035497069358826, 2.3916938304901123, 0.10920804738998413, -99.42579650878906],
    [0.015381471253931522, -0.10842736810445786, 2.3974955081939697, -69.23463439941406],
    [0.0, 0.0, 0.0, 1.0]
],
  "dcmmeta_reorient_transform": [
    [0.0, -1.0, 0.0, 87.0],
    [1.0, 0.0, 0.0, 0.0],
    [0.0, 0.0, 1.0, 0.0],
    [0.0, 0.0, 0.0, 1.0]
],
  "dcmmeta_shape": [88, 88, 60, 392],
  "dcmmeta_slice_dim": 2,
  "dcmmeta_version": 0.6,
  "global": {
    "const": {
      "AcquisitionMatrix": [88, 0, 0, 88],
      "AngioFlag": "N",
      "BitsAllocated": 16,
      "BitsStored": 12,
      "BodyPartExamined": "BRAIN",
      "Columns": 704,
      "DeidentificationMethodCodeSequence": [
        {
          "CodeMeaning": "XNAT DicomEdit 6 Script",
          "CodeValue": "3",
          "CodingSchemeDesignator": "XNAT",
          "CodingSchemeVersion": "1.0"}
],
      "EchoNumbers": 1,
      "EchoTime": 33.0,
      "EchoTrainLength": 88,
      "FlipAngle": 62.0,
      "HighBit": 11,
      "ImageOrientationPatient": [0.99850046546106, 0.05436605537179, 0.00641502122779, -0.0546012247166, 0.9974837226786, 0.04522089396158],
      "ImagePositionPatient": [-799.06834590972, -885.44262855206, -116.80094212842],
      "ImageType": [
        "ORIGINAL",
        "PRIMARY",
        "M",
        "ND",
        "MOSAIC"
],
      "ImagedNucleus": "1H",
      "ImagingFrequency": 123.250799,
      "InPlanePhaseEncodingDirection": "COL",
      "MRAcquisitionType": "2D",
      "MagneticFieldStrength": 3.0,
      "Manufacturer": "SIEMENS",
      "ManufacturerModelName": "Prisma_fit",
      "Modality": "MR",
      "NumberOfAverages": 1.0,
      "NumberOfPhaseEncodingSteps": 88,
      "PercentPhaseFieldOfView": 100.0,
      "PercentSampling": 100.0,
      "PerformedProcedureStepStartTime": "172520.650000",
      "PhotometricInterpretation": "MONOCHROME2",
      "PixelBandwidth": 2185.0,
      "PixelRepresentation": 0,
      "PixelSpacing": [2.3977272510529, 2.3977272510529],
      "ProtocolName": "func-bold_task-RDMcolor_run-04",
      "RepetitionTime": 1200.0,
      "Rows": 704,
      "SAR": 0.04571960704439,
      "SamplesPerPixel": 1,
      "ScanOptions": "FS",
      "ScanningSequence": "EP",
      "SequenceName": "*epfid2d1_88",
      "SequenceVariant": "SK",
      "SeriesDescription": "func-bold_task-RDMcolor_run-04",
      "SeriesNumber": 14,
      "SeriesTime": "182653.146000",
      "SliceLocation": -73.239796029028,
      "SliceThickness": 2.4000000953674,
      "SmallestImagePixelValue": 0,
      "SoftwareVersions": "syngo MR E11",
      "SpacingBetweenSlices": 2.4000000683899,
      "SpecificCharacterSet": "ISO_IR 100",
      "StudyID": "1",
      "StudyTime": "172520.512000",
      "TransmitCoilName": "Body",
      "VariableFlipAngleFlag": "N",
      "WindowCenterWidthExplanation": "Algo1",
      "dBdt": 0.0},
    "slices": {}
  },
  "time": {
    "samples": {
      "AcquisitionNumber": [1, 2, 3, 4, 5, 6, 7, 8, 9, 10, 11, 12, 13, 14, 15, 16, 17, 18, 19, 20, 21, 22, 23, 24, 25, 26, 27, 28, 29, 30, 31, 32, 33, 34, 35, 36, 37, 38, 39, 40, 41, 42, 43, 44, 45, 46, 47, 48, 49, 50, 51, 52, 53, 54, 55, 56, 57, 58, 59, 60, 61, 62, 63, 64, 65, 66, 67, 68, 69, 70, 71, 72, 73, 74, 75, 76, 77, 78, 79, 80, 81, 82, 83, 84, 85, 86, 87, 88, 89, 90, 91, 92, 93, 94, 95, 96, 97, 98, 99, 100, 101, 102, 103, 104, 105, 106, 107, 108, 109, 110, 111, 112, 113, 114, 115, 116, 117, 118, 119, 120, 121, 122, 123, 124, 125, 126, 127, 128, 129, 130, 131, 132, 133, 134, 135, 136, 137, 138, 139, 140, 141, 142, 143, 144, 145, 146, 147, 148, 149, 150, 151, 152, 153, 154, 155, 156, 157, 158, 159, 160, 161, 162, 163, 164, 165, 166, 167, 168, 169, 170, 171, 172, 173, 174, 175, 176, 177, 178, 179, 180, 181, 182, 183, 184, 185, 186, 187, 188, 189, 190, 191, 192, 193, 194, 195, 196, 197, 198, 199, 200, 201, 202, 203, 204, 205, 206, 207, 208, 209, 210, 211, 212, 213, 214, 215, 216, 217, 218, 219, 220, 221, 222, 223, 224, 225, 226, 227, 228, 229, 230, 231, 232, 233, 234, 235, 236, 237, 238, 239, 240, 241, 242, 243, 244, 245, 246, 247, 248, 249, 250, 251, 252, 253, 254, 255, 256, 257, 258, 259, 260, 261, 262, 263, 264, 265, 266, 267, 268, 269, 270, 271, 272, 273, 274, 275, 276, 277, 278, 279, 280, 281, 282, 283, 284, 285, 286, 287, 288, 289, 290, 291, 292, 293, 294, 295, 296, 297, 298, 299, 300, 301, 302, 303, 304, 305, 306, 307, 308, 309, 310, 311, 312, 313, 314, 315, 316, 317, 318, 319, 320, 321, 322, 323, 324, 325, 326, 327, 328, 329, 330, 331, 332, 333, 334, 335, 336, 337, 338, 339, 340, 341, 342, 343, 344, 345, 346, 347, 348, 349, 350, 351, 352, 353, 354, 355, 356, 357, 358, 359, 360, 361, 362, 363, 364, 365, 366, 367, 368, 369, 370, 371, 372, 373, 374, 375, 376, 377, 378, 379, 380, 381, 382, 383, 384, 385, 386, 387, 388, 389, 390, 391, 392],
      "AcquisitionTime": ["182621.557500", "182622.757500", "182623.957500", "182625.157500", "182626.357500", "182627.557500", "182628.757500", "182629.957500", "182631.157500", "182632.357500", "182633.557500", "182634.757500", "182635.957500", "182637.157500", "182638.357500", "182639.557500", "182640.757500", "182641.957500", "182643.157500", "182644.357500", "182645.557500", "182646.757500", "182647.957500", "182649.157500", "182650.357500", "182651.557500", "182652.757500", "182653.957500", "182655.157500", "182656.357500", "182657.557500", "182658.757500", "182659.957500", "182701.157500", "182702.357500", "182703.557500", "182704.757500", "182705.957500", "182707.157500", "182708.357500", "182709.557500", "182710.757500", "182711.957500", "182713.157500", "182714.357500", "182715.557500", "182716.757500", "182717.957500", "182719.157500", "182720.357500", "182721.557500", "182722.757500", "182723.957500", "182725.157500", "182726.357500", "182727.557500", "182728.757500", "182729.957500", "182731.157500", "182732.357500", "182733.557500", "182734.757500", "182735.957500", "182737.157500", "182738.357500", "182739.557500", "182740.757500", "182741.957500", "182743.157500", "182744.357500", "182745.557500", "182746.757500", "182747.957500", "182749.157500", "182750.357500", "182751.557500", "182752.757500", "182753.957500", "182755.157500", "182756.357500", "182757.557500", "182758.757500", "182759.957500", "182801.157500", "182802.357500", "182803.557500", "182804.757500", "182805.957500", "182807.157500", "182808.357500", "182809.557500", "182810.757500", "182811.957500", "182813.157500", "182814.357500", "182815.557500", "182816.757500", "182817.957500", "182819.157500", "182820.357500", "182821.557500", "182822.757500", "182823.957500", "182825.157500", "182826.357500", "182827.557500", "182828.757500", "182829.957500", "182831.157500", "182832.357500", "182833.557500", "182834.757500", "182835.957500", "182837.157500", "182838.357500", "182839.557500", "182840.757500", "182841.957500", "182843.157500", "182844.357500", "182845.557500", "182846.757500", "182847.957500", "182849.157500", "182850.357500", "182851.557500", "182852.757500", "182853.957500", "182855.157500", "182856.357500", "182857.557500", "182858.757500", "182859.957500", "182901.157500", "182902.357500", "182903.557500", "182904.757500", "182905.957500", "182907.157500", "182908.357500", "182909.557500", "182910.757500", "182911.957500", "182913.157500", "182914.357500", "182915.557500", "182916.757500", "182917.957500", "182919.157500", "182920.357500", "182921.557500", "182922.757500", "182923.957500", "182925.157500", "182926.357500", "182927.557500", "182928.757500", "182929.957500", "182931.157500", "182932.357500", "182933.557500", "182934.757500", "182935.957500", "182937.157500", "182938.357500", "182939.557500", "182940.757500", "182941.957500", "182943.157500", "182944.357500", "182945.557500", "182946.757500", "182947.957500", "182949.157500", "182950.357500", "182951.557500", "182952.757500", "182953.957500", "182955.157500", "182956.357500", "182957.557500", "182958.757500", "182959.957500", "183001.157500", "183002.357500", "183003.557500", "183004.757500", "183005.957500", "183007.157500", "183008.357500", "183009.557500", "183010.757500", "183011.957500", "183013.157500", "183014.357500", "183015.557500", "183016.757500", "183017.957500", "183019.157500", "183020.357500", "183021.557500", "183022.757500", "183023.957500", "183025.157500", "183026.357500", "183027.557500", "183028.757500", "183029.957500", "183031.157500", "183032.357500", "183033.557500", "183034.757500", "183035.957500", "183037.157500", "183038.357500", "183039.557500", "183040.757500", "183041.957500", "183043.157500", "183044.357500", "183045.557500", "183046.757500", "183047.957500", "183049.157500", "183050.357500", "183051.557500", "183052.757500", "183053.957500", "183055.157500", "183056.357500", "183057.557500", "183058.757500", "183059.957500", "183101.157500", "183102.357500", "183103.557500", "183104.757500", "183105.957500", "183107.157500", "183108.357500", "183109.557500", "183110.757500", "183111.957500", "183113.157500", "183114.357500", "183115.557500", "183116.757500", "183117.957500", "183119.157500", "183120.357500", "183121.557500", "183122.757500", "183123.957500", "183125.157500", "183126.357500", "183127.557500", "183128.757500", "183129.957500", "183131.157500", "183132.357500", "183133.557500", "183134.757500", "183135.957500", "183137.157500", "183138.357500", "183139.557500", "183140.757500", "183141.957500", "183143.157500", "183144.357500", "183145.557500", "183146.757500", "183147.957500", "183149.157500", "183150.357500", "183151.557500", "183152.757500", "183153.957500", "183155.157500", "183156.357500", "183157.557500", "183158.757500", "183159.957500", "183201.157500", "183202.357500", "183203.557500", "183204.757500", "183205.957500", "183207.157500", "183208.357500", "183209.557500", "183210.757500", "183211.957500", "183213.157500", "183214.357500", "183215.557500", "183216.757500", "183217.957500", "183219.157500", "183220.357500", "183221.557500", "183222.757500", "183223.957500", "183225.157500", "183226.357500", "183227.557500", "183228.757500", "183229.957500", "183231.157500", "183232.357500", "183233.557500", "183234.757500", "183235.957500", "183237.157500", "183238.357500", "183239.557500", "183240.757500", "183241.957500", "183243.157500", "183244.357500", "183245.557500", "183246.757500", "183247.957500", "183249.157500", "183250.357500", "183251.557500", "183252.757500", "183253.957500", "183255.157500", "183256.357500", "183257.557500", "183258.757500", "183259.957500", "183301.157500", "183302.357500", "183303.557500", "183304.757500", "183305.957500", "183307.157500", "183308.357500", "183309.557500", "183310.757500", "183311.957500", "183313.157500", "183314.357500", "183315.557500", "183316.757500", "183317.957500", "183319.157500", "183320.357500", "183321.557500", "183322.757500", "183323.957500", "183325.157500", "183326.357500", "183327.557500", "183328.757500", "183329.957500", "183331.157500", "183332.357500", "183333.557500", "183334.757500", "183335.957500", "183337.157500", "183338.357500", "183339.557500", "183340.757500", "183341.957500", "183343.157500", "183344.357500", "183345.557500", "183346.757500", "183347.957500", "183349.157500", "183350.357500", "183351.557500", "183352.757500", "183353.957500", "183355.157500", "183356.357500", "183357.557500", "183358.757500", "183359.957500", "183401.157500", "183402.357500", "183403.557500", "183404.757500", "183405.957500", "183407.157500", "183408.357500", "183409.557500", "183410.757500"],
      "ContentTime": ["182653.149000", "182653.158000", "182653.160000", "182653.163000", "182653.165000", "182653.168000", "182653.170000", "182653.173000", "182653.178000", "182653.181000", "182653.183000", "182653.186000", "182653.188000", "182653.191000", "182653.194000", "182653.197000", "182653.199000", "182653.202000", "182653.204000", "182653.207000", "182653.209000", "182653.212000", "182653.225000", "182653.228000", "182653.230000", "182653.233000", "182713.145000", "182713.147000", "182713.150000", "182713.152000", "182713.155000", "182713.157000", "182713.160000", "182713.163000", "182713.165000", "182713.168000", "182713.170000", "182713.173000", "182713.175000", "182713.178000", "182713.180000", "182713.183000", "182753.145000", "182753.148000", "182753.151000", "182753.153000", "182753.156000", "182753.159000", "182753.161000", "182753.164000", "182753.166000", "182753.169000", "182753.172000", "182753.174000", "182753.177000", "182753.179000", "182753.182000", "182753.185000", "182753.187000", "182753.190000", "182753.192000", "182753.195000", "182753.197000", "182753.200000", "182753.203000", "182753.221000", "182753.223000", "182753.226000", "182753.228000", "182753.231000", "182753.234000", "182753.236000", "182753.239000", "182753.242000", "182753.244000", "182753.247000", "182833.144000", "182833.147000", "182833.150000", "182833.152000", "182833.155000", "182833.157000", "182833.160000", "182833.163000", "182833.165000", "182833.168000", "182833.170000", "182833.173000", "182833.175000", "182833.178000", "182833.180000", "182833.183000", "182833.185000", "182833.188000", "182833.191000", "182833.193000", "182833.196000", "182833.198000", "182833.201000", "182833.203000", "182833.206000", "182833.208000", "182833.211000", "182833.213000", "182833.216000", "182833.218000", "182833.221000", "182833.223000", "182833.226000", "182913.145000", "182913.147000", "182913.150000", "182913.152000", "182913.164000", "182913.166000", "182913.169000", "182913.171000", "182913.174000", "182913.176000", "182913.179000", "182913.181000", "182913.184000", "182913.186000", "182913.189000", "182913.191000", "182913.194000", "182913.196000", "182913.199000", "182913.201000", "182913.204000", "182913.207000", "182913.210000", "182913.212000", "182913.215000", "182913.218000", "182913.221000", "182913.224000", "182913.227000", "182913.230000", "182913.232000", "182913.235000", "182913.238000", "182953.144000", "182953.147000", "182953.150000", "182953.152000", "182953.155000", "182953.157000", "182953.160000", "182953.163000", "182953.165000", "182953.168000", "182953.170000", "182953.173000", "182953.175000", "182953.178000", "182953.181000", "182953.183000", "182953.186000", "182953.188000", "182953.191000", "182953.193000", "182953.196000", "182953.198000", "182953.201000", "182953.203000", "182953.206000", "182953.209000", "182953.211000", "182953.214000", "182953.216000", "182953.219000", "182953.221000", "182953.224000", "182953.226000", "182953.229000", "183033.144000", "183033.147000", "183033.150000", "183033.152000", "183033.155000", "183033.157000", "183033.165000", "183033.168000", "183033.171000", "183033.173000", "183033.176000", "183033.178000", "183033.181000", "183033.183000", "183033.186000", "183033.189000", "183033.191000", "183033.194000", "183033.196000", "183033.199000", "183033.201000", "183033.204000", "183033.206000", "183033.209000", "183033.211000", "183033.214000", "183033.216000", "183033.219000", "183033.221000", "183033.224000", "183033.227000", "183033.229000", "183033.232000", "183113.145000", "183113.147000", "183113.150000", "183113.153000", "183113.155000", "183113.158000", "183113.160000", "183113.163000", "183113.165000", "183113.168000", "183113.170000", "183113.173000", "183113.176000", "183113.178000", "183113.181000", "183113.183000", "183113.186000", "183113.189000", "183113.191000", "183113.194000", "183113.196000", "183113.199000", "183113.201000", "183113.204000", "183113.207000", "183113.209000", "183113.212000", "183113.214000", "183113.217000", "183113.220000", "183113.222000", "183113.225000", "183113.227000", "183153.144000", "183153.147000", "183153.150000", "183153.152000", "183153.155000", "183153.158000", "183153.160000", "183153.163000", "183153.166000", "183153.168000", "183153.171000", "183153.173000", "183153.176000", "183153.178000", "183153.181000", "183153.183000", "183153.186000", "183153.189000", "183153.191000", "183153.194000", "183153.208000", "183153.211000", "183153.214000", "183153.216000", "183153.219000", "183153.221000", "183153.224000", "183153.226000", "183153.229000", "183153.232000", "183153.234000", "183153.237000", "183153.239000", "183153.242000", "183233.146000", "183233.149000", "183233.151000", "183233.154000", "183233.156000", "183233.159000", "183233.161000", "183233.164000", "183233.166000", "183233.169000", "183233.172000", "183233.174000", "183233.177000", "183233.179000", "183233.182000", "183233.184000", "183233.187000", "183233.190000", "183233.192000", "183233.195000", "183233.197000", "183233.200000", "183233.202000", "183233.205000", "183233.207000", "183233.210000", "183233.213000", "183233.215000", "183233.218000", "183233.226000", "183233.229000", "183233.231000", "183233.234000", "183313.145000", "183313.147000", "183313.150000", "183313.153000", "183313.155000", "183313.158000", "183313.160000", "183313.163000", "183313.165000", "183313.168000", "183313.171000", "183313.173000", "183313.176000", "183313.178000", "183313.181000", "183313.184000", "183313.186000", "183313.189000", "183313.191000", "183313.194000", "183313.197000", "183313.199000", "183313.202000", "183313.204000", "183313.207000", "183313.209000", "183313.212000", "183313.215000", "183313.217000", "183313.220000", "183313.223000", "183313.225000", "183313.228000", "183353.145000", "183353.147000", "183353.150000", "183353.153000", "183353.155000", "183353.158000", "183353.160000", "183353.163000", "183353.165000", "183353.168000", "183353.170000", "183353.173000", "183353.176000", "183353.178000", "183353.181000", "183353.184000", "183353.186000", "183353.189000", "183353.191000", "183353.194000", "183353.196000", "183353.199000", "183353.202000", "183353.204000", "183353.207000", "183353.209000", "183353.212000", "183353.214000", "183353.217000", "183353.220000", "183353.223000", "183353.225000", "183353.228000", "183353.231000", "183412.095000", "183412.098000", "183412.101000", "183412.103000", "183412.106000", "183412.108000", "183412.111000", "183412.114000", "183412.116000", "183412.119000", "183412.121000", "183412.124000", "183412.127000", "183412.129000", "183412.132000", "183412.134000"],
      "InstanceCreationTime": ["182653.149000", "182653.158000", "182653.160000", "182653.163000", "182653.165000", "182653.168000", "182653.170000", "182653.173000", "182653.178000", "182653.181000", "182653.183000", "182653.186000", "182653.188000", "182653.191000", "182653.194000", "182653.197000", "182653.199000", "182653.202000", "182653.204000", "182653.207000", "182653.209000", "182653.212000", "182653.225000", "182653.228000", "182653.230000", "182653.233000", "182713.145000", "182713.147000", "182713.150000", "182713.152000", "182713.155000", "182713.157000", "182713.160000", "182713.163000", "182713.165000", "182713.168000", "182713.170000", "182713.173000", "182713.175000", "182713.178000", "182713.180000", "182713.183000", "182753.145000", "182753.148000", "182753.151000", "182753.153000", "182753.156000", "182753.159000", "182753.161000", "182753.164000", "182753.166000", "182753.169000", "182753.172000", "182753.174000", "182753.177000", "182753.179000", "182753.182000", "182753.185000", "182753.187000", "182753.190000", "182753.192000", "182753.195000", "182753.197000", "182753.200000", "182753.203000", "182753.221000", "182753.223000", "182753.226000", "182753.228000", "182753.231000", "182753.234000", "182753.236000", "182753.239000", "182753.242000", "182753.244000", "182753.247000", "182833.144000", "182833.147000", "182833.150000", "182833.152000", "182833.155000", "182833.157000", "182833.160000", "182833.163000", "182833.165000", "182833.168000", "182833.170000", "182833.173000", "182833.175000", "182833.178000", "182833.180000", "182833.183000", "182833.185000", "182833.188000", "182833.191000", "182833.193000", "182833.196000", "182833.198000", "182833.201000", "182833.203000", "182833.206000", "182833.208000", "182833.211000", "182833.213000", "182833.216000", "182833.218000", "182833.221000", "182833.223000", "182833.226000", "182913.145000", "182913.147000", "182913.150000", "182913.152000", "182913.164000", "182913.166000", "182913.169000", "182913.171000", "182913.174000", "182913.176000", "182913.179000", "182913.181000", "182913.184000", "182913.186000", "182913.189000", "182913.191000", "182913.194000", "182913.196000", "182913.199000", "182913.201000", "182913.204000", "182913.207000", "182913.210000", "182913.212000", "182913.215000", "182913.218000", "182913.221000", "182913.224000", "182913.227000", "182913.230000", "182913.232000", "182913.235000", "182913.238000", "182953.144000", "182953.147000", "182953.150000", "182953.152000", "182953.155000", "182953.157000", "182953.160000", "182953.163000", "182953.165000", "182953.168000", "182953.170000", "182953.173000", "182953.175000", "182953.178000", "182953.181000", "182953.183000", "182953.186000", "182953.188000", "182953.191000", "182953.193000", "182953.196000", "182953.198000", "182953.201000", "182953.203000", "182953.206000", "182953.209000", "182953.211000", "182953.214000", "182953.216000", "182953.219000", "182953.221000", "182953.224000", "182953.226000", "182953.229000", "183033.144000", "183033.147000", "183033.150000", "183033.152000", "183033.155000", "183033.157000", "183033.165000", "183033.168000", "183033.171000", "183033.173000", "183033.176000", "183033.178000", "183033.181000", "183033.183000", "183033.186000", "183033.189000", "183033.191000", "183033.194000", "183033.196000", "183033.199000", "183033.201000", "183033.204000", "183033.206000", "183033.209000", "183033.211000", "183033.214000", "183033.216000", "183033.219000", "183033.221000", "183033.224000", "183033.227000", "183033.229000", "183033.232000", "183113.145000", "183113.147000", "183113.150000", "183113.153000", "183113.155000", "183113.158000", "183113.160000", "183113.163000", "183113.165000", "183113.168000", "183113.170000", "183113.173000", "183113.176000", "183113.178000", "183113.181000", "183113.183000", "183113.186000", "183113.189000", "183113.191000", "183113.194000", "183113.196000", "183113.199000", "183113.201000", "183113.204000", "183113.207000", "183113.209000", "183113.212000", "183113.214000", "183113.217000", "183113.220000", "183113.222000", "183113.225000", "183113.227000", "183153.144000", "183153.147000", "183153.150000", "183153.152000", "183153.155000", "183153.158000", "183153.160000", "183153.163000", "183153.166000", "183153.168000", "183153.171000", "183153.173000", "183153.176000", "183153.178000", "183153.181000", "183153.183000", "183153.186000", "183153.189000", "183153.191000", "183153.194000", "183153.208000", "183153.211000", "183153.214000", "183153.216000", "183153.219000", "183153.221000", "183153.224000", "183153.226000", "183153.229000", "183153.232000", "183153.234000", "183153.237000", "183153.239000", "183153.242000", "183233.146000", "183233.149000", "183233.151000", "183233.154000", "183233.156000", "183233.159000", "183233.161000", "183233.164000", "183233.166000", "183233.169000", "183233.172000", "183233.174000", "183233.177000", "183233.179000", "183233.182000", "183233.184000", "183233.187000", "183233.190000", "183233.192000", "183233.195000", "183233.197000", "183233.200000", "183233.202000", "183233.205000", "183233.207000", "183233.210000", "183233.213000", "183233.215000", "183233.218000", "183233.226000", "183233.229000", "183233.231000", "183233.234000", "183313.145000", "183313.147000", "183313.150000", "183313.153000", "183313.155000", "183313.158000", "183313.160000", "183313.163000", "183313.165000", "183313.168000", "183313.171000", "183313.173000", "183313.176000", "183313.178000", "183313.181000", "183313.184000", "183313.186000", "183313.189000", "183313.191000", "183313.194000", "183313.197000", "183313.199000", "183313.202000", "183313.204000", "183313.207000", "183313.209000", "183313.212000", "183313.215000", "183313.217000", "183313.220000", "183313.223000", "183313.225000", "183313.228000", "183353.145000", "183353.147000", "183353.150000", "183353.153000", "183353.155000", "183353.158000", "183353.160000", "183353.163000", "183353.165000", "183353.168000", "183353.170000", "183353.173000", "183353.176000", "183353.178000", "183353.181000", "183353.184000", "183353.186000", "183353.189000", "183353.191000", "183353.194000", "183353.196000", "183353.199000", "183353.202000", "183353.204000", "183353.207000", "183353.209000", "183353.212000", "183353.214000", "183353.217000", "183353.220000", "183353.223000", "183353.225000", "183353.228000", "183353.231000", "183412.095000", "183412.098000", "183412.101000", "183412.103000", "183412.106000", "183412.108000", "183412.111000", "183412.114000", "183412.116000", "183412.119000", "183412.121000", "183412.124000", "183412.127000", "183412.129000", "183412.132000", "183412.134000"],
      "InstanceNumber": [1, 2, 3, 4, 5, 6, 7, 8, 9, 10, 11, 12, 13, 14, 15, 16, 17, 18, 19, 20, 21, 22, 23, 24, 25, 26, 27, 28, 29, 30, 31, 32, 33, 34, 35, 36, 37, 38, 39, 40, 41, 42, 43, 44, 45, 46, 47, 48, 49, 50, 51, 52, 53, 54, 55, 56, 57, 58, 59, 60, 61, 62, 63, 64, 65, 66, 67, 68, 69, 70, 71, 72, 73, 74, 75, 76, 77, 78, 79, 80, 81, 82, 83, 84, 85, 86, 87, 88, 89, 90, 91, 92, 93, 94, 95, 96, 97, 98, 99, 100, 101, 102, 103, 104, 105, 106, 107, 108, 109, 110, 111, 112, 113, 114, 115, 116, 117, 118, 119, 120, 121, 122, 123, 124, 125, 126, 127, 128, 129, 130, 131, 132, 133, 134, 135, 136, 137, 138, 139, 140, 141, 142, 143, 144, 145, 146, 147, 148, 149, 150, 151, 152, 153, 154, 155, 156, 157, 158, 159, 160, 161, 162, 163, 164, 165, 166, 167, 168, 169, 170, 171, 172, 173, 174, 175, 176, 177, 178, 179, 180, 181, 182, 183, 184, 185, 186, 187, 188, 189, 190, 191, 192, 193, 194, 195, 196, 197, 198, 199, 200, 201, 202, 203, 204, 205, 206, 207, 208, 209, 210, 211, 212, 213, 214, 215, 216, 217, 218, 219, 220, 221, 222, 223, 224, 225, 226, 227, 228, 229, 230, 231, 232, 233, 234, 235, 236, 237, 238, 239, 240, 241, 242, 243, 244, 245, 246, 247, 248, 249, 250, 251, 252, 253, 254, 255, 256, 257, 258, 259, 260, 261, 262, 263, 264, 265, 266, 267, 268, 269, 270, 271, 272, 273, 274, 275, 276, 277, 278, 279, 280, 281, 282, 283, 284, 285, 286, 287, 288, 289, 290, 291, 292, 293, 294, 295, 296, 297, 298, 299, 300, 301, 302, 303, 304, 305, 306, 307, 308, 309, 310, 311, 312, 313, 314, 315, 316, 317, 318, 319, 320, 321, 322, 323, 324, 325, 326, 327, 328, 329, 330, 331, 332, 333, 334, 335, 336, 337, 338, 339, 340, 341, 342, 343, 344, 345, 346, 347, 348, 349, 350, 351, 352, 353, 354, 355, 356, 357, 358, 359, 360, 361, 362, 363, 364, 365, 366, 367, 368, 369, 370, 371, 372, 373, 374, 375, 376, 377, 378, 379, 380, 381, 382, 383, 384, 385, 386, 387, 388, 389, 390, 391, 392],
