{
  "AcquisitionMatrixPE": 88,
  "AcquisitionNumber": 1,
  "AcquisitionTime": "18:34:51.725000",
  "BandwidthPerPixelPhaseEncode": 19.592,
  "BaseResolution": 88,
  "BodyPartExamined": "BRAIN",
  "ConsistencyInfo": "N4_VE11C_LATEST_20160120",
  "ConversionSoftware": "dcm2niix",
  "ConversionSoftwareVersion": "v1.0.20190902",
  "DerivedVendorReportedEchoSpacing": 0.000580014,
  "DeviceSerialNumber": "67050",
  "DwellTime": 2.6e-06,
  "EchoTime": 0.033,
  "EchoTrainLength": 88,
  "EffectiveEchoSpacing": 0.000580014,
  "FlipAngle": 62,
  "ImageOrientationPatientDICOM": [0.9985, 0.0543661, 0.00641502, -0.0546012, 0.997484, 0.0452209],
  "ImageType": [
    "ORIGINAL",
    "PRIMARY",
    "M",
    "ND",
    "MOSAIC"
],
  "ImagingFrequency": 123.251,
  "InPlanePhaseEncodingDirectionDICOM": "COL",
  "InstitutionAddress": "Olive_Street_60_Providence_RI_US_02912",
  "InstitutionName": "BROWN_UNIVERSITY_MRF",
  "InstitutionalDepartmentName": "Department",
  "MRAcquisitionType": "2D",
  "MagneticFieldStrength": 3,
  "Manufacturer": "Siemens",
  "ManufacturersModelName": "Prisma_fit",
  "Modality": "MR",
  "MultibandAccelerationFactor": 4,
  "PartialFourier": 1,
  "PatientPosition": "HFS",
  "PercentPhaseFOV": 100,
  "PhaseEncodingDirection": "j-",
  "PhaseEncodingSteps": 88,
  "PhaseResolution": 1,
  "PixelBandwidth": 2185,
  "ProcedureStepDescription": "ASHENHAV_1222",
  "ProtocolName": "func-bold_task-RDMmotion_run-05",
  "PulseSequenceDetails": "%SiemensSeq%_ep2d_bold",
  "ReceiveCoilActiveElements": "HC3-7;NC1",
  "ReceiveCoilName": "HeadNeck_64",
  "ReconMatrixPE": 88,
  "RefLinesPE": 8,
  "RepetitionTime": 1.2,
  "SAR": 0.0452555,
  "ScanOptions": "FS",
  "ScanningSequence": "EP",
  "SequenceName": "_epfid2d1_88",
  "SequenceVariant": "SK",
  "SeriesDescription": "func-bold_task-RDMmotion_run-05",
  "SeriesNumber": 15,
  "ShimSetting": [1757, -9231, 4402, 858, -28, -297, 415, -38],
  "SliceThickness": 2.4,
  "SliceTiming": [0.55, 0, 0.63, 0.0775, 0.7075, 0.1575, 0.7875, 0.235, 0.865, 0.315, 0.945, 0.3925, 1.0225, 0.4725, 1.1, 0.55, 0, 0.63, 0.0775, 0.7075, 0.1575, 0.7875, 0.235, 0.865, 0.315, 0.945, 0.3925, 1.0225, 0.4725, 1.1, 0.55, 0, 0.63, 0.0775, 0.7075, 0.1575, 0.7875, 0.235, 0.865, 0.315, 0.945, 0.3925, 1.0225, 0.4725, 1.1, 0.55, 0, 0.63, 0.0775, 0.7075, 0.1575, 0.7875, 0.235, 0.865, 0.315, 0.945, 0.3925, 1.0225, 0.4725, 1.1],
  "SoftwareVersions": "syngo_MR_E11",
  "SpacingBetweenSlices": 2.4,
  "StationName": "AWP67050",
  "TaskName": "RDMmotion",
  "TotalReadoutTime": 0.0504612,
  "TxRefAmp": 220.458,
  "dcmmeta_affine": [
    [-2.394131660461426, -0.13091884553432465, 0.009456954896450043, 113.38870239257812],
    [-0.13035497069358826, 2.3916938304901123, 0.10920804738998413, -99.42579650878906],
    [0.015381471253931522, -0.10842736810445786, 2.3974955081939697, -69.23463439941406],
    [0.0, 0.0, 0.0, 1.0]
],
  "dcmmeta_reorient_transform": [
    [0.0, -1.0, 0.0, 87.0],
    [1.0, 0.0, 0.0, 0.0],
    [0.0, 0.0, 1.0, 0.0],
    [0.0, 0.0, 0.0, 1.0]
],
  "dcmmeta_shape": [88, 88, 60, 125],
  "dcmmeta_slice_dim": 2,
  "dcmmeta_version": 0.6,
  "global": {
    "const": {
      "AcquisitionMatrix": [88, 0, 0, 88],
      "AngioFlag": "N",
      "BitsAllocated": 16,
      "BitsStored": 12,
      "BodyPartExamined": "BRAIN",
      "Columns": 704,
      "DeidentificationMethodCodeSequence": [
        {
          "CodeMeaning": "XNAT DicomEdit 6 Script",
          "CodeValue": "3",
          "CodingSchemeDesignator": "XNAT",
          "CodingSchemeVersion": "1.0"}
],
      "EchoNumbers": 1,
      "EchoTime": 33.0,
      "EchoTrainLength": 88,
      "FlipAngle": 62.0,
      "HighBit": 11,
      "ImageOrientationPatient": [0.99850046546106, 0.05436605537179, 0.00641502122779, -0.0546012247166, 0.9974837226786, 0.04522089396158],
      "ImagePositionPatient": [-799.06834590972, -885.44262855206, -116.80094212842],
      "ImageType": [
        "ORIGINAL",
        "PRIMARY",
        "M",
        "ND",
        "MOSAIC"
],
      "ImagedNucleus": "1H",
      "ImagingFrequency": 123.250803,
      "InPlanePhaseEncodingDirection": "COL",
      "MRAcquisitionType": "2D",
      "MagneticFieldStrength": 3.0,
      "Manufacturer": "SIEMENS",
      "ManufacturerModelName": "Prisma_fit",
      "Modality": "MR",
      "NumberOfAverages": 1.0,
      "NumberOfPhaseEncodingSteps": 88,
      "PercentPhaseFieldOfView": 100.0,
      "PercentSampling": 100.0,
      "PerformedProcedureStepStartTime": "172520.650000",
      "PhotometricInterpretation": "MONOCHROME2",
      "PixelBandwidth": 2185.0,
      "PixelRepresentation": 0,
      "PixelSpacing": [2.3977272510529, 2.3977272510529],
      "ProtocolName": "func-bold_task-RDMmotion_run-05",
      "RepetitionTime": 1200.0,
      "Rows": 704,
      "SAR": 0.04525553757627,
      "SamplesPerPixel": 1,
      "ScanOptions": "FS",
      "ScanningSequence": "EP",
      "SequenceName": "*epfid2d1_88",
      "SequenceVariant": "SK",
      "SeriesDescription": "func-bold_task-RDMmotion_run-05",
      "SeriesNumber": 15,
      "SeriesTime": "183521.535000",
      "SliceLocation": -73.239796029028,
      "SliceThickness": 2.4000000953674,
      "SmallestImagePixelValue": 0,
      "SoftwareVersions": "syngo MR E11",
      "SpacingBetweenSlices": 2.4000000683899,
      "SpecificCharacterSet": "ISO_IR 100",
      "StudyID": "1",
      "StudyTime": "172520.512000",
      "TransmitCoilName": "Body",
      "VariableFlipAngleFlag": "N",
      "WindowCenterWidthExplanation": "Algo1",
      "dBdt": 0.0},
    "slices": {}
  },
  "time": {
    "samples": {
      "AcquisitionNumber": [1, 2, 3, 4, 5, 6, 7, 8, 9, 10, 11, 12, 13, 14, 15, 16, 17, 18, 19, 20, 21, 22, 23, 24, 25, 26, 27, 28, 29, 30, 31, 32, 33, 34, 35, 36, 37, 38, 39, 40, 41, 42, 43, 44, 45, 46, 47, 48, 49, 50, 51, 52, 53, 54, 55, 56, 57, 58, 59, 60, 61, 62, 63, 64, 65, 66, 67, 68, 69, 70, 71, 72, 73, 74, 75, 76, 77, 78, 79, 80, 81, 82, 83, 84, 85, 86, 87, 88, 89, 90, 91, 92, 93, 94, 95, 96, 97, 98, 99, 100, 101, 102, 103, 104, 105, 106, 107, 108, 109, 110, 111, 112, 113, 114, 115, 116, 117, 118, 119, 120, 121, 122, 123, 124, 125],
      "AcquisitionTime": ["183451.725000", "183452.925000", "183454.125000", "183455.325000", "183456.525000", "183457.725000", "183458.925000", "183500.125000", "183501.325000", "183502.525000", "183503.725000", "183504.925000", "183506.125000", "183507.325000", "183508.525000", "183509.725000", "183510.925000", "183512.125000", "183513.325000", "183514.525000", "183515.725000", "183516.925000", "183518.125000", "183519.325000", "183520.525000", "183521.725000", "183522.925000", "183524.125000", "183525.325000", "183526.525000", "183527.725000", "183528.925000", "183530.125000", "183531.325000", "183532.525000", "183533.725000", "183534.925000", "183536.125000", "183537.325000", "183538.525000", "183539.725000", "183540.925000", "183542.125000", "183543.325000", "183544.525000", "183545.725000", "183546.925000", "183548.125000", "183549.325000", "183550.525000", "183551.725000", "183552.925000", "183554.125000", "183555.325000", "183556.525000", "183557.725000", "183558.925000", "183600.125000", "183601.325000", "183602.525000", "183603.725000", "183604.925000", "183606.125000", "183607.325000", "183608.525000", "183609.725000", "183610.925000", "183612.125000", "183613.325000", "183614.525000", "183615.725000", "183616.925000", "183618.125000", "183619.325000", "183620.525000", "183621.725000", "183622.925000", "183624.125000", "183625.325000", "183626.525000", "183627.725000", "183628.925000", "183630.125000", "183631.325000", "183632.525000", "183633.725000", "183634.925000", "183636.125000", "183637.325000", "183638.525000", "183639.725000", "183640.925000", "183642.125000", "183643.325000", "183644.525000", "183645.725000", "183646.925000", "183648.125000", "183649.325000", "183650.525000", "183651.725000", "183652.925000", "183654.125000", "183655.325000", "183656.525000", "183657.725000", "183658.925000", "183700.125000", "183701.325000", "183702.525000", "183703.725000", "183704.925000", "183706.125000", "183707.325000", "183708.525000", "183709.725000", "183710.925000", "183712.125000", "183713.325000", "183714.525000", "183715.725000", "183716.925000", "183718.125000", "183719.325000", "183720.525000"],
      "ContentTime": ["183521.539000", "183521.542000", "183521.552000", "183521.555000", "183521.557000", "183521.563000", "183521.565000", "183521.568000", "183521.570000", "183521.573000", "183521.575000", "183521.578000", "183521.580000", "183521.587000", "183521.589000", "183521.592000", "183521.594000", "183521.597000", "183521.599000", "183521.602000", "183521.604000", "183521.607000", "183521.609000", "183521.612000", "183601.534000", "183601.537000", "183601.552000", "183601.555000", "183601.557000", "183601.560000", "183601.563000", "183601.565000", "183601.568000", "183601.570000", "183601.573000", "183601.575000", "183601.578000", "183601.580000", "183601.583000", "183601.585000", "183601.588000", "183601.591000", "183601.593000", "183601.596000", "183601.598000", "183601.601000", "183601.604000", "183601.606000", "183601.611000", "183601.614000", "183601.617000", "183601.619000", "183601.622000", "183601.625000", "183601.627000", "183601.630000", "183601.633000", "183641.534000", "183641.537000", "183641.540000", "183641.542000", "183641.545000", "183641.548000", "183641.550000", "183641.553000", "183641.555000", "183641.558000", "183641.560000", "183641.563000", "183641.565000", "183641.568000", "183641.570000", "183641.573000", "183641.575000", "183641.578000", "183641.580000", "183641.583000", "183641.586000", "183641.588000", "183641.591000", "183641.593000", "183641.596000", "183641.598000", "183641.601000", "183641.603000", "183641.606000", "183641.608000", "183641.611000", "183641.613000", "183641.616000", "183641.619000", "183721.535000", "183721.537000", "183721.540000", "183721.543000", "183721.545000", "183721.548000", "183721.550000", "183721.553000", "183721.555000", "183721.558000", "183721.560000", "183721.563000", "183721.591000", "183721.594000", "183721.596000", "183721.599000", "183721.602000", "183721.604000", "183721.607000", "183721.610000", "183721.612000", "183721.615000", "183721.618000", "183721.620000", "183721.623000", "183721.625000", "183721.628000", "183721.631000", "183721.633000", "183721.636000", "183721.638000", "183721.641000", "183721.643000", "183722.064000"],
      "InstanceCreationTime": ["183521.539000", "183521.542000", "183521.552000", "183521.555000", "183521.557000", "183521.563000", "183521.565000", "183521.568000", "183521.570000", "183521.573000", "183521.575000", "183521.578000", "183521.580000", "183521.587000", "183521.589000", "183521.592000", "183521.594000", "183521.597000", "183521.599000", "183521.602000", "183521.604000", "183521.607000", "183521.609000", "183521.612000", "183601.534000", "183601.537000", "183601.552000", "183601.555000", "183601.557000", "183601.560000", "183601.563000", "183601.565000", "183601.568000", "183601.570000", "183601.573000", "183601.575000", "183601.578000", "183601.580000", "183601.583000", "183601.585000", "183601.588000", "183601.591000", "183601.593000", "183601.596000", "183601.598000", "183601.601000", "183601.604000", "183601.606000", "183601.611000", "183601.614000", "183601.617000", "183601.619000", "183601.622000", "183601.625000", "183601.627000", "183601.630000", "183601.633000", "183641.534000", "183641.537000", "183641.540000", "183641.542000", "183641.545000", "183641.548000", "183641.550000", "183641.553000", "183641.555000", "183641.558000", "183641.560000", "183641.563000", "183641.565000", "183641.568000", "183641.570000", "183641.573000", "183641.575000", "183641.578000", "183641.580000", "183641.583000", "183641.586000", "183641.588000", "183641.591000", "183641.593000", "183641.596000", "183641.598000", "183641.601000", "183641.603000", "183641.606000", "183641.608000", "183641.611000", "183641.613000", "183641.616000", "183641.619000", "183721.535000", "183721.537000", "183721.540000", "183721.543000", "183721.545000", "183721.548000", "183721.550000", "183721.553000", "183721.555000", "183721.558000", "183721.560000", "183721.563000", "183721.591000", "183721.594000", "183721.596000", "183721.599000", "183721.602000", "183721.604000", "183721.607000", "183721.610000", "183721.612000", "183721.615000", "183721.618000", "183721.620000", "183721.623000", "183721.625000", "183721.628000", "183721.631000", "183721.633000", "183721.636000", "183721.638000", "183721.641000", "183721.643000", "183722.064000"],
      "InstanceNumber": [1, 2, 3, 4, 5, 6, 7, 8, 9, 10, 11, 12, 13, 14, 15, 16, 17, 18, 19, 20, 21, 22, 23, 24, 25, 26, 27, 28, 29, 30, 31, 32, 33, 34, 35, 36, 37, 38, 39, 40, 41, 42, 43, 44, 45, 46, 47, 48, 49, 50, 51, 52, 53, 54, 55, 56, 57, 58, 59, 60, 61, 62, 63, 64, 65, 66, 67, 68, 69, 70, 71, 72, 73, 74, 75, 76, 77, 78, 79, 80, 81, 82, 83, 84, 85, 86, 87, 88, 89, 90, 91, 92, 93, 94, 95, 96, 97, 98, 99, 100, 101, 102, 103, 104, 105, 106, 107, 108, 109, 110, 111, 112, 113, 114, 115, 116, 117, 118, 119, 120, 121, 122, 123, 124, 125],
      "LargestImagePixelValue": [2137, 2117, 2107, 2118, 2105, 2119, 2135, 2137, 2170, 2108, 2095, 2130, 2115, 2115, 2101, 2080, 2105, 2082, 2146, 2161, 2110, 2130, 2101, 2127, 2145, 2151, 2146, 2125, 2124, 2136, 2145, 2119, 2110, 2116, 2118, 2121, 2124, 2101, 2086, 2155, 2132, 2122, 2098, 2068, 2099, 2105, 2093, 2100, 2095, 2072, 2103, 2128, 2149, 2130, 2116, 2079, 2116, 2120, 2115, 2093, 2103, 2158, 2116, 2109, 2137, 2131, 2108, 2116, 2113, 2151, 2115, 2143, 2135, 2151, 2121, 2085, 2090, 2113, 2131, 2106, 2096, 2104, 2115, 2081, 2083, 2119, 2094, 2153, 2132, 2131, 2101, 2094, 2125, 2120, 2108, 2126, 2109, 2154, 2128, 2143, 2147, 2122, 2121, 2141, 2087, 2083, 2106, 2113, 2079, 2118, 2127, 2110, 2127, 2153, 2109, 2109, 2131, 2111, 2155, 2131, 2063, 2084, 2087, 2076, 2094],
      "WindowCenter": [578.0, 576.0, 575.0, 576.0, 575.0, 576.0, 576.0, 576.0, 576.0, 574.0, 575.0, 575.0, 575.0, 575.0, 574.0, 574.0, 574.0, 574.0, 575.0, 575.0, 574.0, 575.0, 576.0, 577.0, 576.0, 575.0, 574.0, 573.0, 573.0, 574.0, 574.0, 574.0, 574.0, 574.0, 574.0, 574.0, 574.0, 574.0, 574.0, 575.0, 574.0, 573.0, 574.0, 573.0, 574.0, 574.0, 574.0, 574.0, 574.0, 574.0, 576.0, 576.0, 576.0, 576.0, 575.0, 574.0, 574.0, 574.0, 575.0, 575.0, 575.0, 576.0, 575.0, 575.0, 575.0, 575.0, 576.0, 576.0, 576.0, 576.0, 575.0, 575.0, 575.0, 574.0, 574.0, 573.0, 574.0, 574.0, 574.0, 574.0, 574.0, 574.0, 575.0, 574.0, 574.0, 575.0, 576.0, 576.0, 575.0, 576.0, 575.0, 575.0, 576.0, 576.0, 576.0, 576.0, 576.0, 577.0, 577.0, 576.0, 576.0, 575.0, 575.0, 575.0, 574.0, 574.0, 574.0, 575.0, 574.0, 575.0, 574.0, 575.0, 575.0, 576.0, 575.0, 576.0, 577.0, 575.0, 574.0, 573.0, 572.0, 573.0, 572.0, 573.0, 575.0],
      "WindowWidth": [1238.0, 1233.0, 1231.0, 1233.0, 1232.0, 1234.0, 1234.0, 1234.0, 1234.0, 1230.0, 1231.0, 1232.0, 1231.0, 1231.0, 1230.0, 1229.0, 1230.0, 1229.0, 1231.0, 1231.0, 1230.0, 1232.0, 1233.0, 1236.0, 1234.0, 1231.0, 1230.0, 1228.0, 1228.0, 1230.0, 1229.0, 1229.0, 1229.0, 1230.0, 1230.0, 1228.0, 1229.0, 1229.0, 1229.0, 1231.0, 1229.0, 1228.0, 1228.0, 1228.0, 1229.0, 1230.0, 1228.0, 1228.0, 1230.0, 1230.0, 1233.0, 1234.0, 1234.0, 1234.0, 1231.0, 1230.0, 1230.0, 1229.0, 1232.0, 1231.0, 1232.0, 1233.0, 1231.0, 1231.0, 1231.0, 1232.0, 1232.0, 1233.0, 1233.0, 1233.0, 1231.0, 1231.0, 1231.0, 1230.0, 1230.0, 1228.0, 1229.0, 1230.0, 1229.0, 1229.0, 1230.0, 1230.0, 1231.0, 1229.0, 1230.0, 1232.0, 1233.0, 1235.0, 1232.0, 1233.0, 1232.0, 1232.0, 1233.0, 1233.0, 1234.0, 1235.0, 1235.0, 1236.0, 1235.0, 1235.0, 1234.0, 1232.0, 1231.0, 1231.0, 1229.0, 1229.0, 1230.0, 1230.0, 1230.0, 1231.0, 1230.0, 1232.0, 1232.0, 1234.0, 1232.0, 1233.0, 1236.0, 1232.0, 1229.0, 1227.0, 1224.0, 1226.0, 1225.0, 1228.0, 1232.0]
    },
    "slices": {}
  }
}