{
  "AcquisitionMatrixPE": 88,
  "AcquisitionNumber": 1,
  "AcquisitionTime": "17:58:48.497500",
  "BandwidthPerPixelPhaseEncode": 19.592,
  "BaseResolution": 88,
  "BodyPartExamined": "BRAIN",
  "ConsistencyInfo": "N4_VE11C_LATEST_20160120",
  "ConversionSoftware": "dcm2niix",
  "ConversionSoftwareVersion": "v1.0.20190902",
  "DerivedVendorReportedEchoSpacing": 0.000580014,
  "DeviceSerialNumber": "67050",
  "DwellTime": 2.6e-06,
  "EchoTime": 0.033,
  "EchoTrainLength": 88,
  "EffectiveEchoSpacing": 0.000580014,
  "FlipAngle": 62,
  "ImageOrientationPatientDICOM": [0.9985, 0.0543661, 0.00641502, -0.0546012, 0.997484, 0.0452209],
  "ImageType": [
    "ORIGINAL",
    "PRIMARY",
    "M",
    "ND",
    "MOSAIC"
],
  "ImagingFrequency": 123.251,
  "InPlanePhaseEncodingDirectionDICOM": "COL",
  "InstitutionAddress": "Olive_Street_60_Providence_RI_US_02912",
  "InstitutionName": "BROWN_UNIVERSITY_MRF",
  "InstitutionalDepartmentName": "Department",
  "MRAcquisitionType": "2D",
  "MagneticFieldStrength": 3,
  "Manufacturer": "Siemens",
  "ManufacturersModelName": "Prisma_fit",
  "Modality": "MR",
  "MultibandAccelerationFactor": 4,
  "PartialFourier": 1,
  "PatientPosition": "HFS",
  "PercentPhaseFOV": 100,
  "PhaseEncodingDirection": "j-",
  "PhaseEncodingSteps": 88,
  "PhaseResolution": 1,
  "PixelBandwidth": 2185,
  "ProcedureStepDescription": "ASHENHAV_1222",
  "ProtocolName": "func-bold_task-RDMmotion_run-02",
  "PulseSequenceDetails": "%SiemensSeq%_ep2d_bold",
  "ReceiveCoilActiveElements": "HC3-7;NC1",
  "ReceiveCoilName": "HeadNeck_64",
  "ReconMatrixPE": 88,
  "RefLinesPE": 8,
  "RepetitionTime": 1.2,
  "SAR": 0.0452555,
  "ScanOptions": "FS",
  "ScanningSequence": "EP",
  "SequenceName": "_epfid2d1_88",
  "SequenceVariant": "SK",
  "SeriesDescription": "func-bold_task-RDMmotion_run-02",
  "SeriesNumber": 9,
  "ShimSetting": [1757, -9231, 4402, 858, -28, -297, 415, -38],
  "SliceThickness": 2.4,
  "SliceTiming": [0.55, 0, 0.63, 0.0775, 0.7075, 0.1575, 0.7875, 0.235, 0.865, 0.315, 0.9425, 0.3925, 1.0225, 0.4725, 1.1, 0.55, 0, 0.63, 0.0775, 0.7075, 0.1575, 0.7875, 0.235, 0.865, 0.315, 0.9425, 0.3925, 1.0225, 0.4725, 1.1, 0.55, 0, 0.63, 0.0775, 0.7075, 0.1575, 0.7875, 0.235, 0.865, 0.315, 0.9425, 0.3925, 1.0225, 0.4725, 1.1, 0.55, 0, 0.63, 0.0775, 0.7075, 0.1575, 0.7875, 0.235, 0.865, 0.315, 0.9425, 0.3925, 1.0225, 0.4725, 1.1],
  "SoftwareVersions": "syngo_MR_E11",
  "SpacingBetweenSlices": 2.4,
  "StationName": "AWP67050",
  "TaskName": "RDMmotion",
  "TotalReadoutTime": 0.0504612,
  "TxRefAmp": 220.458,
  "dcmmeta_affine": [
    [-2.394131660461426, -0.13091884553432465, 0.009456954896450043, 113.38870239257812],
    [-0.13035497069358826, 2.3916938304901123, 0.10920804738998413, -99.42579650878906],
    [0.015381471253931522, -0.10842736810445786, 2.3974955081939697, -69.23463439941406],
    [0.0, 0.0, 0.0, 1.0]
],
  "dcmmeta_reorient_transform": [
    [0.0, -1.0, 0.0, 87.0],
    [1.0, 0.0, 0.0, 0.0],
    [0.0, 0.0, 1.0, 0.0],
    [0.0, 0.0, 0.0, 1.0]
],
  "dcmmeta_shape": [88, 88, 60, 125],
  "dcmmeta_slice_dim": 2,
  "dcmmeta_version": 0.6,
  "global": {
    "const": {
      "AcquisitionMatrix": [88, 0, 0, 88],
      "AngioFlag": "N",
      "BitsAllocated": 16,
      "BitsStored": 12,
      "BodyPartExamined": "BRAIN",
      "Columns": 704,
      "DeidentificationMethodCodeSequence": [
        {
          "CodeMeaning": "XNAT DicomEdit 6 Script",
          "CodeValue": "3",
          "CodingSchemeDesignator": "XNAT",
          "CodingSchemeVersion": "1.0"}
],
      "EchoNumbers": 1,
      "EchoTime": 33.0,
      "EchoTrainLength": 88,
      "FlipAngle": 62.0,
      "HighBit": 11,
      "ImageOrientationPatient": [0.99850046546106, 0.05436605537179, 0.00641502122779, -0.0546012247166, 0.9974837226786, 0.04522089396158],
      "ImagePositionPatient": [-799.06834590972, -885.44262855206, -116.80094212842],
      "ImageType": [
        "ORIGINAL",
        "PRIMARY",
        "M",
        "ND",
        "MOSAIC"
],
      "ImagedNucleus": "1H",
      "ImagingFrequency": 123.250789,
      "InPlanePhaseEncodingDirection": "COL",
      "MRAcquisitionType": "2D",
      "MagneticFieldStrength": 3.0,
      "Manufacturer": "SIEMENS",
      "ManufacturerModelName": "Prisma_fit",
      "Modality": "MR",
      "NumberOfAverages": 1.0,
      "NumberOfPhaseEncodingSteps": 88,
      "PercentPhaseFieldOfView": 100.0,
      "PercentSampling": 100.0,
      "PerformedProcedureStepStartTime": "172520.650000",
      "PhotometricInterpretation": "MONOCHROME2",
      "PixelBandwidth": 2185.0,
      "PixelRepresentation": 0,
      "PixelSpacing": [2.3977272510529, 2.3977272510529],
      "ProtocolName": "func-bold_task-RDMmotion_run-02",
      "RepetitionTime": 1200.0,
      "Rows": 704,
      "SAR": 0.04525553757627,
      "SamplesPerPixel": 1,
      "ScanOptions": "FS",
      "ScanningSequence": "EP",
      "SequenceName": "*epfid2d1_88",
      "SequenceVariant": "SK",
      "SeriesDescription": "func-bold_task-RDMmotion_run-02",
      "SeriesNumber": 9,
      "SeriesTime": "175921.535000",
      "SliceLocation": -73.239796029028,
      "SliceThickness": 2.4000000953674,
      "SmallestImagePixelValue": 0,
      "SoftwareVersions": "syngo MR E11",
      "SpacingBetweenSlices": 2.4000000683899,
      "SpecificCharacterSet": "ISO_IR 100",
      "StudyID": "1",
      "StudyTime": "172520.512000",
      "TransmitCoilName": "Body",
      "VariableFlipAngleFlag": "N",
      "WindowCenterWidthExplanation": "Algo1",
      "dBdt": 0.0},
    "slices": {}
  },
  "time": {
    "samples": {
      "AcquisitionNumber": [1, 2, 3, 4, 5, 6, 7, 8, 9, 10, 11, 12, 13, 14, 15, 16, 17, 18, 19, 20, 21, 22, 23, 24, 25, 26, 27, 28, 29, 30, 31, 32, 33, 34, 35, 36, 37, 38, 39, 40, 41, 42, 43, 44, 45, 46, 47, 48, 49, 50, 51, 52, 53, 54, 55, 56, 57, 58, 59, 60, 61, 62, 63, 64, 65, 66, 67, 68, 69, 70, 71, 72, 73, 74, 75, 76, 77, 78, 79, 80, 81, 82, 83, 84, 85, 86, 87, 88, 89, 90, 91, 92, 93, 94, 95, 96, 97, 98, 99, 100, 101, 102, 103, 104, 105, 106, 107, 108, 109, 110, 111, 112, 113, 114, 115, 116, 117, 118, 119, 120, 121, 122, 123, 124, 125],
      "AcquisitionTime": ["175848.497500", "175849.697500", "175850.897500", "175852.097500", "175853.297500", "175854.497500", "175855.697500", "175856.897500", "175858.097500", "175859.297500", "175900.497500", "175901.697500", "175902.897500", "175904.097500", "175905.297500", "175906.497500", "175907.697500", "175908.897500", "175910.097500", "175911.297500", "175912.497500", "175913.697500", "175914.897500", "175916.097500", "175917.297500", "175918.497500", "175919.697500", "175920.897500", "175922.097500", "175923.297500", "175924.497500", "175925.697500", "175926.897500", "175928.097500", "175929.297500", "175930.497500", "175931.697500", "175932.897500", "175934.097500", "175935.297500", "175936.497500", "175937.697500", "175938.897500", "175940.097500", "175941.297500", "175942.497500", "175943.697500", "175944.897500", "175946.097500", "175947.297500", "175948.497500", "175949.697500", "175950.897500", "175952.097500", "175953.297500", "175954.497500", "175955.697500", "175956.897500", "175958.097500", "175959.297500", "180000.497500", "180001.697500", "180002.897500", "180004.097500", "180005.297500", "180006.497500", "180007.697500", "180008.897500", "180010.097500", "180011.297500", "180012.497500", "180013.697500", "180014.897500", "180016.097500", "180017.297500", "180018.497500", "180019.697500", "180020.897500", "180022.097500", "180023.297500", "180024.497500", "180025.697500", "180026.897500", "180028.097500", "180029.297500", "180030.497500", "180031.697500", "180032.897500", "180034.097500", "180035.297500", "180036.497500", "180037.697500", "180038.897500", "180040.097500", "180041.297500", "180042.497500", "180043.697500", "180044.897500", "180046.097500", "180047.297500", "180048.497500", "180049.697500", "180050.897500", "180052.097500", "180053.297500", "180054.497500", "180055.697500", "180056.897500", "180058.097500", "180059.297500", "180100.497500", "180101.697500", "180102.897500", "180104.097500", "180105.297500", "180106.497500", "180107.697500", "180108.897500", "180110.097500", "180111.297500", "180112.497500", "180113.697500", "180114.897500", "180116.097500", "180117.297500"],
      "ContentTime": ["175921.539000", "175921.542000", "175921.544000", "175921.552000", "175921.555000", "175921.557000", "175921.560000", "175921.562000", "175921.565000", "175921.568000", "175921.570000", "175921.573000", "175921.576000", "175921.579000", "175921.582000", "175921.585000", "175921.587000", "175921.590000", "175921.592000", "175921.602000", "175921.604000", "175921.607000", "175921.610000", "175921.612000", "175921.615000", "175921.617000", "180001.535000", "180001.537000", "180001.540000", "180001.543000", "180001.545000", "180001.548000", "180001.550000", "180001.553000", "180001.555000", "180001.558000", "180001.561000", "180001.563000", "180001.566000", "180001.568000", "180001.571000", "180001.573000", "180001.576000", "180001.578000", "180001.581000", "180001.583000", "180001.586000", "180001.588000", "180001.591000", "180001.593000", "180001.596000", "180001.598000", "180001.601000", "180001.603000", "180001.606000", "180001.609000", "180001.611000", "180001.614000", "180001.616000", "180001.619000", "180041.534000", "180041.537000", "180041.540000", "180041.542000", "180041.545000", "180041.548000", "180041.550000", "180041.553000", "180041.555000", "180041.558000", "180041.560000", "180041.563000", "180041.565000", "180041.568000", "180041.571000", "180041.573000", "180041.576000", "180041.578000", "180041.581000", "180041.583000", "180041.586000", "180041.588000", "180041.591000", "180041.594000", "180041.596000", "180041.599000", "180041.601000", "180041.604000", "180041.606000", "180041.609000", "180041.611000", "180041.614000", "180041.617000", "180119.236000", "180119.239000", "180119.242000", "180119.244000", "180119.247000", "180119.249000", "180119.252000", "180119.254000", "180119.257000", "180119.259000", "180119.262000", "180119.269000", "180119.272000", "180119.274000", "180119.277000", "180119.280000", "180119.282000", "180119.285000", "180119.287000", "180119.290000", "180119.292000", "180119.295000", "180119.298000", "180119.300000", "180119.303000", "180119.316000", "180119.319000", "180119.322000", "180119.324000", "180119.327000", "180119.329000", "180119.332000"],
      "InstanceCreationTime": ["175921.539000", "175921.542000", "175921.544000", "175921.552000", "175921.555000", "175921.557000", "175921.560000", "175921.562000", "175921.565000", "175921.568000", "175921.570000", "175921.573000", "175921.576000", "175921.579000", "175921.582000", "175921.585000", "175921.587000", "175921.590000", "175921.592000", "175921.602000", "175921.604000", "175921.607000", "175921.610000", "175921.612000", "175921.615000", "175921.617000", "180001.535000", "180001.537000", "180001.540000", "180001.543000", "180001.545000", "180001.548000", "180001.550000", "180001.553000", "180001.555000", "180001.558000", "180001.561000", "180001.563000", "180001.566000", "180001.568000", "180001.571000", "180001.573000", "180001.576000", "180001.578000", "180001.581000", "180001.583000", "180001.586000", "180001.588000", "180001.591000", "180001.593000", "180001.596000", "180001.598000", "180001.601000", "180001.603000", "180001.606000", "180001.609000", "180001.611000", "180001.614000", "180001.616000", "180001.619000", "180041.534000", "180041.537000", "180041.540000", "180041.542000", "180041.545000", "180041.548000", "180041.550000", "180041.553000", "180041.555000", "180041.558000", "180041.560000", "180041.563000", "180041.565000", "180041.568000", "180041.571000", "180041.573000", "180041.576000", "180041.578000", "180041.581000", "180041.583000", "180041.586000", "180041.588000", "180041.591000", "180041.594000", "180041.596000", "180041.599000", "180041.601000", "180041.604000", "180041.606000", "180041.609000", "180041.611000", "180041.614000", "180041.617000", "180119.236000", "180119.239000", "180119.242000", "180119.244000", "180119.247000", "180119.249000", "180119.252000", "180119.254000", "180119.257000", "180119.259000", "180119.262000", "180119.269000", "180119.272000", "180119.274000", "180119.277000", "180119.280000", "180119.282000", "180119.285000", "180119.287000", "180119.290000", "180119.292000", "180119.295000", "180119.298000", "180119.300000", "180119.303000", "180119.316000", "180119.319000", "180119.322000", "180119.324000", "180119.327000", "180119.329000", "180119.332000"],
      "InstanceNumber": [1, 2, 3, 4, 5, 6, 7, 8, 9, 10, 11, 12, 13, 14, 15, 16, 17, 18, 19, 20, 21, 22, 23, 24, 25, 26, 27, 28, 29, 30, 31, 32, 33, 34, 35, 36, 37, 38, 39, 40, 41, 42, 43, 44, 45, 46, 47, 48, 49, 50, 51, 52, 53, 54, 55, 56, 57, 58, 59, 60, 61, 62, 63, 64, 65, 66, 67, 68, 69, 70, 71, 72, 73, 74, 75, 76, 77, 78, 79, 80, 81, 82, 83, 84, 85, 86, 87, 88, 89, 90, 91, 92, 93, 94, 95, 96, 97, 98, 99, 100, 101, 102, 103, 104, 105, 106, 107, 108, 109, 110, 111, 112, 113, 114, 115, 116, 117, 118, 119, 120, 121, 122, 123, 124, 125],
      "LargestImagePixelValue": [2083, 2062, 2059, 2102, 2113, 2076, 2123, 2094, 2088, 2114, 2100, 2109, 2082, 2061, 2094, 2080, 2114, 2090, 2056, 2093, 2078, 2096, 2073, 2088, 2083, 2079, 2105, 2084, 2063, 2072, 2104, 2083, 2075, 2071, 2083, 2083, 2103, 2101, 2079, 2058, 2079, 2090, 2098, 2106, 2067, 2098, 2077, 2078, 2106, 2092, 2084, 2096, 2110, 2096, 2097, 2079, 2060, 2071, 2106, 2093, 2092, 2088, 2102, 2095, 2114, 2099, 2068, 2073, 2105, 2092, 2082, 2053, 2078, 2085, 2089, 2098, 2069, 2077, 2104, 2121, 2093, 2074, 2072, 2079, 2101, 2068, 2080, 2076, 2080, 2108, 2091, 2120, 2080, 2070, 2094, 2095, 2080, 2093, 2079, 2117, 2108, 2053, 2098, 2078, 2102, 2091, 2064, 2082, 2092, 2077, 2092, 2076, 2102, 2091, 2081, 2085, 2079, 2081, 2103, 2059, 2048, 2048, 2072, 2097, 2059],
      "WindowCenter": [582.0, 580.0, 578.0, 577.0, 577.0, 577.0, 578.0, 577.0, 577.0, 577.0, 577.0, 577.0, 576.0, 577.0, 577.0, 576.0, 577.0, 576.0, 576.0, 576.0, 576.0, 577.0, 576.0, 576.0, 576.0, 575.0, 576.0, 576.0, 575.0, 576.0, 577.0, 578.0, 577.0, 577.0, 577.0, 576.0, 576.0, 577.0, 576.0, 576.0, 576.0, 576.0, 577.0, 578.0, 577.0, 577.0, 577.0, 577.0, 577.0, 578.0, 577.0, 577.0, 577.0, 577.0, 578.0, 577.0, 576.0, 577.0, 578.0, 578.0, 578.0, 577.0, 577.0, 576.0, 577.0, 577.0, 576.0, 577.0, 576.0, 577.0, 577.0, 576.0, 576.0, 577.0, 577.0, 578.0, 577.0, 577.0, 578.0, 578.0, 577.0, 577.0, 576.0, 577.0, 577.0, 576.0, 577.0, 576.0, 576.0, 577.0, 577.0, 577.0, 576.0, 576.0, 577.0, 578.0, 578.0, 577.0, 577.0, 578.0, 577.0, 577.0, 577.0, 577.0, 577.0, 577.0, 576.0, 577.0, 578.0, 577.0, 577.0, 578.0, 578.0, 577.0, 576.0, 576.0, 576.0, 576.0, 576.0, 576.0, 576.0, 576.0, 577.0, 577.0, 576.0],
      "WindowWidth": [1246.0, 1241.0, 1238.0, 1236.0, 1236.0, 1236.0, 1238.0, 1236.0, 1236.0, 1236.0, 1236.0, 1236.0, 1234.0, 1235.0, 1235.0, 1234.0, 1235.0, 1234.0, 1233.0, 1233.0, 1233.0, 1235.0, 1233.0, 1233.0, 1233.0, 1232.0, 1232.0, 1233.0, 1232.0, 1234.0, 1236.0, 1238.0, 1237.0, 1235.0, 1235.0, 1234.0, 1234.0, 1234.0, 1234.0, 1233.0, 1234.0, 1234.0, 1235.0, 1237.0, 1236.0, 1235.0, 1235.0, 1236.0, 1237.0, 1237.0, 1235.0, 1235.0, 1234.0, 1235.0, 1237.0, 1235.0, 1234.0, 1236.0, 1237.0, 1237.0, 1237.0, 1235.0, 1236.0, 1234.0, 1235.0, 1235.0, 1233.0, 1235.0, 1234.0, 1234.0, 1235.0, 1233.0, 1234.0, 1235.0, 1236.0, 1237.0, 1235.0, 1235.0, 1237.0, 1236.0, 1236.0, 1235.0, 1234.0, 1235.0, 1235.0, 1234.0, 1235.0, 1234.0, 1234.0, 1235.0, 1235.0, 1235.0, 1233.0, 1234.0, 1235.0, 1237.0, 1237.0, 1236.0, 1236.0, 1236.0, 1234.0, 1235.0, 1236.0, 1235.0, 1236.0, 1234.0, 1234.0, 1235.0, 1236.0, 1236.0, 1236.0, 1237.0, 1238.0, 1236.0, 1234.0, 1233.0, 1233.0, 1234.0, 1233.0, 1233.0, 1233.0, 1233.0, 1235.0, 1235.0, 1234.0]
    },
    "slices": {}
  }
}