{
  "AcquisitionMatrixPE": 88,
  "AcquisitionNumber": 1,
  "AcquisitionTime": "19:08:55.935000",
  "BandwidthPerPixelPhaseEncode": 19.592,
  "BaseResolution": 88,
  "BodyPartExamined": "BRAIN",
  "ConsistencyInfo": "N4_VE11C_LATEST_20160120",
  "ConversionSoftware": "dcm2niix",
  "ConversionSoftwareVersion": "v1.0.20190902",
  "DerivedVendorReportedEchoSpacing": 0.000580014,
  "DeviceSerialNumber": "67050",
  "DwellTime": 2.6e-06,
  "EchoTime": 0.033,
  "EchoTrainLength": 88,
  "EffectiveEchoSpacing": 0.000580014,
  "FlipAngle": 62,
  "ImageOrientationPatientDICOM": [0.996382, 0.024145, 0.0814807, -0.025047, 0.999636, 0.0100668],
  "ImageType": [
    "ORIGINAL",
    "PRIMARY",
    "M",
    "ND",
    "MOSAIC"
],
  "ImagingFrequency": 123.251,
  "InPlanePhaseEncodingDirectionDICOM": "COL",
  "InstitutionAddress": "Olive_Street_60_Providence_RI_US_02912",
  "InstitutionName": "BROWN_UNIVERSITY_MRF",
  "InstitutionalDepartmentName": "Department",
  "MRAcquisitionType": "2D",
  "MagneticFieldStrength": 3,
  "Manufacturer": "Siemens",
  "ManufacturersModelName": "Prisma_fit",
  "Modality": "MR",
  "MultibandAccelerationFactor": 4,
  "PartialFourier": 1,
  "PatientPosition": "HFS",
  "PercentPhaseFOV": 100,
  "PhaseEncodingDirection": "j-",
  "PhaseEncodingSteps": 88,
  "PhaseResolution": 1,
  "PixelBandwidth": 2185,
  "ProcedureStepDescription": "ASHENHAV_1222",
  "ProtocolName": "func-bold_task-RDMlocalizer_run-02",
  "PulseSequenceDetails": "%SiemensSeq%_ep2d_bold",
  "ReceiveCoilActiveElements": "HC1-7",
  "ReceiveCoilName": "HeadNeck_64",
  "ReconMatrixPE": 88,
  "RefLinesPE": 8,
  "RepetitionTime": 1.2,
  "SAR": 0.0508802,
  "ScanOptions": "FS",
  "ScanningSequence": "EP",
  "SequenceName": "_epfid2d1_88",
  "SequenceVariant": "SK",
  "SeriesDescription": "func-bold_task-RDMlocalizer_run-02",
  "SeriesNumber": 24,
  "ShimSetting": [1774, -9240, 4498, 838, -31, -212, 397, -16],
  "SliceThickness": 2.4,
  "SliceTiming": [0.5525, 0, 0.63, 0.08, 0.7075, 0.1575, 0.7875, 0.2375, 0.865, 0.315, 0.945, 0.395, 1.0225, 0.4725, 1.1025, 0.5525, 0, 0.63, 0.08, 0.7075, 0.1575, 0.7875, 0.2375, 0.865, 0.315, 0.945, 0.395, 1.0225, 0.4725, 1.1025, 0.5525, 0, 0.63, 0.08, 0.7075, 0.1575, 0.7875, 0.2375, 0.865, 0.315, 0.945, 0.395, 1.0225, 0.4725, 1.1025, 0.5525, 0, 0.63, 0.08, 0.7075, 0.1575, 0.7875, 0.2375, 0.865, 0.315, 0.945, 0.395, 1.0225, 0.4725, 1.1025],
  "SoftwareVersions": "syngo_MR_E11",
  "SpacingBetweenSlices": 2.4,
  "StationName": "AWP67050",
  "TaskName": "RDMlocalizer",
  "TotalReadoutTime": 0.0504612,
  "TxRefAmp": 226.3,
  "dcmmeta_affine": [
    [-2.3890533447265625, -0.0600559338927269, 0.19489902257919312, 105.02003479003906],
    [-0.057893045246601105, 2.396853446960449, 0.028970886021852493, -102.66082763671875],
    [0.1953684538602829, -0.02413737215101719, 2.3918979167938232, -58.215431213378906],
    [0.0, 0.0, 0.0, 1.0]
],
  "dcmmeta_reorient_transform": [
    [0.0, -1.0, 0.0, 87.0],
    [1.0, 0.0, 0.0, 0.0],
    [0.0, 0.0, 1.0, 0.0],
    [0.0, 0.0, 0.0, 1.0]
],
  "dcmmeta_shape": [88, 88, 60, 195],
  "dcmmeta_slice_dim": 2,
  "dcmmeta_version": 0.6,
  "global": {
    "const": {
      "AcquisitionMatrix": [88, 0, 0, 88],
      "AngioFlag": "N",
      "BitsAllocated": 16,
      "BitsStored": 12,
      "BodyPartExamined": "BRAIN",
      "Columns": 704,
      "DeidentificationMethodCodeSequence": [
        {
          "CodeMeaning": "XNAT DicomEdit 6 Script",
          "CodeValue": "3",
          "CodingSchemeDesignator": "XNAT",
          "CodingSchemeVersion": "1.0"}
],
      "EchoNumbers": 1,
      "EchoTime": 33.0,
      "EchoTrainLength": 88,
      "FlipAngle": 62.0,
      "HighBit": 11,
      "ImageOrientationPatient": [0.99638241623635, 0.02414496633243, 0.08148068001568, -0.0250470246779, 0.99963558693605, 0.01006677136999],
      "ImagePositionPatient": [-817.12634774217, -861.92735678258, -127.92317565142],
      "ImageType": [
        "ORIGINAL",
        "PRIMARY",
        "M",
        "ND",
        "MOSAIC"
],
      "ImagedNucleus": "1H",
      "ImagingFrequency": 123.250758,
      "InPlanePhaseEncodingDirection": "COL",
      "MRAcquisitionType": "2D",
      "MagneticFieldStrength": 3.0,
      "Manufacturer": "SIEMENS",
      "ManufacturerModelName": "Prisma_fit",
      "Modality": "MR",
      "NumberOfAverages": 1.0,
      "NumberOfPhaseEncodingSteps": 88,
      "PercentPhaseFieldOfView": 100.0,
      "PercentSampling": 100.0,
      "PerformedProcedureStepStartTime": "172520.650000",
      "PhotometricInterpretation": "MONOCHROME2",
      "PixelBandwidth": 2185.0,
      "PixelRepresentation": 0,
      "PixelSpacing": [2.3977272510529, 2.3977272510529],
      "ProtocolName": "func-bold_task-RDMlocalizer_run-02",
      "RepetitionTime": 1200.0,
      "Rows": 704,
      "SAR": 0.05088019487731,
      "SamplesPerPixel": 1,
      "ScanOptions": "FS",
      "ScanningSequence": "EP",
      "SequenceName": "*epfid2d1_88",
      "SequenceVariant": "SK",
      "SeriesDescription": "func-bold_task-RDMlocalizer_run-02",
      "SeriesNumber": 24,
      "SeriesTime": "190921.536000",
      "SliceLocation": -50.729682039208,
      "SliceThickness": 2.4000000953674,
      "SmallestImagePixelValue": 0,
      "SoftwareVersions": "syngo MR E11",
      "SpacingBetweenSlices": 2.4000000213756,
      "SpecificCharacterSet": "ISO_IR 100",
      "StudyID": "1",
      "StudyTime": "172520.512000",
      "TransmitCoilName": "Body",
      "VariableFlipAngleFlag": "N",
      "WindowCenterWidthExplanation": "Algo1",
      "dBdt": 0.0},
    "slices": {}
  },
  "time": {
    "samples": {
      "AcquisitionNumber": [1, 2, 3, 4, 5, 6, 7, 8, 9, 10, 11, 12, 13, 14, 15, 16, 17, 18, 19, 20, 21, 22, 23, 24, 25, 26, 27, 28, 29, 30, 31, 32, 33, 34, 35, 36, 37, 38, 39, 40, 41, 42, 43, 44, 45, 46, 47, 48, 49, 50, 51, 52, 53, 54, 55, 56, 57, 58, 59, 60, 61, 62, 63, 64, 65, 66, 67, 68, 69, 70, 71, 72, 73, 74, 75, 76, 77, 78, 79, 80, 81, 82, 83, 84, 85, 86, 87, 88, 89, 90, 91, 92, 93, 94, 95, 96, 97, 98, 99, 100, 101, 102, 103, 104, 105, 106, 107, 108, 109, 110, 111, 112, 113, 114, 115, 116, 117, 118, 119, 120, 121, 122, 123, 124, 125, 126, 127, 128, 129, 130, 131, 132, 133, 134, 135, 136, 137, 138, 139, 140, 141, 142, 143, 144, 145, 146, 147, 148, 149, 150, 151, 152, 153, 154, 155, 156, 157, 158, 159, 160, 161, 162, 163, 164, 165, 166, 167, 168, 169, 170, 171, 172, 173, 174, 175, 176, 177, 178, 179, 180, 181, 182, 183, 184, 185, 186, 187, 188, 189, 190, 191, 192, 193, 194, 195],
      "AcquisitionTime": ["190855.935000", "190857.135000", "190858.335000", "190859.535000", "190900.735000", "190901.935000", "190903.135000", "190904.335000", "190905.535000", "190906.735000", "190907.935000", "190909.135000", "190910.335000", "190911.535000", "190912.735000", "190913.935000", "190915.135000", "190916.335000", "190917.535000", "190918.735000", "190919.935000", "190921.135000", "190922.335000", "190923.535000", "190924.735000", "190925.935000", "190927.135000", "190928.335000", "190929.535000", "190930.735000", "190931.935000", "190933.135000", "190934.335000", "190935.535000", "190936.735000", "190937.935000", "190939.135000", "190940.335000", "190941.535000", "190942.735000", "190943.935000", "190945.135000", "190946.335000", "190947.535000", "190948.735000", "190949.935000", "190951.135000", "190952.335000", "190953.535000", "190954.735000", "190955.935000", "190957.135000", "190958.335000", "190959.535000", "191000.735000", "191001.935000", "191003.135000", "191004.335000", "191005.535000", "191006.735000", "191007.935000", "191009.135000", "191010.335000", "191011.535000", "191012.735000", "191013.935000", "191015.135000", "191016.335000", "191017.535000", "191018.735000", "191019.935000", "191021.135000", "191022.335000", "191023.535000", "191024.735000", "191025.935000", "191027.135000", "191028.335000", "191029.535000", "191030.735000", "191031.935000", "191033.135000", "191034.335000", "191035.535000", "191036.735000", "191037.935000", "191039.135000", "191040.335000", "191041.535000", "191042.735000", "191043.935000", "191045.135000", "191046.335000", "191047.535000", "191048.735000", "191049.935000", "191051.135000", "191052.335000", "191053.535000", "191054.735000", "191055.935000", "191057.135000", "191058.335000", "191059.535000", "191100.735000", "191101.935000", "191103.135000", "191104.335000", "191105.535000", "191106.735000", "191107.935000", "191109.135000", "191110.335000", "191111.535000", "191112.735000", "191113.935000", "191115.135000", "191116.335000", "191117.535000", "191118.735000", "191119.935000", "191121.135000", "191122.335000", "191123.535000", "191124.735000", "191125.935000", "191127.135000", "191128.335000", "191129.535000", "191130.735000", "191131.935000", "191133.135000", "191134.335000", "191135.535000", "191136.735000", "191137.935000", "191139.135000", "191140.335000", "191141.535000", "191142.735000", "191143.935000", "191145.135000", "191146.335000", "191147.535000", "191148.735000", "191149.935000", "191151.135000", "191152.335000", "191153.535000", "191154.735000", "191155.935000", "191157.135000", "191158.335000", "191159.535000", "191200.735000", "191201.935000", "191203.135000", "191204.335000", "191205.535000", "191206.735000", "191207.935000", "191209.135000", "191210.335000", "191211.535000", "191212.735000", "191213.935000", "191215.135000", "191216.335000", "191217.535000", "191218.735000", "191219.935000", "191221.135000", "191222.335000", "191223.535000", "191224.735000", "191225.935000", "191227.135000", "191228.335000", "191229.535000", "191230.735000", "191231.935000", "191233.135000", "191234.335000", "191235.535000", "191236.735000", "191237.935000", "191239.135000", "191240.335000", "191241.535000", "191242.735000", "191243.935000", "191245.135000", "191246.335000", "191247.535000", "191248.735000"],
      "ContentTime": ["190921.539000", "190921.542000", "190921.545000", "190921.547000", "190921.550000", "190921.553000", "190921.555000", "190921.558000", "190921.560000", "190921.563000", "190921.565000", "190921.568000", "190921.570000", "190921.573000", "190921.575000", "190921.578000", "190921.580000", "190921.591000", "190921.594000", "190921.596000", "191001.534000", "191001.537000", "191001.540000", "191001.542000", "191001.549000", "191001.552000", "191001.555000", "191001.557000", "191001.560000", "191001.563000", "191001.565000", "191001.568000", "191001.570000", "191001.573000", "191001.575000", "191001.578000", "191001.580000", "191001.583000", "191001.585000", "191001.588000", "191001.591000", "191001.593000", "191001.596000", "191001.603000", "191001.605000", "191001.608000", "191001.611000", "191001.613000", "191001.616000", "191001.619000", "191001.621000", "191001.624000", "191001.626000", "191001.629000", "191041.535000", "191041.537000", "191041.540000", "191041.543000", "191041.545000", "191041.548000", "191041.550000", "191041.553000", "191041.555000", "191041.558000", "191041.560000", "191041.563000", "191041.565000", "191041.568000", "191041.570000", "191041.573000", "191041.576000", "191041.578000", "191041.581000", "191041.583000", "191041.586000", "191041.588000", "191041.591000", "191041.593000", "191041.596000", "191041.598000", "191041.601000", "191041.604000", "191041.606000", "191041.609000", "191041.611000", "191041.614000", "191041.617000", "191121.534000", "191121.537000", "191121.540000", "191121.542000", "191121.545000", "191121.548000", "191121.550000", "191121.553000", "191121.555000", "191121.558000", "191121.560000", "191121.563000", "191121.566000", "191121.568000", "191121.571000", "191121.573000", "191121.576000", "191121.591000", "191121.593000", "191121.596000", "191121.598000", "191121.608000", "191121.610000", "191121.613000", "191121.616000", "191121.618000", "191121.621000", "191121.624000", "191121.626000", "191121.629000", "191121.632000", "191121.635000", "191121.637000", "191201.534000", "191201.537000", "191201.540000", "191201.542000", "191201.545000", "191201.548000", "191201.550000", "191201.553000", "191201.556000", "191201.558000", "191201.561000", "191201.564000", "191201.566000", "191201.569000", "191201.571000", "191201.574000", "191201.576000", "191201.579000", "191201.582000", "191201.584000", "191201.587000", "191201.589000", "191201.592000", "191201.594000", "191201.597000", "191201.601000", "191201.603000", "191201.606000", "191201.608000", "191201.611000", "191201.613000", "191201.616000", "191201.619000", "191201.621000", "191241.535000", "191241.538000", "191241.540000", "191241.543000", "191241.545000", "191241.548000", "191241.550000", "191241.553000", "191241.556000", "191241.558000", "191241.561000", "191241.563000", "191241.566000", "191241.569000", "191241.571000", "191241.574000", "191241.576000", "191241.579000", "191241.581000", "191241.584000", "191241.586000", "191241.589000", "191241.591000", "191241.594000", "191241.596000", "191241.599000", "191241.602000", "191241.613000", "191241.616000", "191241.618000", "191241.621000", "191241.623000", "191241.626000", "191250.455000", "191250.458000", "191250.461000", "191250.464000", "191250.466000", "191250.472000", "191250.477000", "191250.480000"],
      "InstanceCreationTime": ["190921.539000", "190921.542000", "190921.545000", "190921.547000", "190921.550000", "190921.553000", "190921.555000", "190921.558000", "190921.560000", "190921.563000", "190921.565000", "190921.568000", "190921.570000", "190921.573000", "190921.575000", "190921.578000", "190921.580000", "190921.591000", "190921.594000", "190921.596000", "191001.534000", "191001.537000", "191001.540000", "191001.542000", "191001.549000", "191001.552000", "191001.555000", "191001.557000", "191001.560000", "191001.563000", "191001.565000", "191001.568000", "191001.570000", "191001.573000", "191001.575000", "191001.578000", "191001.580000", "191001.583000", "191001.585000", "191001.588000", "191001.591000", "191001.593000", "191001.596000", "191001.603000", "191001.605000", "191001.608000", "191001.611000", "191001.613000", "191001.616000", "191001.619000", "191001.621000", "191001.624000", "191001.626000", "191001.629000", "191041.535000", "191041.537000", "191041.540000", "191041.543000", "191041.545000", "191041.548000", "191041.550000", "191041.553000", "191041.555000", "191041.558000", "191041.560000", "191041.563000", "191041.565000", "191041.568000", "191041.570000", "191041.573000", "191041.576000", "191041.578000", "191041.581000", "191041.583000", "191041.586000", "191041.588000", "191041.591000", "191041.593000", "191041.596000", "191041.598000", "191041.601000", "191041.604000", "191041.606000", "191041.609000", "191041.611000", "191041.614000", "191041.617000", "191121.534000", "191121.537000", "191121.540000", "191121.542000", "191121.545000", "191121.548000", "191121.550000", "191121.553000", "191121.555000", "191121.558000", "191121.560000", "191121.563000", "191121.566000", "191121.568000", "191121.571000", "191121.573000", "191121.576000", "191121.591000", "191121.593000", "191121.596000", "191121.598000", "191121.608000", "191121.610000", "191121.613000", "191121.616000", "191121.618000", "191121.621000", "191121.624000", "191121.626000", "191121.629000", "191121.632000", "191121.635000", "191121.637000", "191201.534000", "191201.537000", "191201.540000", "191201.542000", "191201.545000", "191201.548000", "191201.550000", "191201.553000", "191201.556000", "191201.558000", "191201.561000", "191201.564000", "191201.566000", "191201.569000", "191201.571000", "191201.574000", "191201.576000", "191201.579000", "191201.582000", "191201.584000", "191201.587000", "191201.589000", "191201.592000", "191201.594000", "191201.597000", "191201.601000", "191201.603000", "191201.606000", "191201.608000", "191201.611000", "191201.613000", "191201.616000", "191201.619000", "191201.621000", "191241.535000", "191241.538000", "191241.540000", "191241.543000", "191241.545000", "191241.548000", "191241.550000", "191241.553000", "191241.556000", "191241.558000", "191241.561000", "191241.563000", "191241.566000", "191241.569000", "191241.571000", "191241.574000", "191241.576000", "191241.579000", "191241.581000", "191241.584000", "191241.586000", "191241.589000", "191241.591000", "191241.594000", "191241.596000", "191241.599000", "191241.602000", "191241.613000", "191241.616000", "191241.618000", "191241.621000", "191241.623000", "191241.626000", "191250.455000", "191250.458000", "191250.461000", "191250.464000", "191250.466000", "191250.472000", "191250.477000", "191250.480000"],
      "InstanceNumber": [1, 2, 3, 4, 5, 6, 7, 8, 9, 10, 11, 12, 13, 14, 15, 16, 17, 18, 19, 20, 21, 22, 23, 24, 25, 26, 27, 28, 29, 30, 31, 32, 33, 34, 35, 36, 37, 38, 39, 40, 41, 42, 43, 44, 45, 46, 47, 48, 49, 50, 51, 52, 53, 54, 55, 56, 57, 58, 59, 60, 61, 62, 63, 64, 65, 66, 67, 68, 69, 70, 71, 72, 73, 74, 75, 76, 77, 78, 79, 80, 81, 82, 83, 84, 85, 86, 87, 88, 89, 90, 91, 92, 93, 94, 95, 96, 97, 98, 99, 100, 101, 102, 103, 104, 105, 106, 107, 108, 109, 110, 111, 112, 113, 114, 115, 116, 117, 118, 119, 120, 121, 122, 123, 124, 125, 126, 127, 128, 129, 130, 131, 132, 133, 134, 135, 136, 137, 138, 139, 140, 141, 142, 143, 144, 145, 146, 147, 148, 149, 150, 151, 152, 153, 154, 155, 156, 157, 158, 159, 160, 161, 162, 163, 164, 165, 166, 167, 168, 169, 170, 171, 172, 173, 174, 175, 176, 177, 178, 179, 180, 181, 182, 183, 184, 185, 186, 187, 188, 189, 190, 191, 192, 193, 194, 195],
      "LargestImagePixelValue": [2204, 2194, 2206, 2214, 2209, 2270, 2266, 2255, 2266, 2282, 2289, 2315, 2268, 2278, 2261, 2268, 2275, 2249, 2243, 2218, 2192, 2207, 2189, 2158, 2205, 2195, 2188, 2194, 2169, 2174, 2230, 2199, 2260, 2249, 2271, 2282, 2258, 2285, 2261, 2273, 2276, 2243, 2269, 2240, 2237, 2271, 2234, 2238, 2258, 2201, 2235, 2239, 2193, 2225, 2221, 2191, 2222, 2212, 2229, 2242, 2213, 2256, 2248, 2216, 2245, 2230, 2229, 2221, 2234, 2235, 2236, 2245, 2238, 2164, 2171, 2198, 2203, 2217, 2210, 2187, 2218, 2179, 2221, 2227, 2219, 2275, 2234, 2261, 2279, 2266, 2257, 2230, 2219, 2238, 2233, 2223, 2233, 2191, 2230, 2248, 2227, 2243, 2235, 2213, 2224, 2261, 2233, 2247, 2247, 2232, 2281, 2250, 2234, 2239, 2225, 2251, 2292, 2241, 2269, 2268, 2252, 2253, 2222, 2236, 2241, 2227, 2233, 2222, 2184, 2239, 2275, 2220, 2245, 2242, 2228, 2235, 2216, 2236, 2240, 2224, 2236, 2245, 2243, 2273, 2244, 2223, 2246, 2225, 2202, 2200, 2201, 2192, 2214, 2157, 2159, 2179, 2145, 2211, 2225, 2160, 2175, 2156, 2160, 2210, 2164, 2200, 2220, 2208, 2241, 2201, 2177, 2224, 2204, 2229, 2243, 2188, 2210, 2228, 2219, 2267, 2217, 2212, 2188, 2125, 2184, 2168, 2158, 2160, 2154, 2137, 2190, 2172, 2142, 2155, 2148],
      "WindowCenter": [601.0, 599.0, 598.0, 598.0, 598.0, 598.0, 598.0, 599.0, 598.0, 599.0, 599.0, 599.0, 599.0, 598.0, 598.0, 598.0, 598.0, 598.0, 598.0, 597.0, 597.0, 597.0, 597.0, 596.0, 596.0, 597.0, 596.0, 596.0, 596.0, 596.0, 597.0, 597.0, 598.0, 598.0, 598.0, 598.0, 598.0, 597.0, 598.0, 598.0, 598.0, 598.0, 598.0, 598.0, 598.0, 598.0, 597.0, 597.0, 597.0, 597.0, 598.0, 598.0, 597.0, 597.0, 597.0, 597.0, 596.0, 597.0, 597.0, 597.0, 597.0, 597.0, 598.0, 598.0, 598.0, 598.0, 597.0, 597.0, 598.0, 598.0, 597.0, 597.0, 598.0, 597.0, 597.0, 598.0, 598.0, 598.0, 598.0, 597.0, 597.0, 596.0, 597.0, 597.0, 597.0, 598.0, 598.0, 597.0, 598.0, 598.0, 597.0, 597.0, 597.0, 597.0, 597.0, 596.0, 596.0, 596.0, 596.0, 597.0, 596.0, 596.0, 597.0, 597.0, 598.0, 599.0, 599.0, 599.0, 599.0, 598.0, 598.0, 597.0, 597.0, 597.0, 598.0, 598.0, 599.0, 598.0, 598.0, 598.0, 598.0, 597.0, 597.0, 597.0, 597.0, 597.0, 597.0, 597.0, 598.0, 598.0, 599.0, 598.0, 597.0, 598.0, 597.0, 597.0, 597.0, 596.0, 596.0, 597.0, 597.0, 597.0, 598.0, 599.0, 598.0, 596.0, 595.0, 596.0, 595.0, 595.0, 595.0, 595.0, 595.0, 595.0, 595.0, 596.0, 596.0, 597.0, 596.0, 595.0, 595.0, 595.0, 595.0, 596.0, 596.0, 597.0, 597.0, 597.0, 597.0, 597.0, 596.0, 598.0, 598.0, 599.0, 599.0, 598.0, 598.0, 598.0, 598.0, 598.0, 598.0, 598.0, 597.0, 597.0, 597.0, 597.0, 596.0, 596.0, 596.0, 595.0, 595.0, 596.0, 595.0, 595.0, 595.0],
      "WindowWidth": [1290.0, 1286.0, 1282.0, 1282.0, 1282.0, 1283.0, 1284.0, 1285.0, 1284.0, 1286.0, 1285.0, 1285.0, 1285.0, 1284.0, 1284.0, 1284.0, 1284.0, 1283.0, 1282.0, 1281.0, 1281.0, 1280.0, 1280.0, 1279.0, 1280.0, 1280.0, 1278.0, 1278.0, 1278.0, 1278.0, 1279.0, 1280.0, 1282.0, 1283.0, 1284.0, 1283.0, 1283.0, 1282.0, 1282.0, 1282.0, 1283.0, 1283.0, 1282.0, 1282.0, 1282.0, 1282.0, 1281.0, 1281.0, 1281.0, 1282.0, 1283.0, 1283.0, 1281.0, 1280.0, 1280.0, 1279.0, 1279.0, 1280.0, 1280.0, 1280.0, 1280.0, 1281.0, 1283.0, 1282.0, 1283.0, 1282.0, 1280.0, 1280.0, 1282.0, 1282.0, 1282.0, 1281.0, 1282.0, 1280.0, 1280.0, 1282.0, 1283.0, 1283.0, 1284.0, 1280.0, 1280.0, 1279.0, 1279.0, 1280.0, 1281.0, 1282.0, 1283.0, 1281.0, 1282.0, 1282.0, 1281.0, 1281.0, 1280.0, 1280.0, 1280.0, 1278.0, 1278.0, 1278.0, 1278.0, 1279.0, 1279.0, 1279.0, 1280.0, 1281.0, 1282.0, 1284.0, 1286.0, 1286.0, 1285.0, 1283.0, 1283.0, 1281.0, 1280.0, 1281.0, 1282.0, 1283.0, 1284.0, 1283.0, 1283.0, 1283.0, 1283.0, 1281.0, 1281.0, 1281.0, 1281.0, 1281.0, 1281.0, 1281.0, 1282.0, 1283.0, 1284.0, 1282.0, 1281.0, 1282.0, 1281.0, 1281.0, 1280.0, 1279.0, 1279.0, 1280.0, 1280.0, 1281.0, 1284.0, 1285.0, 1282.0, 1279.0, 1277.0, 1278.0, 1276.0, 1276.0, 1276.0, 1275.0, 1276.0, 1276.0, 1276.0, 1278.0, 1279.0, 1280.0, 1279.0, 1277.0, 1275.0, 1275.0, 1276.0, 1278.0, 1278.0, 1280.0, 1281.0, 1280.0, 1280.0, 1281.0, 1280.0, 1282.0, 1283.0, 1284.0, 1285.0, 1283.0, 1282.0, 1283.0, 1282.0, 1282.0, 1282.0, 1282.0, 1282.0, 1281.0, 1281.0, 1280.0, 1279.0, 1278.0, 1278.0, 1277.0, 1276.0, 1278.0, 1277.0, 1277.0, 1277.0]
    },
    "slices": {}
  }
}