{
  "AcquisitionMatrixPE": 88,
  "AcquisitionNumber": 1,
  "AcquisitionTime": "15:34:57.702500",
  "BandwidthPerPixelPhaseEncode": 19.592,
  "BaseResolution": 88,
  "BodyPartExamined": "BRAIN",
  "ConsistencyInfo": "N4_VE11C_LATEST_20160120",
  "ConversionSoftware": "dcm2niix",
  "ConversionSoftwareVersion": "v1.0.20190902",
  "DerivedVendorReportedEchoSpacing": 0.000580014,
  "DeviceSerialNumber": "67050",
  "DwellTime": 2.6e-06,
  "EchoTime": 0.033,
  "EchoTrainLength": 88,
  "EffectiveEchoSpacing": 0.000580014,
  "FlipAngle": 62,
  "ImageOrientationPatientDICOM": [0.991057, 0.0969248, 0.0917156, -0.0828731, 0.98577, -0.146252],
  "ImageType": [
    "ORIGINAL",
    "PRIMARY",
    "M",
    "ND",
    "MOSAIC"
],
  "ImagingFrequency": 123.251,
  "InPlanePhaseEncodingDirectionDICOM": "COL",
  "InstitutionAddress": "Olive_Street_60_Providence_RI_US_02912",
  "InstitutionName": "BROWN_UNIVERSITY_MRF",
  "InstitutionalDepartmentName": "Department",
  "MRAcquisitionType": "2D",
  "MagneticFieldStrength": 3,
  "Manufacturer": "Siemens",
  "ManufacturersModelName": "Prisma_fit",
  "Modality": "MR",
  "MultibandAccelerationFactor": 4,
  "PartialFourier": 1,
  "PatientPosition": "HFS",
  "PercentPhaseFOV": 100,
  "PhaseEncodingDirection": "j-",
  "PhaseEncodingSteps": 88,
  "PhaseResolution": 1,
  "PixelBandwidth": 2185,
  "ProcedureStepDescription": "ASHENHAV_1222",
  "ProtocolName": "func-bold_task-RDMcolor_run-04",
  "PulseSequenceDetails": "%SiemensSeq%_ep2d_bold",
  "ReceiveCoilActiveElements": "HC1-7;NC1",
  "ReceiveCoilName": "HeadNeck_64",
  "ReconMatrixPE": 88,
  "RefLinesPE": 8,
  "RepetitionTime": 1.2,
  "SAR": 0.051366,
  "ScanOptions": "FS",
  "ScanningSequence": "EP",
  "SequenceName": "_epfid2d1_88",
  "SequenceVariant": "SK",
  "SeriesDescription": "func-bold_task-RDMcolor_run-04",
  "SeriesNumber": 14,
  "ShimSetting": [1772, -9082, 4374, 419, -100, -83, 116, 0],
  "SliceThickness": 2.4,
  "SliceTiming": [0.55, 0, 0.63, 0.0775, 0.7075, 0.1575, 0.7875, 0.235, 0.865, 0.315, 0.9425, 0.3925, 1.0225, 0.4725, 1.1, 0.55, 0, 0.63, 0.0775, 0.7075, 0.1575, 0.7875, 0.235, 0.865, 0.315, 0.9425, 0.3925, 1.0225, 0.4725, 1.1, 0.55, 0, 0.63, 0.0775, 0.7075, 0.1575, 0.7875, 0.235, 0.865, 0.315, 0.9425, 0.3925, 1.0225, 0.4725, 1.1, 0.55, 0, 0.63, 0.0775, 0.7075, 0.1575, 0.7875, 0.235, 0.865, 0.315, 0.9425, 0.3925, 1.0225, 0.4725, 1.1],
  "SoftwareVersions": "syngo_MR_E11",
  "SpacingBetweenSlices": 2.4,
  "StationName": "AWP67050",
  "TaskName": "RDMcolor",
  "TotalReadoutTime": 0.0504612,
  "TxRefAmp": 242.525,
  "dcmmeta_affine": [
    [-2.376284122467041, -0.1987069845199585, 0.2510063946247101, 108.60192108154297],
    [-0.23239925503730774, 2.363607406616211, -0.32962509989738464, -75.3448486328125],
    [0.21990905702114105, 0.3506736159324646, 2.3639676570892334, -94.71685791015625],
    [0.0, 0.0, 0.0, 1.0]
],
  "dcmmeta_reorient_transform": [
    [0.0, -1.0, 0.0, 87.0],
    [1.0, 0.0, 0.0, 0.0],
    [0.0, 0.0, 1.0, 0.0],
    [0.0, 0.0, 0.0, 1.0]
],
  "dcmmeta_shape": [88, 88, 60, 392],
  "dcmmeta_slice_dim": 2,
  "dcmmeta_version": 0.6,
  "global": {
    "const": {
      "AcquisitionMatrix": [88, 0, 0, 88],
      "AngioFlag": "N",
      "BitsAllocated": 16,
      "BitsStored": 12,
      "BodyPartExamined": "BRAIN",
      "Columns": 704,
      "DeidentificationMethodCodeSequence": [
        {
          "CodeMeaning": "XNAT DicomEdit 6 Script",
          "CodeValue": "3",
          "CodingSchemeDesignator": "XNAT",
          "CodingSchemeVersion": "1.0"}
],
      "EchoNumbers": 1,
      "EchoTime": 33.0,
      "EchoTrainLength": 88,
      "FlipAngle": 62.0,
      "HighBit": 11,
      "ImageOrientationPatient": [0.99105692322453, 0.09692480945648, 0.09171562702479, -0.0828730584552, 0.98576988307837, -0.1462525001425],
      "ImagePositionPatient": [-762.00819298378, -929.85900950473, -23.93277067902],
      "ImageType": [
        "ORIGINAL",
        "PRIMARY",
        "M",
        "ND",
        "MOSAIC"
],
      "ImagedNucleus": "1H",
      "ImagingFrequency": 123.25062,
      "InPlanePhaseEncodingDirection": "COL",
      "MRAcquisitionType": "2D",
      "MagneticFieldStrength": 3.0,
      "Manufacturer": "SIEMENS",
      "ManufacturerModelName": "Prisma_fit",
      "Modality": "MR",
      "NumberOfAverages": 1.0,
      "NumberOfPhaseEncodingSteps": 88,
      "PercentPhaseFieldOfView": 100.0,
      "PercentSampling": 100.0,
      "PerformedProcedureStepStartTime": "141126.402000",
      "PhotometricInterpretation": "MONOCHROME2",
      "PixelBandwidth": 2185.0,
      "PixelRepresentation": 0,
      "PixelSpacing": [2.3977272510529, 2.3977272510529],
      "ProtocolName": "func-bold_task-RDMcolor_run-04",
      "RepetitionTime": 1200.0,
      "Rows": 704,
      "SAR": 0.05136603326837,
      "SamplesPerPixel": 1,
      "ScanOptions": "FS",
      "ScanningSequence": "EP",
      "SequenceName": "*epfid2d1_88",
      "SequenceVariant": "SK",
      "SeriesDescription": "func-bold_task-RDMcolor_run-04",
      "SeriesNumber": 14,
      "SeriesTime": "153533.545000",
      "SliceLocation": -71.588436972607,
      "SliceThickness": 2.4000000953674,
      "SmallestImagePixelValue": 0,
      "SoftwareVersions": "syngo MR E11",
      "SpacingBetweenSlices": 2.399999981894,
      "SpecificCharacterSet": "ISO_IR 100",
      "StudyID": "1",
      "StudyTime": "141126.275000",
      "TransmitCoilName": "Body",
      "VariableFlipAngleFlag": "N",
      "WindowCenterWidthExplanation": "Algo1",
      "dBdt": 0.0},
    "slices": {}
  },
  "time": {
    "samples": {
      "AcquisitionNumber": [1, 2, 3, 4, 5, 6, 7, 8, 9, 10, 11, 12, 13, 14, 15, 16, 17, 18, 19, 20, 21, 22, 23, 24, 25, 26, 27, 28, 29, 30, 31, 32, 33, 34, 35, 36, 37, 38, 39, 40, 41, 42, 43, 44, 45, 46, 47, 48, 49, 50, 51, 52, 53, 54, 55, 56, 57, 58, 59, 60, 61, 62, 63, 64, 65, 66, 67, 68, 69, 70, 71, 72, 73, 74, 75, 76, 77, 78, 79, 80, 81, 82, 83, 84, 85, 86, 87, 88, 89, 90, 91, 92, 93, 94, 95, 96, 97, 98, 99, 100, 101, 102, 103, 104, 105, 106, 107, 108, 109, 110, 111, 112, 113, 114, 115, 116, 117, 118, 119, 120, 121, 122, 123, 124, 125, 126, 127, 128, 129, 130, 131, 132, 133, 134, 135, 136, 137, 138, 139, 140, 141, 142, 143, 144, 145, 146, 147, 148, 149, 150, 151, 152, 153, 154, 155, 156, 157, 158, 159, 160, 161, 162, 163, 164, 165, 166, 167, 168, 169, 170, 171, 172, 173, 174, 175, 176, 177, 178, 179, 180, 181, 182, 183, 184, 185, 186, 187, 188, 189, 190, 191, 192, 193, 194, 195, 196, 197, 198, 199, 200, 201, 202, 203, 204, 205, 206, 207, 208, 209, 210, 211, 212, 213, 214, 215, 216, 217, 218, 219, 220, 221, 222, 223, 224, 225, 226, 227, 228, 229, 230, 231, 232, 233, 234, 235, 236, 237, 238, 239, 240, 241, 242, 243, 244, 245, 246, 247, 248, 249, 250, 251, 252, 253, 254, 255, 256, 257, 258, 259, 260, 261, 262, 263, 264, 265, 266, 267, 268, 269, 270, 271, 272, 273, 274, 275, 276, 277, 278, 279, 280, 281, 282, 283, 284, 285, 286, 287, 288, 289, 290, 291, 292, 293, 294, 295, 296, 297, 298, 299, 300, 301, 302, 303, 304, 305, 306, 307, 308, 309, 310, 311, 312, 313, 314, 315, 316, 317, 318, 319, 320, 321, 322, 323, 324, 325, 326, 327, 328, 329, 330, 331, 332, 333, 334, 335, 336, 337, 338, 339, 340, 341, 342, 343, 344, 345, 346, 347, 348, 349, 350, 351, 352, 353, 354, 355, 356, 357, 358, 359, 360, 361, 362, 363, 364, 365, 366, 367, 368, 369, 370, 371, 372, 373, 374, 375, 376, 377, 378, 379, 380, 381, 382, 383, 384, 385, 386, 387, 388, 389, 390, 391, 392],
      "AcquisitionTime": ["153457.702500", "153458.902500", "153500.102500", "153501.302500", "153502.502500", "153503.702500", "153504.902500", "153506.102500", "153507.302500", "153508.502500", "153509.702500", "153510.902500", "153512.102500", "153513.302500", "153514.502500", "153515.702500", "153516.902500", "153518.102500", "153519.302500", "153520.502500", "153521.702500", "153522.902500", "153524.102500", "153525.302500", "153526.502500", "153527.702500", "153528.902500", "153530.102500", "153531.302500", "153532.502500", "153533.702500", "153534.902500", "153536.102500", "153537.302500", "153538.502500", "153539.702500", "153540.902500", "153542.102500", "153543.302500", "153544.502500", "153545.702500", "153546.902500", "153548.102500", "153549.302500", "153550.502500", "153551.702500", "153552.902500", "153554.102500", "153555.302500", "153556.502500", "153557.702500", "153558.902500", "153600.102500", "153601.302500", "153602.502500", "153603.702500", "153604.902500", "153606.102500", "153607.302500", "153608.502500", "153609.702500", "153610.902500", "153612.102500", "153613.302500", "153614.502500", "153615.702500", "153616.902500", "153618.102500", "153619.302500", "153620.502500", "153621.702500", "153622.902500", "153624.102500", "153625.302500", "153626.502500", "153627.702500", "153628.902500", "153630.102500", "153631.302500", "153632.502500", "153633.702500", "153634.902500", "153636.102500", "153637.302500", "153638.502500", "153639.702500", "153640.902500", "153642.102500", "153643.302500", "153644.502500", "153645.702500", "153646.902500", "153648.102500", "153649.302500", "153650.502500", "153651.702500", "153652.902500", "153654.102500", "153655.302500", "153656.502500", "153657.702500", "153658.902500", "153700.102500", "153701.302500", "153702.502500", "153703.702500", "153704.902500", "153706.102500", "153707.302500", "153708.502500", "153709.702500", "153710.902500", "153712.102500", "153713.302500", "153714.502500", "153715.702500", "153716.902500", "153718.102500", "153719.302500", "153720.502500", "153721.702500", "153722.902500", "153724.102500", "153725.302500", "153726.502500", "153727.702500", "153728.902500", "153730.102500", "153731.302500", "153732.502500", "153733.702500", "153734.902500", "153736.102500", "153737.302500", "153738.502500", "153739.702500", "153740.902500", "153742.102500", "153743.302500", "153744.502500", "153745.702500", "153746.902500", "153748.102500", "153749.302500", "153750.502500", "153751.702500", "153752.902500", "153754.102500", "153755.302500", "153756.502500", "153757.702500", "153758.902500", "153800.102500", "153801.302500", "153802.502500", "153803.702500", "153804.902500", "153806.102500", "153807.302500", "153808.502500", "153809.702500", "153810.902500", "153812.102500", "153813.302500", "153814.502500", "153815.702500", "153816.902500", "153818.102500", "153819.302500", "153820.502500", "153821.702500", "153822.902500", "153824.102500", "153825.302500", "153826.502500", "153827.702500", "153828.902500", "153830.102500", "153831.302500", "153832.502500", "153833.702500", "153834.902500", "153836.102500", "153837.302500", "153838.502500", "153839.702500", "153840.902500", "153842.102500", "153843.302500", "153844.502500", "153845.702500", "153846.902500", "153848.102500", "153849.302500", "153850.502500", "153851.702500", "153852.902500", "153854.102500", "153855.302500", "153856.502500", "153857.702500", "153858.902500", "153900.102500", "153901.302500", "153902.502500", "153903.702500", "153904.902500", "153906.102500", "153907.302500", "153908.502500", "153909.702500", "153910.902500", "153912.102500", "153913.302500", "153914.502500", "153915.702500", "153916.902500", "153918.102500", "153919.302500", "153920.502500", "153921.702500", "153922.902500", "153924.102500", "153925.302500", "153926.502500", "153927.702500", "153928.902500", "153930.102500", "153931.302500", "153932.502500", "153933.702500", "153934.902500", "153936.102500", "153937.302500", "153938.502500", "153939.702500", "153940.902500", "153942.102500", "153943.302500", "153944.502500", "153945.702500", "153946.902500", "153948.102500", "153949.302500", "153950.502500", "153951.702500", "153952.902500", "153954.102500", "153955.302500", "153956.502500", "153957.702500", "153958.902500", "154000.102500", "154001.302500", "154002.502500", "154003.702500", "154004.902500", "154006.102500", "154007.302500", "154008.502500", "154009.702500", "154010.902500", "154012.102500", "154013.302500", "154014.502500", "154015.702500", "154016.902500", "154018.102500", "154019.302500", "154020.502500", "154021.702500", "154022.902500", "154024.102500", "154025.302500", "154026.502500", "154027.702500", "154028.902500", "154030.102500", "154031.302500", "154032.502500", "154033.702500", "154034.902500", "154036.102500", "154037.302500", "154038.502500", "154039.702500", "154040.902500", "154042.102500", "154043.302500", "154044.502500", "154045.702500", "154046.902500", "154048.102500", "154049.302500", "154050.502500", "154051.702500", "154052.902500", "154054.102500", "154055.302500", "154056.502500", "154057.702500", "154058.902500", "154100.102500", "154101.302500", "154102.502500", "154103.702500", "154104.902500", "154106.102500", "154107.302500", "154108.502500", "154109.702500", "154110.902500", "154112.102500", "154113.302500", "154114.502500", "154115.702500", "154116.902500", "154118.102500", "154119.302500", "154120.502500", "154121.702500", "154122.902500", "154124.102500", "154125.302500", "154126.502500", "154127.702500", "154128.902500", "154130.102500", "154131.302500", "154132.502500", "154133.702500", "154134.902500", "154136.102500", "154137.302500", "154138.502500", "154139.702500", "154140.902500", "154142.102500", "154143.302500", "154144.502500", "154145.702500", "154146.902500", "154148.102500", "154149.302500", "154150.502500", "154151.702500", "154152.902500", "154154.102500", "154155.302500", "154156.502500", "154157.702500", "154158.902500", "154200.102500", "154201.302500", "154202.502500", "154203.702500", "154204.902500", "154206.102500", "154207.302500", "154208.502500", "154209.702500", "154210.902500", "154212.102500", "154213.302500", "154214.502500", "154215.702500", "154216.902500", "154218.102500", "154219.302500", "154220.502500", "154221.702500", "154222.902500", "154224.102500", "154225.302500", "154226.502500", "154227.702500", "154228.902500", "154230.102500", "154231.302500", "154232.502500", "154233.702500", "154234.902500", "154236.102500", "154237.302500", "154238.502500", "154239.702500", "154240.902500", "154242.102500", "154243.302500", "154244.502500", "154245.702500", "154246.902500"],
      "ContentTime": ["153533.548000", "153533.551000", "153533.554000", "153533.556000", "153533.559000", "153533.562000", "153533.564000", "153533.583000", "153533.585000", "153533.588000", "153533.591000", "153533.593000", "153533.596000", "153533.599000", "153533.601000", "153533.604000", "153533.606000", "153533.609000", "153533.612000", "153533.614000", "153533.617000", "153533.619000", "153533.622000", "153533.625000", "153533.627000", "153533.630000", "153533.632000", "153533.635000", "153533.642000", "153613.532000", "153613.534000", "153613.537000", "153613.540000", "153613.542000", "153613.545000", "153613.548000", "153613.550000", "153613.561000", "153613.563000", "153613.567000", "153613.570000", "153613.572000", "153613.575000", "153613.577000", "153613.580000", "153613.582000", "153613.585000", "153613.587000", "153613.590000", "153613.593000", "153613.595000", "153613.598000", "153613.600000", "153613.603000", "153613.605000", "153613.608000", "153613.611000", "153613.613000", "153613.616000", "153613.618000", "153613.621000", "153613.624000", "153653.532000", "153653.534000", "153653.537000", "153653.539000", "153653.542000", "153653.545000", "153653.547000", "153653.550000", "153653.552000", "153653.555000", "153653.558000", "153653.560000", "153653.563000", "153653.566000", "153653.569000", "153653.571000", "153653.574000", "153653.577000", "153653.580000", "153653.582000", "153653.585000", "153653.588000", "153653.605000", "153653.608000", "153653.610000", "153653.613000", "153653.616000", "153653.618000", "153653.621000", "153653.623000", "153653.626000", "153653.629000", "153653.631000", "153733.531000", "153733.534000", "153733.537000", "153733.540000", "153733.542000", "153733.545000", "153733.547000", "153733.550000", "153733.552000", "153733.555000", "153733.558000", "153733.560000", "153733.563000", "153733.565000", "153733.568000", "153733.571000", "153733.573000", "153733.576000", "153733.578000", "153733.581000", "153733.583000", "153733.586000", "153733.589000", "153733.591000", "153733.594000", "153733.596000", "153733.599000", "153733.602000", "153733.604000", "153733.607000", "153733.609000", "153733.612000", "153733.614000", "153733.617000", "153813.532000", "153813.534000", "153813.537000", "153813.540000", "153813.542000", "153813.545000", "153813.548000", "153813.550000", "153813.553000", "153813.556000", "153813.558000", "153813.561000", "153813.563000", "153813.567000", "153813.570000", "153813.572000", "153813.575000", "153813.577000", "153813.580000", "153813.583000", "153813.585000", "153813.588000", "153813.590000", "153813.593000", "153813.596000", "153813.598000", "153813.601000", "153813.603000", "153813.606000", "153813.609000", "153813.611000", "153813.614000", "153813.617000", "153853.531000", "153853.534000", "153853.537000", "153853.539000", "153853.542000", "153853.545000", "153853.547000", "153853.550000", "153853.553000", "153853.555000", "153853.558000", "153853.560000", "153853.563000", "153853.566000", "153853.568000", "153853.571000", "153853.574000", "153853.577000", "153853.579000", "153853.582000", "153853.585000", "153853.606000", "153853.608000", "153853.611000", "153853.614000", "153853.616000", "153853.619000", "153853.622000", "153853.624000", "153853.627000", "153853.629000", "153853.632000", "153853.635000", "153933.532000", "153933.534000", "153933.537000", "153933.540000", "153933.542000", "153933.545000", "153933.547000", "153933.550000", "153933.553000", "153933.555000", "153933.558000", "153933.561000", "153933.563000", "153933.566000", "153933.577000", "153933.580000", "153933.583000", "153933.585000", "153933.588000", "153933.590000", "153933.593000", "153933.595000", "153933.598000", "153933.601000", "153933.603000", "153933.606000", "153933.608000", "153933.611000", "153933.621000", "153933.623000", "153933.626000", "153933.629000", "153933.631000", "153933.634000", "154013.531000", "154013.534000", "154013.537000", "154013.549000", "154013.552000", "154013.555000", "154013.557000", "154013.560000", "154013.562000", "154013.566000", "154013.569000", "154013.571000", "154013.574000", "154013.576000", "154013.579000", "154013.582000", "154013.584000", "154013.587000", "154013.589000", "154013.592000", "154013.595000", "154013.597000", "154013.600000", "154013.602000", "154013.605000", "154013.608000", "154013.610000", "154013.613000", "154013.615000", "154013.618000", "154013.621000", "154013.623000", "154013.626000", "154053.532000", "154053.535000", "154053.537000", "154053.540000", "154053.542000", "154053.545000", "154053.548000", "154053.550000", "154053.553000", "154053.556000", "154053.558000", "154053.561000", "154053.564000", "154053.566000", "154053.569000", "154053.572000", "154053.574000", "154053.577000", "154053.579000", "154053.582000", "154053.584000", "154053.587000", "154053.590000", "154053.592000", "154053.595000", "154053.597000", "154053.600000", "154053.602000", "154053.605000", "154053.608000", "154053.610000", "154053.613000", "154053.615000", "154133.532000", "154133.534000", "154133.537000", "154133.540000", "154133.542000", "154133.545000", "154133.547000", "154133.550000", "154133.553000", "154133.555000", "154133.558000", "154133.560000", "154133.563000", "154133.566000", "154133.568000", "154133.571000", "154133.573000", "154133.576000", "154133.578000", "154133.581000", "154133.584000", "154133.586000", "154133.589000", "154133.591000", "154133.594000", "154133.596000", "154133.599000", "154133.602000", "154133.609000", "154133.611000", "154133.614000", "154133.617000", "154133.619000", "154133.622000", "154213.532000", "154213.534000", "154213.537000", "154213.540000", "154213.542000", "154213.545000", "154213.548000", "154213.550000", "154213.553000", "154213.556000", "154213.558000", "154213.561000", "154213.563000", "154213.567000", "154213.570000", "154213.572000", "154213.575000", "154213.578000", "154213.580000", "154213.583000", "154213.585000", "154213.588000", "154213.590000", "154213.593000", "154213.596000", "154213.598000", "154213.601000", "154213.604000", "154213.606000", "154213.609000", "154213.611000", "154213.614000", "154213.617000", "154248.810000", "154248.813000", "154248.816000", "154248.818000", "154248.821000", "154248.824000", "154248.826000", "154248.829000", "154248.832000", "154248.834000", "154248.837000", "154248.839000", "154248.842000", "154248.845000", "154248.847000", "154248.850000", "154248.853000", "154248.856000", "154248.859000", "154248.862000", "154248.865000", "154248.868000", "154248.871000", "154248.873000", "154248.876000", "154248.879000", "154248.881000", "154248.884000", "154248.886000", "154248.889000"],
      "InstanceCreationTime": ["153533.548000", "153533.551000", "153533.554000", "153533.556000", "153533.559000", "153533.562000", "153533.564000", "153533.583000", "153533.585000", "153533.588000", "153533.591000", "153533.593000", "153533.596000", "153533.599000", "153533.601000", "153533.604000", "153533.606000", "153533.609000", "153533.612000", "153533.614000", "153533.617000", "153533.619000", "153533.622000", "153533.625000", "153533.627000", "153533.630000", "153533.632000", "153533.635000", "153533.642000", "153613.532000", "153613.534000", "153613.537000", "153613.540000", "153613.542000", "153613.545000", "153613.548000", "153613.550000", "153613.561000", "153613.563000", "153613.567000", "153613.570000", "153613.572000", "153613.575000", "153613.577000", "153613.580000", "153613.582000", "153613.585000", "153613.587000", "153613.590000", "153613.593000", "153613.595000", "153613.598000", "153613.600000", "153613.603000", "153613.605000", "153613.608000", "153613.611000", "153613.613000", "153613.616000", "153613.618000", "153613.621000", "153613.624000", "153653.532000", "153653.534000", "153653.537000", "153653.539000", "153653.542000", "153653.545000", "153653.547000", "153653.550000", "153653.552000", "153653.555000", "153653.558000", "153653.560000", "153653.563000", "153653.566000", "153653.569000", "153653.571000", "153653.574000", "153653.577000", "153653.580000", "153653.582000", "153653.585000", "153653.588000", "153653.605000", "153653.608000", "153653.610000", "153653.613000", "153653.616000", "153653.618000", "153653.621000", "153653.623000", "153653.626000", "153653.629000", "153653.631000", "153733.531000", "153733.534000", "153733.537000", "153733.540000", "153733.542000", "153733.545000", "153733.547000", "153733.550000", "153733.552000", "153733.555000", "153733.558000", "153733.560000", "153733.563000", "153733.565000", "153733.568000", "153733.571000", "153733.573000", "153733.576000", "153733.578000", "153733.581000", "153733.583000", "153733.586000", "153733.589000", "153733.591000", "153733.594000", "153733.596000", "153733.599000", "153733.602000", "153733.604000", "153733.607000", "153733.609000", "153733.612000", "153733.614000", "153733.617000", "153813.532000", "153813.534000", "153813.537000", "153813.540000", "153813.542000", "153813.545000", "153813.548000", "153813.550000", "153813.553000", "153813.556000", "153813.558000", "153813.561000", "153813.563000", "153813.567000", "153813.570000", "153813.572000", "153813.575000", "153813.577000", "153813.580000", "153813.583000", "153813.585000", "153813.588000", "153813.590000", "153813.593000", "153813.596000", "153813.598000", "153813.601000", "153813.603000", "153813.606000", "153813.609000", "153813.611000", "153813.614000", "153813.617000", "153853.531000", "153853.534000", "153853.537000", "153853.539000", "153853.542000", "153853.545000", "153853.547000", "153853.550000", "153853.553000", "153853.555000", "153853.558000", "153853.560000", "153853.563000", "153853.566000", "153853.568000", "153853.571000", "153853.574000", "153853.577000", "153853.579000", "153853.582000", "153853.585000", "153853.606000", "153853.608000", "153853.611000", "153853.614000", "153853.616000", "153853.619000", "153853.622000", "153853.624000", "153853.627000", "153853.629000", "153853.632000", "153853.635000", "153933.532000", "153933.534000", "153933.537000", "153933.540000", "153933.542000", "153933.545000", "153933.547000", "153933.550000", "153933.553000", "153933.555000", "153933.558000", "153933.561000", "153933.563000", "153933.566000", "153933.577000", "153933.580000", "153933.583000", "153933.585000", "153933.588000", "153933.590000", "153933.593000", "153933.595000", "153933.598000", "153933.601000", "153933.603000", "153933.606000", "153933.608000", "153933.611000", "153933.621000", "153933.623000", "153933.626000", "153933.629000", "153933.631000", "153933.634000", "154013.531000", "154013.534000", "154013.537000", "154013.549000", "154013.552000", "154013.555000", "154013.557000", "154013.560000", "154013.562000", "154013.566000", "154013.569000", "154013.571000", "154013.574000", "154013.576000", "154013.579000", "154013.582000", "154013.584000", "154013.587000", "154013.589000", "154013.592000", "154013.595000", "154013.597000", "154013.600000", "154013.602000", "154013.605000", "154013.608000", "154013.610000", "154013.613000", "154013.615000", "154013.618000", "154013.621000", "154013.623000", "154013.626000", "154053.532000", "154053.535000", "154053.537000", "154053.540000", "154053.542000", "154053.545000", "154053.548000", "154053.550000", "154053.553000", "154053.556000", "154053.558000", "154053.561000", "154053.564000", "154053.566000", "154053.569000", "154053.572000", "154053.574000", "154053.577000", "154053.579000", "154053.582000", "154053.584000", "154053.587000", "154053.590000", "154053.592000", "154053.595000", "154053.597000", "154053.600000", "154053.602000", "154053.605000", "154053.608000", "154053.610000", "154053.613000", "154053.615000", "154133.532000", "154133.534000", "154133.537000", "154133.540000", "154133.542000", "154133.545000", "154133.547000", "154133.550000", "154133.553000", "154133.555000", "154133.558000", "154133.560000", "154133.563000", "154133.566000", "154133.568000", "154133.571000", "154133.573000", "154133.576000", "154133.578000", "154133.581000", "154133.584000", "154133.586000", "154133.589000", "154133.591000", "154133.594000", "154133.596000", "154133.599000", "154133.602000", "154133.609000", "154133.611000", "154133.614000", "154133.617000", "154133.619000", "154133.622000", "154213.532000", "154213.534000", "154213.537000", "154213.540000", "154213.542000", "154213.545000", "154213.548000", "154213.550000", "154213.553000", "154213.556000", "154213.558000", "154213.561000", "154213.563000", "154213.567000", "154213.570000", "154213.572000", "154213.575000", "154213.578000", "154213.580000", "154213.583000", "154213.585000", "154213.588000", "154213.590000", "154213.593000", "154213.596000", "154213.598000", "154213.601000", "154213.604000", "154213.606000", "154213.609000", "154213.611000", "154213.614000", "154213.617000", "154248.810000", "154248.813000", "154248.816000", "154248.818000", "154248.821000", "154248.824000", "154248.826000", "154248.829000", "154248.832000", "154248.834000", "154248.837000", "154248.839000", "154248.842000", "154248.845000", "154248.847000", "154248.850000", "154248.853000", "154248.856000", "154248.859000", "154248.862000", "154248.865000", "154248.868000", "154248.871000", "154248.873000", "154248.876000", "154248.879000", "154248.881000", "154248.884000", "154248.886000", "154248.889000"],
      "InstanceNumber": [1, 2, 3, 4, 5, 6, 7, 8, 9, 10, 11, 12, 13, 14, 15, 16, 17, 18, 19, 20, 21, 22, 23, 24, 25, 26, 27, 28, 29, 30, 31, 32, 33, 34, 35, 36, 37, 38, 39, 40, 41, 42, 43, 44, 45, 46, 47, 48, 49, 50, 51, 52, 53, 54, 55, 56, 57, 58, 59, 60, 61, 62, 63, 64, 65, 66, 67, 68, 69, 70, 71, 72, 73, 74, 75, 76, 77, 78, 79, 80, 81, 82, 83, 84, 85, 86, 87, 88, 89, 90, 91, 92, 93, 94, 95, 96, 97, 98, 99, 100, 101, 102, 103, 104, 105, 106, 107, 108, 109, 110, 111, 112, 113, 114, 115, 116, 117, 118, 119, 120, 121, 122, 123, 124, 125, 126, 127, 128, 129, 130, 131, 132, 133, 134, 135, 136, 137, 138, 139, 140, 141, 142, 143, 144, 145, 146, 147, 148, 149, 150, 151, 152, 153, 154, 155, 156, 157, 158, 159, 160, 161, 162, 163, 164, 165, 166, 167, 168, 169, 170, 171, 172, 173, 174, 175, 176, 177, 178, 179, 180, 181, 182, 183, 184, 185, 186, 187, 188, 189, 190, 191, 192, 193, 194, 195, 196, 197, 198, 199, 200, 201, 202, 203, 204, 205, 206, 207, 208, 209, 210, 211, 212, 213, 214, 215, 216, 217, 218, 219, 220, 221, 222, 223, 224, 225, 226, 227, 228, 229, 230, 231, 232, 233, 234, 235, 236, 237, 238, 239, 240, 241, 242, 243, 244, 245, 246, 247, 248, 249, 250, 251, 252, 253, 254, 255, 256, 257, 258, 259, 260, 261, 262, 263, 264, 265, 266, 267, 268, 269, 270, 271, 272, 273, 274, 275, 276, 277, 278, 279, 280, 281, 282, 283, 284, 285, 286, 287, 288, 289, 290, 291, 292, 293, 294, 295, 296, 297, 298, 299, 300, 301, 302, 303, 304, 305, 306, 307, 308, 309, 310, 311, 312, 313, 314, 315, 316, 317, 318, 319, 320, 321, 322, 323, 324, 325, 326, 327, 328, 329, 330, 331, 332, 333, 334, 335, 336, 337, 338, 339, 340, 341, 342, 343, 344, 345, 346, 347, 348, 349, 350, 351, 352, 353, 354, 355, 356, 357, 358, 359, 360, 361, 362, 363, 364, 365, 366, 367, 368, 369, 370, 371, 372, 373, 374, 375, 376, 377, 378, 379, 380, 381, 382, 383, 384, 385, 386, 387, 388, 389, 390, 391, 392],
