{
  "AcquisitionMatrixPE": 88,
  "AcquisitionNumber": 1,
  "AcquisitionTime": "15:11:26.295000",
  "BandwidthPerPixelPhaseEncode": 19.592,
  "BaseResolution": 88,
  "BodyPartExamined": "BRAIN",
  "ConsistencyInfo": "N4_VE11C_LATEST_20160120",
  "ConversionSoftware": "dcm2niix",
  "ConversionSoftwareVersion": "v1.0.20190902",
  "DerivedVendorReportedEchoSpacing": 0.000580014,
  "DeviceSerialNumber": "67050",
  "DwellTime": 2.6e-06,
  "EchoTime": 0.033,
  "EchoTrainLength": 88,
  "EffectiveEchoSpacing": 0.000580014,
  "FlipAngle": 62,
  "ImageOrientationPatientDICOM": [0.991057, 0.0969248, 0.0917156, -0.0828731, 0.98577, -0.146252],
  "ImageType": [
    "ORIGINAL",
    "PRIMARY",
    "M",
    "ND",
    "MOSAIC"
],
  "ImagingFrequency": 123.251,
  "InPlanePhaseEncodingDirectionDICOM": "COL",
  "InstitutionAddress": "Olive_Street_60_Providence_RI_US_02912",
  "InstitutionName": "BROWN_UNIVERSITY_MRF",
  "InstitutionalDepartmentName": "Department",
  "MRAcquisitionType": "2D",
  "MagneticFieldStrength": 3,
  "Manufacturer": "Siemens",
  "ManufacturersModelName": "Prisma_fit",
  "Modality": "MR",
  "MultibandAccelerationFactor": 4,
  "PartialFourier": 1,
  "PatientPosition": "HFS",
  "PercentPhaseFOV": 100,
  "PhaseEncodingDirection": "j-",
  "PhaseEncodingSteps": 88,
  "PhaseResolution": 1,
  "PixelBandwidth": 2185,
  "ProcedureStepDescription": "ASHENHAV_1222",
  "ProtocolName": "func-bold_task-RDMcolor_run-02",
  "PulseSequenceDetails": "%SiemensSeq%_ep2d_bold",
  "ReceiveCoilActiveElements": "HC1-7;NC1",
  "ReceiveCoilName": "HeadNeck_64",
  "ReconMatrixPE": 88,
  "RefLinesPE": 8,
  "RepetitionTime": 1.2,
  "SAR": 0.051366,
  "ScanOptions": "FS",
  "ScanningSequence": "EP",
  "SequenceName": "_epfid2d1_88",
  "SequenceVariant": "SK",
  "SeriesDescription": "func-bold_task-RDMcolor_run-02",
  "SeriesNumber": 10,
  "ShimSetting": [1772, -9082, 4374, 419, -100, -83, 116, 0],
  "SliceThickness": 2.4,
  "SliceTiming": [0.5525, 0, 0.63, 0.08, 0.71, 0.1575, 0.7875, 0.2375, 0.865, 0.315, 0.945, 0.395, 1.0225, 0.4725, 1.1025, 0.5525, 0, 0.63, 0.08, 0.71, 0.1575, 0.7875, 0.2375, 0.865, 0.315, 0.945, 0.395, 1.0225, 0.4725, 1.1025, 0.5525, 0, 0.63, 0.08, 0.71, 0.1575, 0.7875, 0.2375, 0.865, 0.315, 0.945, 0.395, 1.0225, 0.4725, 1.1025, 0.5525, 0, 0.63, 0.08, 0.71, 0.1575, 0.7875, 0.2375, 0.865, 0.315, 0.945, 0.395, 1.0225, 0.4725, 1.1025],
  "SoftwareVersions": "syngo_MR_E11",
  "SpacingBetweenSlices": 2.4,
  "StationName": "AWP67050",
  "TaskName": "RDMcolor",
  "TotalReadoutTime": 0.0504612,
  "TxRefAmp": 242.525,
  "dcmmeta_affine": [
    [-2.376284122467041, -0.1987069845199585, 0.2510063946247101, 108.60192108154297],
    [-0.23239925503730774, 2.363607406616211, -0.32962509989738464, -75.3448486328125],
    [0.21990905702114105, 0.3506736159324646, 2.3639676570892334, -94.71685791015625],
    [0.0, 0.0, 0.0, 1.0]
],
  "dcmmeta_reorient_transform": [
    [0.0, -1.0, 0.0, 87.0],
    [1.0, 0.0, 0.0, 0.0],
    [0.0, 0.0, 1.0, 0.0],
    [0.0, 0.0, 0.0, 1.0]
],
  "dcmmeta_shape": [88, 88, 60, 392],
  "dcmmeta_slice_dim": 2,
  "dcmmeta_version": 0.6,
  "global": {
    "const": {
      "AcquisitionMatrix": [88, 0, 0, 88],
      "AngioFlag": "N",
      "BitsAllocated": 16,
      "BitsStored": 12,
      "BodyPartExamined": "BRAIN",
      "Columns": 704,
      "DeidentificationMethodCodeSequence": [
        {
          "CodeMeaning": "XNAT DicomEdit 6 Script",
          "CodeValue": "3",
          "CodingSchemeDesignator": "XNAT",
          "CodingSchemeVersion": "1.0"}
],
      "EchoNumbers": 1,
      "EchoTime": 33.0,
      "EchoTrainLength": 88,
      "FlipAngle": 62.0,
      "HighBit": 11,
      "ImageOrientationPatient": [0.99105692322453, 0.09692480945648, 0.09171562702479, -0.0828730584552, 0.98576988307837, -0.1462525001425],
      "ImagePositionPatient": [-762.00819298378, -929.85900950473, -23.93277067902],
      "ImageType": [
        "ORIGINAL",
        "PRIMARY",
        "M",
        "ND",
        "MOSAIC"
],
      "ImagedNucleus": "1H",
      "ImagingFrequency": 123.250609,
      "InPlanePhaseEncodingDirection": "COL",
      "MRAcquisitionType": "2D",
      "MagneticFieldStrength": 3.0,
      "Manufacturer": "SIEMENS",
      "ManufacturerModelName": "Prisma_fit",
      "Modality": "MR",
      "NumberOfAverages": 1.0,
      "NumberOfPhaseEncodingSteps": 88,
      "PercentPhaseFieldOfView": 100.0,
      "PercentSampling": 100.0,
      "PerformedProcedureStepStartTime": "141126.402000",
      "PhotometricInterpretation": "MONOCHROME2",
      "PixelBandwidth": 2185.0,
      "PixelRepresentation": 0,
      "PixelSpacing": [2.3977272510529, 2.3977272510529],
      "ProtocolName": "func-bold_task-RDMcolor_run-02",
      "RepetitionTime": 1200.0,
      "Rows": 704,
      "SAR": 0.05136603326837,
      "SamplesPerPixel": 1,
      "ScanOptions": "FS",
      "ScanningSequence": "EP",
      "SequenceName": "*epfid2d1_88",
      "SequenceVariant": "SK",
      "SeriesDescription": "func-bold_task-RDMcolor_run-02",
      "SeriesNumber": 10,
      "SeriesTime": "151131.875000",
      "SliceLocation": -71.588436972607,
      "SliceThickness": 2.4000000953674,
      "SmallestImagePixelValue": 0,
      "SoftwareVersions": "syngo MR E11",
      "SpacingBetweenSlices": 2.399999981894,
      "SpecificCharacterSet": "ISO_IR 100",
      "StudyID": "1",
      "StudyTime": "141126.275000",
      "TransmitCoilName": "Body",
      "VariableFlipAngleFlag": "N",
      "WindowCenterWidthExplanation": "Algo1",
      "dBdt": 0.0},
    "slices": {}
  },
  "time": {
    "samples": {
      "AcquisitionNumber": [1, 2, 3, 4, 5, 6, 7, 8, 9, 10, 11, 12, 13, 14, 15, 16, 17, 18, 19, 20, 21, 22, 23, 24, 25, 26, 27, 28, 29, 30, 31, 32, 33, 34, 35, 36, 37, 38, 39, 40, 41, 42, 43, 44, 45, 46, 47, 48, 49, 50, 51, 52, 53, 54, 55, 56, 57, 58, 59, 60, 61, 62, 63, 64, 65, 66, 67, 68, 69, 70, 71, 72, 73, 74, 75, 76, 77, 78, 79, 80, 81, 82, 83, 84, 85, 86, 87, 88, 89, 90, 91, 92, 93, 94, 95, 96, 97, 98, 99, 100, 101, 102, 103, 104, 105, 106, 107, 108, 109, 110, 111, 112, 113, 114, 115, 116, 117, 118, 119, 120, 121, 122, 123, 124, 125, 126, 127, 128, 129, 130, 131, 132, 133, 134, 135, 136, 137, 138, 139, 140, 141, 142, 143, 144, 145, 146, 147, 148, 149, 150, 151, 152, 153, 154, 155, 156, 157, 158, 159, 160, 161, 162, 163, 164, 165, 166, 167, 168, 169, 170, 171, 172, 173, 174, 175, 176, 177, 178, 179, 180, 181, 182, 183, 184, 185, 186, 187, 188, 189, 190, 191, 192, 193, 194, 195, 196, 197, 198, 199, 200, 201, 202, 203, 204, 205, 206, 207, 208, 209, 210, 211, 212, 213, 214, 215, 216, 217, 218, 219, 220, 221, 222, 223, 224, 225, 226, 227, 228, 229, 230, 231, 232, 233, 234, 235, 236, 237, 238, 239, 240, 241, 242, 243, 244, 245, 246, 247, 248, 249, 250, 251, 252, 253, 254, 255, 256, 257, 258, 259, 260, 261, 262, 263, 264, 265, 266, 267, 268, 269, 270, 271, 272, 273, 274, 275, 276, 277, 278, 279, 280, 281, 282, 283, 284, 285, 286, 287, 288, 289, 290, 291, 292, 293, 294, 295, 296, 297, 298, 299, 300, 301, 302, 303, 304, 305, 306, 307, 308, 309, 310, 311, 312, 313, 314, 315, 316, 317, 318, 319, 320, 321, 322, 323, 324, 325, 326, 327, 328, 329, 330, 331, 332, 333, 334, 335, 336, 337, 338, 339, 340, 341, 342, 343, 344, 345, 346, 347, 348, 349, 350, 351, 352, 353, 354, 355, 356, 357, 358, 359, 360, 361, 362, 363, 364, 365, 366, 367, 368, 369, 370, 371, 372, 373, 374, 375, 376, 377, 378, 379, 380, 381, 382, 383, 384, 385, 386, 387, 388, 389, 390, 391, 392],
      "AcquisitionTime": ["151126.295000", "151127.495000", "151128.695000", "151129.895000", "151131.095000", "151132.295000", "151133.495000", "151134.695000", "151135.895000", "151137.095000", "151138.295000", "151139.495000", "151140.695000", "151141.895000", "151143.095000", "151144.295000", "151145.495000", "151146.695000", "151147.895000", "151149.095000", "151150.295000", "151151.495000", "151152.695000", "151153.895000", "151155.095000", "151156.295000", "151157.495000", "151158.695000", "151159.895000", "151201.095000", "151202.295000", "151203.495000", "151204.695000", "151205.895000", "151207.095000", "151208.295000", "151209.495000", "151210.695000", "151211.895000", "151213.095000", "151214.295000", "151215.495000", "151216.695000", "151217.895000", "151219.095000", "151220.295000", "151221.495000", "151222.695000", "151223.895000", "151225.095000", "151226.295000", "151227.495000", "151228.695000", "151229.895000", "151231.095000", "151232.295000", "151233.495000", "151234.695000", "151235.895000", "151237.095000", "151238.295000", "151239.495000", "151240.695000", "151241.895000", "151243.095000", "151244.295000", "151245.495000", "151246.695000", "151247.895000", "151249.095000", "151250.295000", "151251.495000", "151252.695000", "151253.895000", "151255.095000", "151256.295000", "151257.495000", "151258.695000", "151259.895000", "151301.095000", "151302.295000", "151303.495000", "151304.695000", "151305.895000", "151307.095000", "151308.295000", "151309.495000", "151310.695000", "151311.895000", "151313.095000", "151314.295000", "151315.495000", "151316.695000", "151317.895000", "151319.095000", "151320.295000", "151321.495000", "151322.695000", "151323.895000", "151325.095000", "151326.295000", "151327.495000", "151328.695000", "151329.895000", "151331.095000", "151332.295000", "151333.495000", "151334.695000", "151335.895000", "151337.095000", "151338.295000", "151339.495000", "151340.695000", "151341.895000", "151343.095000", "151344.295000", "151345.495000", "151346.695000", "151347.895000", "151349.095000", "151350.295000", "151351.495000", "151352.695000", "151353.895000", "151355.095000", "151356.295000", "151357.495000", "151358.695000", "151359.895000", "151401.095000", "151402.295000", "151403.495000", "151404.695000", "151405.895000", "151407.095000", "151408.295000", "151409.495000", "151410.695000", "151411.895000", "151413.095000", "151414.295000", "151415.495000", "151416.695000", "151417.895000", "151419.095000", "151420.295000", "151421.495000", "151422.695000", "151423.895000", "151425.095000", "151426.295000", "151427.495000", "151428.695000", "151429.895000", "151431.095000", "151432.295000", "151433.495000", "151434.695000", "151435.895000", "151437.095000", "151438.295000", "151439.495000", "151440.695000", "151441.895000", "151443.095000", "151444.295000", "151445.495000", "151446.695000", "151447.895000", "151449.095000", "151450.295000", "151451.495000", "151452.695000", "151453.895000", "151455.095000", "151456.295000", "151457.495000", "151458.695000", "151459.895000", "151501.095000", "151502.295000", "151503.495000", "151504.695000", "151505.895000", "151507.095000", "151508.295000", "151509.495000", "151510.695000", "151511.895000", "151513.095000", "151514.295000", "151515.495000", "151516.695000", "151517.895000", "151519.095000", "151520.295000", "151521.495000", "151522.695000", "151523.895000", "151525.095000", "151526.295000", "151527.495000", "151528.695000", "151529.895000", "151531.095000", "151532.295000", "151533.495000", "151534.695000", "151535.895000", "151537.095000", "151538.295000", "151539.495000", "151540.695000", "151541.895000", "151543.095000", "151544.295000", "151545.495000", "151546.695000", "151547.895000", "151549.095000", "151550.295000", "151551.495000", "151552.695000", "151553.895000", "151555.095000", "151556.295000", "151557.495000", "151558.695000", "151559.895000", "151601.095000", "151602.295000", "151603.495000", "151604.695000", "151605.895000", "151607.095000", "151608.295000", "151609.495000", "151610.695000", "151611.895000", "151613.095000", "151614.295000", "151615.495000", "151616.695000", "151617.895000", "151619.095000", "151620.295000", "151621.495000", "151622.695000", "151623.895000", "151625.095000", "151626.295000", "151627.495000", "151628.695000", "151629.895000", "151631.095000", "151632.295000", "151633.495000", "151634.695000", "151635.895000", "151637.095000", "151638.295000", "151639.495000", "151640.695000", "151641.895000", "151643.095000", "151644.295000", "151645.495000", "151646.695000", "151647.895000", "151649.095000", "151650.295000", "151651.495000", "151652.695000", "151653.895000", "151655.095000", "151656.295000", "151657.495000", "151658.695000", "151659.895000", "151701.095000", "151702.295000", "151703.495000", "151704.695000", "151705.895000", "151707.095000", "151708.295000", "151709.495000", "151710.695000", "151711.895000", "151713.095000", "151714.295000", "151715.495000", "151716.695000", "151717.895000", "151719.095000", "151720.295000", "151721.495000", "151722.695000", "151723.895000", "151725.095000", "151726.295000", "151727.495000", "151728.695000", "151729.895000", "151731.095000", "151732.295000", "151733.495000", "151734.695000", "151735.895000", "151737.095000", "151738.295000", "151739.495000", "151740.695000", "151741.895000", "151743.095000", "151744.295000", "151745.495000", "151746.695000", "151747.895000", "151749.095000", "151750.295000", "151751.495000", "151752.695000", "151753.895000", "151755.095000", "151756.295000", "151757.495000", "151758.695000", "151759.895000", "151801.095000", "151802.295000", "151803.495000", "151804.695000", "151805.895000", "151807.095000", "151808.295000", "151809.495000", "151810.695000", "151811.895000", "151813.095000", "151814.295000", "151815.495000", "151816.695000", "151817.895000", "151819.095000", "151820.295000", "151821.495000", "151822.695000", "151823.895000", "151825.095000", "151826.295000", "151827.495000", "151828.695000", "151829.895000", "151831.095000", "151832.295000", "151833.495000", "151834.695000", "151835.895000", "151837.095000", "151838.295000", "151839.495000", "151840.695000", "151841.895000", "151843.095000", "151844.295000", "151845.495000", "151846.695000", "151847.895000", "151849.095000", "151850.295000", "151851.495000", "151852.695000", "151853.895000", "151855.095000", "151856.295000", "151857.495000", "151858.695000", "151859.895000", "151901.095000", "151902.295000", "151903.495000", "151904.695000", "151905.895000", "151907.095000", "151908.295000", "151909.495000", "151910.695000", "151911.895000", "151913.095000", "151914.295000", "151915.495000"],
      "ContentTime": ["151131.878000", "151131.881000", "151131.884000", "151131.887000", "151211.874000", "151211.876000", "151211.879000", "151211.882000", "151211.884000", "151211.887000", "151211.889000", "151211.892000", "151211.895000", "151211.897000", "151211.900000", "151211.902000", "151211.905000", "151211.908000", "151211.911000", "151211.913000", "151211.916000", "151211.918000", "151211.921000", "151211.923000", "151211.926000", "151211.929000", "151211.931000", "151211.934000", "151211.937000", "151211.939000", "151211.942000", "151211.944000", "151211.947000", "151211.949000", "151211.952000", "151211.955000", "151211.959000", "151251.873000", "151251.877000", "151251.879000", "151251.882000", "151251.884000", "151251.887000", "151251.890000", "151251.892000", "151251.895000", "151251.897000", "151251.900000", "151251.902000", "151251.905000", "151251.917000", "151251.920000", "151251.922000", "151251.925000", "151251.928000", "151251.931000", "151251.933000", "151251.936000", "151251.939000", "151251.941000", "151251.944000", "151251.946000", "151251.949000", "151251.951000", "151251.954000", "151251.957000", "151251.959000", "151251.962000", "151251.965000", "151251.967000", "151331.873000", "151331.875000", "151331.878000", "151331.881000", "151331.883000", "151331.886000", "151331.888000", "151331.891000", "151331.894000", "151331.896000", "151331.899000", "151331.901000", "151331.904000", "151331.907000", "151331.909000", "151331.912000", "151331.914000", "151331.917000", "151331.920000", "151331.922000", "151331.925000", "151331.927000", "151331.930000", "151331.937000", "151331.940000", "151331.943000", "151331.945000", "151331.948000", "151331.950000", "151331.953000", "151331.956000", "151331.958000", "151331.961000", "151331.963000", "151411.874000", "151411.876000", "151411.879000", "151411.891000", "151411.894000", "151411.896000", "151411.899000", "151411.901000", "151411.904000", "151411.907000", "151411.909000", "151411.912000", "151411.914000", "151411.917000", "151411.920000", "151411.922000", "151411.925000", "151411.928000", "151411.930000", "151411.933000", "151411.935000", "151411.938000", "151411.941000", "151411.943000", "151411.946000", "151411.948000", "151411.951000", "151411.954000", "151411.956000", "151411.959000", "151411.961000", "151411.964000", "151411.966000", "151451.873000", "151451.876000", "151451.879000", "151451.881000", "151451.884000", "151451.887000", "151451.889000", "151451.905000", "151451.908000", "151451.911000", "151451.913000", "151451.916000", "151451.918000", "151451.921000", "151451.924000", "151451.926000", "151451.929000", "151451.932000", "151451.934000", "151451.937000", "151451.939000", "151451.942000", "151451.945000", "151451.947000", "151451.950000", "151451.952000", "151451.955000", "151451.958000", "151451.960000", "151451.963000", "151451.965000", "151451.968000", "151451.970000", "151531.872000", "151531.875000", "151531.878000", "151531.880000", "151531.883000", "151531.886000", "151531.893000", "151531.896000", "151531.899000", "151531.901000", "151531.904000", "151531.907000", "151531.909000", "151531.912000", "151531.915000", "151531.917000", "151531.920000", "151531.922000", "151531.925000", "151531.928000", "151531.930000", "151531.933000", "151531.936000", "151531.938000", "151531.941000", "151531.943000", "151531.946000", "151531.949000", "151531.951000", "151531.954000", "151531.957000", "151531.959000", "151531.962000", "151531.964000", "151611.874000", "151611.876000", "151611.879000", "151611.882000", "151611.884000", "151611.887000", "151611.889000", "151611.892000", "151611.895000", "151611.897000", "151611.900000", "151611.902000", "151611.905000", "151611.908000", "151611.910000", "151611.913000", "151611.915000", "151611.918000", "151611.921000", "151611.923000", "151611.926000", "151611.929000", "151611.931000", "151611.934000", "151611.936000", "151611.939000", "151611.941000", "151611.944000", "151611.947000", "151611.949000", "151611.952000", "151611.954000", "151611.957000", "151651.874000", "151651.877000", "151651.879000", "151651.882000", "151651.893000", "151651.895000", "151651.898000", "151651.901000", "151651.903000", "151651.906000", "151651.908000", "151651.911000", "151651.914000", "151651.916000", "151651.919000", "151651.922000", "151651.924000", "151651.927000", "151651.930000", "151651.932000", "151651.935000", "151651.938000", "151651.940000", "151651.943000", "151651.945000", "151651.948000", "151651.951000", "151651.953000", "151651.956000", "151651.959000", "151651.961000", "151651.964000", "151651.966000", "151731.874000", "151731.877000", "151731.879000", "151731.882000", "151731.885000", "151731.887000", "151731.890000", "151731.892000", "151731.895000", "151731.898000", "151731.900000", "151731.903000", "151731.905000", "151731.908000", "151731.910000", "151731.913000", "151731.915000", "151731.918000", "151731.921000", "151731.923000", "151731.926000", "151731.928000", "151731.931000", "151731.934000", "151731.936000", "151731.939000", "151731.941000", "151731.944000", "151731.946000", "151731.949000", "151731.951000", "151731.954000", "151731.957000", "151731.959000", "151811.873000", "151811.875000", "151811.878000", "151811.881000", "151811.883000", "151811.886000", "151811.888000", "151811.891000", "151811.893000", "151811.896000", "151811.899000", "151811.901000", "151811.904000", "151811.906000", "151811.909000", "151811.911000", "151811.914000", "151811.916000", "151811.919000", "151811.921000", "151811.924000", "151811.927000", "151811.929000", "151811.932000", "151811.934000", "151811.937000", "151811.940000", "151811.942000", "151811.945000", "151811.947000", "151811.950000", "151811.952000", "151811.955000", "151851.873000", "151851.876000", "151851.879000", "151851.897000", "151851.900000", "151851.903000", "151851.905000", "151851.908000", "151851.910000", "151851.913000", "151851.916000", "151851.918000", "151851.921000", "151851.923000", "151851.926000", "151851.929000", "151851.931000", "151851.934000", "151851.937000", "151851.939000", "151851.942000", "151851.945000", "151851.947000", "151851.950000", "151851.952000", "151851.955000", "151851.958000", "151851.960000", "151851.963000", "151851.966000", "151851.968000", "151851.971000", "151851.973000", "151917.502000", "151917.505000", "151917.508000", "151917.510000", "151917.513000", "151917.516000", "151917.518000", "151917.524000", "151917.527000", "151917.529000", "151917.532000", "151917.534000", "151917.537000", "151917.540000", "151917.542000", "151917.545000", "151917.548000", "151917.550000", "151917.553000", "151917.556000", "151917.558000", "151917.561000"],
      "InstanceCreationTime": ["151131.878000", "151131.881000", "151131.884000", "151131.887000", "151211.874000", "151211.876000", "151211.879000", "151211.882000", "151211.884000", "151211.887000", "151211.889000", "151211.892000", "151211.895000", "151211.897000", "151211.900000", "151211.902000", "151211.905000", "151211.908000", "151211.911000", "151211.913000", "151211.916000", "151211.918000", "151211.921000", "151211.923000", "151211.926000", "151211.929000", "151211.931000", "151211.934000", "151211.937000", "151211.939000", "151211.942000", "151211.944000", "151211.947000", "151211.949000", "151211.952000", "151211.955000", "151211.959000", "151251.873000", "151251.877000", "151251.879000", "151251.882000", "151251.884000", "151251.887000", "151251.890000", "151251.892000", "151251.895000", "151251.897000", "151251.900000", "151251.902000", "151251.905000", "151251.917000", "151251.920000", "151251.922000", "151251.925000", "151251.928000", "151251.931000", "151251.933000", "151251.936000", "151251.939000", "151251.941000", "151251.944000", "151251.946000", "151251.949000", "151251.951000", "151251.954000", "151251.957000", "151251.959000", "151251.962000", "151251.965000", "151251.967000", "151331.873000", "151331.875000", "151331.878000", "151331.881000", "151331.883000", "151331.886000", "151331.888000", "151331.891000", "151331.894000", "151331.896000", "151331.899000", "151331.901000", "151331.904000", "151331.907000", "151331.909000", "151331.912000", "151331.914000", "151331.917000", "151331.920000", "151331.922000", "151331.925000", "151331.927000", "151331.930000", "151331.937000", "151331.940000", "151331.943000", "151331.945000", "151331.948000", "151331.950000", "151331.953000", "151331.956000", "151331.958000", "151331.961000", "151331.963000", "151411.874000", "151411.876000", "151411.879000", "151411.891000", "151411.894000", "151411.896000", "151411.899000", "151411.901000", "151411.904000", "151411.907000", "151411.909000", "151411.912000", "151411.914000", "151411.917000", "151411.920000", "151411.922000", "151411.925000", "151411.928000", "151411.930000", "151411.933000", "151411.935000", "151411.938000", "151411.941000", "151411.943000", "151411.946000", "151411.948000", "151411.951000", "151411.954000", "151411.956000", "151411.959000", "151411.961000", "151411.964000", "151411.966000", "151451.873000", "151451.876000", "151451.879000", "151451.881000", "151451.884000", "151451.887000", "151451.889000", "151451.905000", "151451.908000", "151451.911000", "151451.913000", "151451.916000", "151451.918000", "151451.921000", "151451.924000", "151451.926000", "151451.929000", "151451.932000", "151451.934000", "151451.937000", "151451.939000", "151451.942000", "151451.945000", "151451.947000", "151451.950000", "151451.952000", "151451.955000", "151451.958000", "151451.960000", "151451.963000", "151451.965000", "151451.968000", "151451.970000", "151531.872000", "151531.875000", "151531.878000", "151531.880000", "151531.883000", "151531.886000", "151531.893000", "151531.896000", "151531.899000", "151531.901000", "151531.904000", "151531.907000", "151531.909000", "151531.912000", "151531.915000", "151531.917000", "151531.920000", "151531.922000", "151531.925000", "151531.928000", "151531.930000", "151531.933000", "151531.936000", "151531.938000", "151531.941000", "151531.943000", "151531.946000", "151531.949000", "151531.951000", "151531.954000", "151531.957000", "151531.959000", "151531.962000", "151531.964000", "151611.874000", "151611.876000", "151611.879000", "151611.882000", "151611.884000", "151611.887000", "151611.889000", "151611.892000", "151611.895000", "151611.897000", "151611.900000", "151611.902000", "151611.905000", "151611.908000", "151611.910000", "151611.913000", "151611.915000", "151611.918000", "151611.921000", "151611.923000", "151611.926000", "151611.929000", "151611.931000", "151611.934000", "151611.936000", "151611.939000", "151611.941000", "151611.944000", "151611.947000", "151611.949000", "151611.952000", "151611.954000", "151611.957000", "151651.874000", "151651.877000", "151651.879000", "151651.882000", "151651.893000", "151651.895000", "151651.898000", "151651.901000", "151651.903000", "151651.906000", "151651.908000", "151651.911000", "151651.914000", "151651.916000", "151651.919000", "151651.922000", "151651.924000", "151651.927000", "151651.930000", "151651.932000", "151651.935000", "151651.938000", "151651.940000", "151651.943000", "151651.945000", "151651.948000", "151651.951000", "151651.953000", "151651.956000", "151651.959000", "151651.961000", "151651.964000", "151651.966000", "151731.874000", "151731.877000", "151731.879000", "151731.882000", "151731.885000", "151731.887000", "151731.890000", "151731.892000", "151731.895000", "151731.898000", "151731.900000", "151731.903000", "151731.905000", "151731.908000", "151731.910000", "151731.913000", "151731.915000", "151731.918000", "151731.921000", "151731.923000", "151731.926000", "151731.928000", "151731.931000", "151731.934000", "151731.936000", "151731.939000", "151731.941000", "151731.944000", "151731.946000", "151731.949000", "151731.951000", "151731.954000", "151731.957000", "151731.959000", "151811.873000", "151811.875000", "151811.878000", "151811.881000", "151811.883000", "151811.886000", "151811.888000", "151811.891000", "151811.893000", "151811.896000", "151811.899000", "151811.901000", "151811.904000", "151811.906000", "151811.909000", "151811.911000", "151811.914000", "151811.916000", "151811.919000", "151811.921000", "151811.924000", "151811.927000", "151811.929000", "151811.932000", "151811.934000", "151811.937000", "151811.940000", "151811.942000", "151811.945000", "151811.947000", "151811.950000", "151811.952000", "151811.955000", "151851.873000", "151851.876000", "151851.879000", "151851.897000", "151851.900000", "151851.903000", "151851.905000", "151851.908000", "151851.910000", "151851.913000", "151851.916000", "151851.918000", "151851.921000", "151851.923000", "151851.926000", "151851.929000", "151851.931000", "151851.934000", "151851.937000", "151851.939000", "151851.942000", "151851.945000", "151851.947000", "151851.950000", "151851.952000", "151851.955000", "151851.958000", "151851.960000", "151851.963000", "151851.966000", "151851.968000", "151851.971000", "151851.973000", "151917.502000", "151917.505000", "151917.508000", "151917.510000", "151917.513000", "151917.516000", "151917.518000", "151917.524000", "151917.527000", "151917.529000", "151917.532000", "151917.534000", "151917.537000", "151917.540000", "151917.542000", "151917.545000", "151917.548000", "151917.550000", "151917.553000", "151917.556000", "151917.558000", "151917.561000"],
      "InstanceNumber": [1, 2, 3, 4, 5, 6, 7, 8, 9, 10, 11, 12, 13, 14, 15, 16, 17, 18, 19, 20, 21, 22, 23, 24, 25, 26, 27, 28, 29, 30, 31, 32, 33, 34, 35, 36, 37, 38, 39, 40, 41, 42, 43, 44, 45, 46, 47, 48, 49, 50, 51, 52, 53, 54, 55, 56, 57, 58, 59, 60, 61, 62, 63, 64, 65, 66, 67, 68, 69, 70, 71, 72, 73, 74, 75, 76, 77, 78, 79, 80, 81, 82, 83, 84, 85, 86, 87, 88, 89, 90, 91, 92, 93, 94, 95, 96, 97, 98, 99, 100, 101, 102, 103, 104, 105, 106, 107, 108, 109, 110, 111, 112, 113, 114, 115, 116, 117, 118, 119, 120, 121, 122, 123, 124, 125, 126, 127, 128, 129, 130, 131, 132, 133, 134, 135, 136, 137, 138, 139, 140, 141, 142, 143, 144, 145, 146, 147, 148, 149, 150, 151, 152, 153, 154, 155, 156, 157, 158, 159, 160, 161, 162, 163, 164, 165, 166, 167, 168, 169, 170, 171, 172, 173, 174, 175, 176, 177, 178, 179, 180, 181, 182, 183, 184, 185, 186, 187, 188, 189, 190, 191, 192, 193, 194, 195, 196, 197, 198, 199, 200, 201, 202, 203, 204, 205, 206, 207, 208, 209, 210, 211, 212, 213, 214, 215, 216, 217, 218, 219, 220, 221, 222, 223, 224, 225, 226, 227, 228, 229, 230, 231, 232, 233, 234, 235, 236, 237, 238, 239, 240, 241, 242, 243, 244, 245, 246, 247, 248, 249, 250, 251, 252, 253, 254, 255, 256, 257, 258, 259, 260, 261, 262, 263, 264, 265, 266, 267, 268, 269, 270, 271, 272, 273, 274, 275, 276, 277, 278, 279, 280, 281, 282, 283, 284, 285, 286, 287, 288, 289, 290, 291, 292, 293, 294, 295, 296, 297, 298, 299, 300, 301, 302, 303, 304, 305, 306, 307, 308, 309, 310, 311, 312, 313, 314, 315, 316, 317, 318, 319, 320, 321, 322, 323, 324, 325, 326, 327, 328, 329, 330, 331, 332, 333, 334, 335, 336, 337, 338, 339, 340, 341, 342, 343, 344, 345, 346, 347, 348, 349, 350, 351, 352, 353, 354, 355, 356, 357, 358, 359, 360, 361, 362, 363, 364, 365, 366, 367, 368, 369, 370, 371, 372, 373, 374, 375, 376, 377, 378, 379, 380, 381, 382, 383, 384, 385, 386, 387, 388, 389, 390, 391, 392],
