{
  "AcquisitionMatrixPE": 88,
  "AcquisitionNumber": 1,
  "AcquisitionTime": "16:00:1.110000",
  "BandwidthPerPixelPhaseEncode": 19.592,
  "BaseResolution": 88,
  "BodyPartExamined": "BRAIN",
  "ConsistencyInfo": "N4_VE11C_LATEST_20160120",
  "ConversionSoftware": "dcm2niix",
  "ConversionSoftwareVersion": "v1.0.20190902",
  "DerivedVendorReportedEchoSpacing": 0.000580014,
  "DeviceSerialNumber": "67050",
  "DwellTime": 2.6e-06,
  "EchoTime": 0.033,
  "EchoTrainLength": 88,
  "EffectiveEchoSpacing": 0.000580014,
  "FlipAngle": 62,
  "ImageOrientationPatientDICOM": [0.991057, 0.0969248, 0.0917156, -0.0828731, 0.98577, -0.146252],
  "ImageType": [
    "ORIGINAL",
    "PRIMARY",
    "M",
    "ND",
    "MOSAIC"
],
  "ImagingFrequency": 123.251,
  "InPlanePhaseEncodingDirectionDICOM": "COL",
  "InstitutionAddress": "Olive_Street_60_Providence_RI_US_02912",
  "InstitutionName": "BROWN_UNIVERSITY_MRF",
  "InstitutionalDepartmentName": "Department",
  "MRAcquisitionType": "2D",
  "MagneticFieldStrength": 3,
  "Manufacturer": "Siemens",
  "ManufacturersModelName": "Prisma_fit",
  "Modality": "MR",
  "MultibandAccelerationFactor": 4,
  "PartialFourier": 1,
  "PatientPosition": "HFS",
  "PercentPhaseFOV": 100,
  "PhaseEncodingDirection": "j-",
  "PhaseEncodingSteps": 88,
  "PhaseResolution": 1,
  "PixelBandwidth": 2185,
  "ProcedureStepDescription": "ASHENHAV_1222",
  "ProtocolName": "func-bold_task-RDMcolor_run-06",
  "PulseSequenceDetails": "%SiemensSeq%_ep2d_bold",
  "ReceiveCoilActiveElements": "HC1-7;NC1",
  "ReceiveCoilName": "HeadNeck_64",
  "ReconMatrixPE": 88,
  "RefLinesPE": 8,
  "RepetitionTime": 1.2,
  "SAR": 0.051366,
  "ScanOptions": "FS",
  "ScanningSequence": "EP",
  "SequenceName": "_epfid2d1_88",
  "SequenceVariant": "SK",
  "SeriesDescription": "func-bold_task-RDMcolor_run-06",
  "SeriesNumber": 18,
  "ShimSetting": [1772, -9082, 4374, 419, -100, -83, 116, 0],
  "SliceThickness": 2.4,
  "SliceTiming": [0.5525, 0, 0.63, 0.08, 0.71, 0.1575, 0.7875, 0.2375, 0.8675, 0.315, 0.945, 0.395, 1.0225, 0.4725, 1.1025, 0.5525, 0, 0.63, 0.08, 0.71, 0.1575, 0.7875, 0.2375, 0.8675, 0.315, 0.945, 0.395, 1.0225, 0.4725, 1.1025, 0.5525, 0, 0.63, 0.08, 0.71, 0.1575, 0.7875, 0.2375, 0.8675, 0.315, 0.945, 0.395, 1.0225, 0.4725, 1.1025, 0.5525, 0, 0.63, 0.08, 0.71, 0.1575, 0.7875, 0.2375, 0.8675, 0.315, 0.945, 0.395, 1.0225, 0.4725, 1.1025],
  "SoftwareVersions": "syngo_MR_E11",
  "SpacingBetweenSlices": 2.4,
  "StationName": "AWP67050",
  "TaskName": "RDMcolor",
  "TotalReadoutTime": 0.0504612,
  "TxRefAmp": 242.525,
  "dcmmeta_affine": [
    [-2.376284122467041, -0.1987069845199585, 0.2510063946247101, 108.60192108154297],
    [-0.23239925503730774, 2.363607406616211, -0.32962509989738464, -75.3448486328125],
    [0.21990905702114105, 0.3506736159324646, 2.3639676570892334, -94.71685791015625],
    [0.0, 0.0, 0.0, 1.0]
],
  "dcmmeta_reorient_transform": [
    [0.0, -1.0, 0.0, 87.0],
    [1.0, 0.0, 0.0, 0.0],
    [0.0, 0.0, 1.0, 0.0],
    [0.0, 0.0, 0.0, 1.0]
],
  "dcmmeta_shape": [88, 88, 60, 392],
  "dcmmeta_slice_dim": 2,
  "dcmmeta_version": 0.6,
  "global": {
    "const": {
      "AcquisitionMatrix": [88, 0, 0, 88],
      "AngioFlag": "N",
      "BitsAllocated": 16,
      "BitsStored": 12,
      "BodyPartExamined": "BRAIN",
      "Columns": 704,
      "DeidentificationMethodCodeSequence": [
        {
          "CodeMeaning": "XNAT DicomEdit 6 Script",
          "CodeValue": "3",
          "CodingSchemeDesignator": "XNAT",
          "CodingSchemeVersion": "1.0"}
],
      "EchoNumbers": 1,
      "EchoTime": 33.0,
      "EchoTrainLength": 88,
      "FlipAngle": 62.0,
      "HighBit": 11,
      "ImageOrientationPatient": [0.99105692322453, 0.09692480945648, 0.09171562702479, -0.0828730584552, 0.98576988307837, -0.1462525001425],
      "ImagePositionPatient": [-762.00819298378, -929.85900950473, -23.93277067902],
      "ImageType": [
        "ORIGINAL",
        "PRIMARY",
        "M",
        "ND",
        "MOSAIC"
],
      "ImagedNucleus": "1H",
      "ImagingFrequency": 123.250629,
      "InPlanePhaseEncodingDirection": "COL",
      "MRAcquisitionType": "2D",
      "MagneticFieldStrength": 3.0,
      "Manufacturer": "SIEMENS",
      "ManufacturerModelName": "Prisma_fit",
      "Modality": "MR",
      "NumberOfAverages": 1.0,
      "NumberOfPhaseEncodingSteps": 88,
      "PercentPhaseFieldOfView": 100.0,
      "PercentSampling": 100.0,
      "PerformedProcedureStepStartTime": "141126.402000",
      "PhotometricInterpretation": "MONOCHROME2",
      "PixelBandwidth": 2185.0,
      "PixelRepresentation": 0,
      "PixelSpacing": [2.3977272510529, 2.3977272510529],
      "ProtocolName": "func-bold_task-RDMcolor_run-06",
      "RepetitionTime": 1200.0,
      "Rows": 704,
      "SAR": 0.05136603326837,
      "SamplesPerPixel": 1,
      "ScanOptions": "FS",
      "ScanningSequence": "EP",
      "SequenceName": "*epfid2d1_88",
      "SequenceVariant": "SK",
      "SeriesDescription": "func-bold_task-RDMcolor_run-06",
      "SeriesNumber": 18,
      "SeriesTime": "160043.874000",
      "SliceLocation": -71.588436972607,
      "SliceThickness": 2.4000000953674,
      "SmallestImagePixelValue": 0,
      "SoftwareVersions": "syngo MR E11",
      "SpacingBetweenSlices": 2.399999981894,
      "SpecificCharacterSet": "ISO_IR 100",
      "StudyID": "1",
      "StudyTime": "141126.275000",
      "TransmitCoilName": "Body",
      "VariableFlipAngleFlag": "N",
      "WindowCenterWidthExplanation": "Algo1",
      "dBdt": 0.0},
    "slices": {}
  },
  "time": {
    "samples": {
      "AcquisitionNumber": [1, 2, 3, 4, 5, 6, 7, 8, 9, 10, 11, 12, 13, 14, 15, 16, 17, 18, 19, 20, 21, 22, 23, 24, 25, 26, 27, 28, 29, 30, 31, 32, 33, 34, 35, 36, 37, 38, 39, 40, 41, 42, 43, 44, 45, 46, 47, 48, 49, 50, 51, 52, 53, 54, 55, 56, 57, 58, 59, 60, 61, 62, 63, 64, 65, 66, 67, 68, 69, 70, 71, 72, 73, 74, 75, 76, 77, 78, 79, 80, 81, 82, 83, 84, 85, 86, 87, 88, 89, 90, 91, 92, 93, 94, 95, 96, 97, 98, 99, 100, 101, 102, 103, 104, 105, 106, 107, 108, 109, 110, 111, 112, 113, 114, 115, 116, 117, 118, 119, 120, 121, 122, 123, 124, 125, 126, 127, 128, 129, 130, 131, 132, 133, 134, 135, 136, 137, 138, 139, 140, 141, 142, 143, 144, 145, 146, 147, 148, 149, 150, 151, 152, 153, 154, 155, 156, 157, 158, 159, 160, 161, 162, 163, 164, 165, 166, 167, 168, 169, 170, 171, 172, 173, 174, 175, 176, 177, 178, 179, 180, 181, 182, 183, 184, 185, 186, 187, 188, 189, 190, 191, 192, 193, 194, 195, 196, 197, 198, 199, 200, 201, 202, 203, 204, 205, 206, 207, 208, 209, 210, 211, 212, 213, 214, 215, 216, 217, 218, 219, 220, 221, 222, 223, 224, 225, 226, 227, 228, 229, 230, 231, 232, 233, 234, 235, 236, 237, 238, 239, 240, 241, 242, 243, 244, 245, 246, 247, 248, 249, 250, 251, 252, 253, 254, 255, 256, 257, 258, 259, 260, 261, 262, 263, 264, 265, 266, 267, 268, 269, 270, 271, 272, 273, 274, 275, 276, 277, 278, 279, 280, 281, 282, 283, 284, 285, 286, 287, 288, 289, 290, 291, 292, 293, 294, 295, 296, 297, 298, 299, 300, 301, 302, 303, 304, 305, 306, 307, 308, 309, 310, 311, 312, 313, 314, 315, 316, 317, 318, 319, 320, 321, 322, 323, 324, 325, 326, 327, 328, 329, 330, 331, 332, 333, 334, 335, 336, 337, 338, 339, 340, 341, 342, 343, 344, 345, 346, 347, 348, 349, 350, 351, 352, 353, 354, 355, 356, 357, 358, 359, 360, 361, 362, 363, 364, 365, 366, 367, 368, 369, 370, 371, 372, 373, 374, 375, 376, 377, 378, 379, 380, 381, 382, 383, 384, 385, 386, 387, 388, 389, 390, 391, 392],
      "AcquisitionTime": ["160001.110000", "160002.310000", "160003.510000", "160004.710000", "160005.910000", "160007.110000", "160008.310000", "160009.510000", "160010.710000", "160011.910000", "160013.110000", "160014.310000", "160015.510000", "160016.710000", "160017.910000", "160019.110000", "160020.310000", "160021.510000", "160022.710000", "160023.910000", "160025.110000", "160026.310000", "160027.510000", "160028.710000", "160029.910000", "160031.110000", "160032.310000", "160033.510000", "160034.710000", "160035.910000", "160037.110000", "160038.310000", "160039.510000", "160040.710000", "160041.910000", "160043.110000", "160044.310000", "160045.510000", "160046.710000", "160047.910000", "160049.110000", "160050.310000", "160051.510000", "160052.710000", "160053.910000", "160055.110000", "160056.310000", "160057.510000", "160058.710000", "160059.910000", "160101.110000", "160102.310000", "160103.510000", "160104.710000", "160105.910000", "160107.110000", "160108.310000", "160109.510000", "160110.710000", "160111.910000", "160113.110000", "160114.310000", "160115.510000", "160116.710000", "160117.910000", "160119.110000", "160120.310000", "160121.510000", "160122.710000", "160123.910000", "160125.110000", "160126.310000", "160127.510000", "160128.710000", "160129.910000", "160131.110000", "160132.310000", "160133.510000", "160134.710000", "160135.910000", "160137.110000", "160138.310000", "160139.510000", "160140.710000", "160141.910000", "160143.110000", "160144.310000", "160145.510000", "160146.710000", "160147.910000", "160149.110000", "160150.310000", "160151.510000", "160152.710000", "160153.910000", "160155.110000", "160156.310000", "160157.510000", "160158.710000", "160159.910000", "160201.110000", "160202.310000", "160203.510000", "160204.710000", "160205.910000", "160207.110000", "160208.310000", "160209.510000", "160210.710000", "160211.910000", "160213.110000", "160214.310000", "160215.510000", "160216.710000", "160217.910000", "160219.110000", "160220.310000", "160221.510000", "160222.710000", "160223.910000", "160225.110000", "160226.310000", "160227.510000", "160228.710000", "160229.910000", "160231.110000", "160232.310000", "160233.510000", "160234.710000", "160235.910000", "160237.110000", "160238.310000", "160239.510000", "160240.710000", "160241.910000", "160243.110000", "160244.310000", "160245.510000", "160246.710000", "160247.910000", "160249.110000", "160250.310000", "160251.510000", "160252.710000", "160253.910000", "160255.110000", "160256.310000", "160257.510000", "160258.710000", "160259.910000", "160301.110000", "160302.310000", "160303.510000", "160304.710000", "160305.910000", "160307.110000", "160308.310000", "160309.510000", "160310.710000", "160311.910000", "160313.110000", "160314.310000", "160315.510000", "160316.710000", "160317.910000", "160319.110000", "160320.310000", "160321.510000", "160322.710000", "160323.910000", "160325.110000", "160326.310000", "160327.510000", "160328.710000", "160329.910000", "160331.110000", "160332.310000", "160333.510000", "160334.710000", "160335.910000", "160337.110000", "160338.310000", "160339.510000", "160340.710000", "160341.910000", "160343.110000", "160344.310000", "160345.510000", "160346.710000", "160347.910000", "160349.110000", "160350.310000", "160351.510000", "160352.710000", "160353.910000", "160355.110000", "160356.310000", "160357.510000", "160358.710000", "160359.910000", "160401.110000", "160402.310000", "160403.510000", "160404.710000", "160405.910000", "160407.110000", "160408.310000", "160409.510000", "160410.710000", "160411.910000", "160413.110000", "160414.310000", "160415.510000", "160416.710000", "160417.910000", "160419.110000", "160420.310000", "160421.510000", "160422.710000", "160423.910000", "160425.110000", "160426.310000", "160427.510000", "160428.710000", "160429.910000", "160431.110000", "160432.310000", "160433.510000", "160434.710000", "160435.910000", "160437.110000", "160438.310000", "160439.510000", "160440.710000", "160441.910000", "160443.110000", "160444.310000", "160445.510000", "160446.710000", "160447.910000", "160449.110000", "160450.310000", "160451.510000", "160452.710000", "160453.910000", "160455.110000", "160456.310000", "160457.510000", "160458.710000", "160459.910000", "160501.110000", "160502.310000", "160503.510000", "160504.710000", "160505.910000", "160507.110000", "160508.310000", "160509.510000", "160510.710000", "160511.910000", "160513.110000", "160514.310000", "160515.510000", "160516.710000", "160517.910000", "160519.110000", "160520.310000", "160521.510000", "160522.710000", "160523.910000", "160525.110000", "160526.310000", "160527.510000", "160528.710000", "160529.910000", "160531.110000", "160532.310000", "160533.510000", "160534.710000", "160535.910000", "160537.110000", "160538.310000", "160539.510000", "160540.710000", "160541.910000", "160543.110000", "160544.310000", "160545.510000", "160546.710000", "160547.910000", "160549.110000", "160550.310000", "160551.510000", "160552.710000", "160553.910000", "160555.110000", "160556.310000", "160557.510000", "160558.710000", "160559.910000", "160601.110000", "160602.310000", "160603.510000", "160604.710000", "160605.910000", "160607.110000", "160608.310000", "160609.510000", "160610.710000", "160611.910000", "160613.110000", "160614.310000", "160615.510000", "160616.710000", "160617.910000", "160619.110000", "160620.310000", "160621.510000", "160622.710000", "160623.910000", "160625.110000", "160626.310000", "160627.510000", "160628.710000", "160629.910000", "160631.110000", "160632.310000", "160633.510000", "160634.710000", "160635.910000", "160637.110000", "160638.310000", "160639.510000", "160640.710000", "160641.910000", "160643.110000", "160644.310000", "160645.510000", "160646.710000", "160647.910000", "160649.110000", "160650.310000", "160651.510000", "160652.710000", "160653.910000", "160655.110000", "160656.310000", "160657.510000", "160658.710000", "160659.910000", "160701.110000", "160702.310000", "160703.510000", "160704.710000", "160705.910000", "160707.110000", "160708.310000", "160709.510000", "160710.710000", "160711.910000", "160713.110000", "160714.310000", "160715.510000", "160716.710000", "160717.910000", "160719.110000", "160720.310000", "160721.510000", "160722.710000", "160723.910000", "160725.110000", "160726.310000", "160727.510000", "160728.710000", "160729.910000", "160731.110000", "160732.310000", "160733.510000", "160734.710000", "160735.910000", "160737.110000", "160738.310000", "160739.510000", "160740.710000", "160741.910000", "160743.110000", "160744.310000", "160745.510000", "160746.710000", "160747.910000", "160749.110000", "160750.310000"],
      "ContentTime": ["160043.878000", "160043.881000", "160043.884000", "160043.886000", "160043.889000", "160043.891000", "160043.894000", "160043.896000", "160043.899000", "160043.901000", "160043.904000", "160043.907000", "160043.909000", "160043.912000", "160043.914000", "160043.917000", "160043.919000", "160043.922000", "160043.924000", "160043.927000", "160043.930000", "160043.932000", "160043.940000", "160043.943000", "160043.945000", "160043.948000", "160043.951000", "160043.953000", "160043.956000", "160043.958000", "160043.961000", "160043.963000", "160043.966000", "160043.968000", "160043.971000", "160123.874000", "160123.877000", "160123.880000", "160123.882000", "160123.885000", "160123.888000", "160123.890000", "160123.893000", "160123.895000", "160123.898000", "160123.900000", "160123.903000", "160123.905000", "160123.908000", "160123.910000", "160123.913000", "160123.915000", "160123.918000", "160123.925000", "160123.927000", "160123.930000", "160123.933000", "160123.935000", "160123.938000", "160123.940000", "160123.943000", "160123.945000", "160123.948000", "160123.950000", "160123.953000", "160123.956000", "160123.958000", "160123.961000", "160143.875000", "160143.877000", "160143.880000", "160143.882000", "160143.885000", "160143.888000", "160143.890000", "160143.893000", "160143.895000", "160143.898000", "160143.916000", "160143.919000", "160143.921000", "160143.924000", "160143.926000", "160143.929000", "160143.931000", "160223.873000", "160223.886000", "160223.889000", "160223.891000", "160223.894000", "160223.896000", "160223.899000", "160223.901000", "160223.904000", "160223.906000", "160223.909000", "160223.911000", "160223.914000", "160223.920000", "160223.923000", "160223.925000", "160223.928000", "160223.931000", "160223.933000", "160223.936000", "160223.938000", "160223.941000", "160223.944000", "160223.946000", "160223.949000", "160223.951000", "160223.954000", "160223.956000", "160223.959000", "160223.961000", "160223.964000", "160223.966000", "160223.969000", "160303.873000", "160303.876000", "160303.879000", "160303.881000", "160303.884000", "160303.886000", "160303.889000", "160303.891000", "160303.894000", "160303.897000", "160303.899000", "160303.902000", "160303.904000", "160303.907000", "160303.910000", "160303.912000", "160303.915000", "160303.917000", "160303.920000", "160303.922000", "160303.925000", "160303.928000", "160303.930000", "160303.933000", "160303.936000", "160303.938000", "160303.941000", "160303.943000", "160303.946000", "160303.949000", "160303.951000", "160303.954000", "160303.956000", "160303.959000", "160343.875000", "160343.924000", "160343.926000", "160343.929000", "160343.932000", "160343.934000", "160343.937000", "160343.939000", "160343.942000", "160343.944000", "160343.947000", "160343.949000", "160343.952000", "160343.954000", "160343.957000", "160343.960000", "160343.962000", "160343.965000", "160343.967000", "160343.970000", "160343.978000", "160343.981000", "160343.984000", "160343.986000", "160343.989000", "160343.991000", "160343.994000", "160343.996000", "160344.000000", "160344.003000", "160344.005000", "160344.008000", "160344.011000", "160423.874000", "160423.876000", "160423.879000", "160423.882000", "160423.884000", "160423.887000", "160423.889000", "160423.892000", "160423.894000", "160423.897000", "160423.899000", "160423.902000", "160423.905000", "160423.907000", "160423.910000", "160423.912000", "160423.915000", "160423.918000", "160423.920000", "160423.923000", "160423.925000", "160423.928000", "160423.930000", "160423.933000", "160423.936000", "160423.938000", "160423.941000", "160423.944000", "160423.946000", "160423.949000", "160423.951000", "160423.954000", "160423.957000", "160503.873000", "160503.876000", "160503.879000", "160503.881000", "160503.884000", "160503.886000", "160503.889000", "160503.891000", "160503.894000", "160503.896000", "160503.899000", "160503.902000", "160503.904000", "160503.907000", "160503.909000", "160503.912000", "160503.914000", "160503.917000", "160503.920000", "160503.922000", "160503.925000", "160503.928000", "160503.930000", "160503.933000", "160503.935000", "160503.938000", "160503.940000", "160503.943000", "160503.945000", "160503.948000", "160503.950000", "160503.953000", "160503.956000", "160503.958000", "160543.875000", "160543.877000", "160543.880000", "160543.882000", "160543.885000", "160543.888000", "160543.890000", "160543.893000", "160543.895000", "160543.898000", "160543.900000", "160543.903000", "160543.905000", "160543.908000", "160543.911000", "160543.913000", "160543.916000", "160543.919000", "160543.921000", "160543.924000", "160543.926000", "160543.929000", "160543.932000", "160543.951000", "160543.954000", "160543.956000", "160543.959000", "160543.961000", "160543.964000", "160543.967000", "160543.969000", "160543.972000", "160543.974000", "160623.875000", "160623.878000", "160623.880000", "160623.883000", "160623.886000", "160623.888000", "160623.891000", "160623.894000", "160623.896000", "160623.899000", "160623.901000", "160623.904000", "160623.912000", "160623.914000", "160623.917000", "160623.920000", "160623.923000", "160623.925000", "160623.928000", "160623.930000", "160623.933000", "160623.936000", "160623.938000", "160623.941000", "160623.944000", "160623.946000", "160623.949000", "160623.952000", "160623.955000", "160623.958000", "160623.961000", "160623.963000", "160623.966000", "160703.874000", "160703.877000", "160703.879000", "160703.889000", "160703.891000", "160703.894000", "160703.896000", "160703.899000", "160703.902000", "160703.904000", "160703.907000", "160703.910000", "160703.912000", "160703.915000", "160703.918000", "160703.920000", "160703.923000", "160703.925000", "160703.928000", "160703.931000", "160703.933000", "160703.936000", "160703.939000", "160703.941000", "160703.944000", "160703.947000", "160703.949000", "160703.952000", "160703.955000", "160703.957000", "160703.960000", "160703.962000", "160703.965000", "160703.968000", "160743.874000", "160743.883000", "160743.886000", "160743.889000", "160743.891000", "160743.894000", "160743.896000", "160743.899000", "160743.902000", "160743.904000", "160743.907000", "160743.909000", "160743.912000", "160743.914000", "160743.917000", "160743.920000", "160743.922000", "160743.925000", "160743.927000", "160743.930000", "160743.932000", "160743.935000", "160743.938000", "160743.940000", "160743.943000", "160743.945000", "160743.948000", "160743.950000", "160743.953000", "160743.956000", "160743.958000", "160743.961000", "160743.963000", "160751.847000", "160751.850000", "160751.852000", "160751.855000", "160751.857000", "160751.867000", "160751.869000"],
      "InstanceCreationTime": ["160043.878000", "160043.881000", "160043.884000", "160043.886000", "160043.889000", "160043.891000", "160043.894000", "160043.896000", "160043.899000", "160043.901000", "160043.904000", "160043.907000", "160043.909000", "160043.912000", "160043.914000", "160043.917000", "160043.919000", "160043.922000", "160043.924000", "160043.927000", "160043.930000", "160043.932000", "160043.940000", "160043.943000", "160043.945000", "160043.948000", "160043.951000", "160043.953000", "160043.956000", "160043.958000", "160043.961000", "160043.963000", "160043.966000", "160043.968000", "160043.971000", "160123.874000", "160123.877000", "160123.880000", "160123.882000", "160123.885000", "160123.888000", "160123.890000", "160123.893000", "160123.895000", "160123.898000", "160123.900000", "160123.903000", "160123.905000", "160123.908000", "160123.910000", "160123.913000", "160123.915000", "160123.918000", "160123.925000", "160123.927000", "160123.930000", "160123.933000", "160123.935000", "160123.938000", "160123.940000", "160123.943000", "160123.945000", "160123.948000", "160123.950000", "160123.953000", "160123.956000", "160123.958000", "160123.961000", "160143.875000", "160143.877000", "160143.880000", "160143.882000", "160143.885000", "160143.888000", "160143.890000", "160143.893000", "160143.895000", "160143.898000", "160143.916000", "160143.919000", "160143.921000", "160143.924000", "160143.926000", "160143.929000", "160143.931000", "160223.873000", "160223.886000", "160223.889000", "160223.891000", "160223.894000", "160223.896000", "160223.899000", "160223.901000", "160223.904000", "160223.906000", "160223.909000", "160223.911000", "160223.914000", "160223.920000", "160223.923000", "160223.925000", "160223.928000", "160223.931000", "160223.933000", "160223.936000", "160223.938000", "160223.941000", "160223.944000", "160223.946000", "160223.949000", "160223.951000", "160223.954000", "160223.956000", "160223.959000", "160223.961000", "160223.964000", "160223.966000", "160223.969000", "160303.873000", "160303.876000", "160303.879000", "160303.881000", "160303.884000", "160303.886000", "160303.889000", "160303.891000", "160303.894000", "160303.897000", "160303.899000", "160303.902000", "160303.904000", "160303.907000", "160303.910000", "160303.912000", "160303.915000", "160303.917000", "160303.920000", "160303.922000", "160303.925000", "160303.928000", "160303.930000", "160303.933000", "160303.936000", "160303.938000", "160303.941000", "160303.943000", "160303.946000", "160303.949000", "160303.951000", "160303.954000", "160303.956000", "160303.959000", "160343.875000", "160343.924000", "160343.926000", "160343.929000", "160343.932000", "160343.934000", "160343.937000", "160343.939000", "160343.942000", "160343.944000", "160343.947000", "160343.949000", "160343.952000", "160343.954000", "160343.957000", "160343.960000", "160343.962000", "160343.965000", "160343.967000", "160343.970000", "160343.978000", "160343.981000", "160343.984000", "160343.986000", "160343.989000", "160343.991000", "160343.994000", "160343.996000", "160344.000000", "160344.003000", "160344.005000", "160344.008000", "160344.011000", "160423.874000", "160423.876000", "160423.879000", "160423.882000", "160423.884000", "160423.887000", "160423.889000", "160423.892000", "160423.894000", "160423.897000", "160423.899000", "160423.902000", "160423.905000", "160423.907000", "160423.910000", "160423.912000", "160423.915000", "160423.918000", "160423.920000", "160423.923000", "160423.925000", "160423.928000", "160423.930000", "160423.933000", "160423.936000", "160423.938000", "160423.941000", "160423.944000", "160423.946000", "160423.949000", "160423.951000", "160423.954000", "160423.957000", "160503.873000", "160503.876000", "160503.879000", "160503.881000", "160503.884000", "160503.886000", "160503.889000", "160503.891000", "160503.894000", "160503.896000", "160503.899000", "160503.902000", "160503.904000", "160503.907000", "160503.909000", "160503.912000", "160503.914000", "160503.917000", "160503.920000", "160503.922000", "160503.925000", "160503.928000", "160503.930000", "160503.933000", "160503.935000", "160503.938000", "160503.940000", "160503.943000", "160503.945000", "160503.948000", "160503.950000", "160503.953000", "160503.956000", "160503.958000", "160543.875000", "160543.877000", "160543.880000", "160543.882000", "160543.885000", "160543.888000", "160543.890000", "160543.893000", "160543.895000", "160543.898000", "160543.900000", "160543.903000", "160543.905000", "160543.908000", "160543.911000", "160543.913000", "160543.916000", "160543.919000", "160543.921000", "160543.924000", "160543.926000", "160543.929000", "160543.932000", "160543.951000", "160543.954000", "160543.956000", "160543.959000", "160543.961000", "160543.964000", "160543.967000", "160543.969000", "160543.972000", "160543.974000", "160623.875000", "160623.878000", "160623.880000", "160623.883000", "160623.886000", "160623.888000", "160623.891000", "160623.894000", "160623.896000", "160623.899000", "160623.901000", "160623.904000", "160623.912000", "160623.914000", "160623.917000", "160623.920000", "160623.923000", "160623.925000", "160623.928000", "160623.930000", "160623.933000", "160623.936000", "160623.938000", "160623.941000", "160623.944000", "160623.946000", "160623.949000", "160623.952000", "160623.955000", "160623.958000", "160623.961000", "160623.963000", "160623.966000", "160703.874000", "160703.877000", "160703.879000", "160703.889000", "160703.891000", "160703.894000", "160703.896000", "160703.899000", "160703.902000", "160703.904000", "160703.907000", "160703.910000", "160703.912000", "160703.915000", "160703.918000", "160703.920000", "160703.923000", "160703.925000", "160703.928000", "160703.931000", "160703.933000", "160703.936000", "160703.939000", "160703.941000", "160703.944000", "160703.947000", "160703.949000", "160703.952000", "160703.955000", "160703.957000", "160703.960000", "160703.962000", "160703.965000", "160703.968000", "160743.874000", "160743.883000", "160743.886000", "160743.889000", "160743.891000", "160743.894000", "160743.896000", "160743.899000", "160743.902000", "160743.904000", "160743.907000", "160743.909000", "160743.912000", "160743.914000", "160743.917000", "160743.920000", "160743.922000", "160743.925000", "160743.927000", "160743.930000", "160743.932000", "160743.935000", "160743.938000", "160743.940000", "160743.943000", "160743.945000", "160743.948000", "160743.950000", "160743.953000", "160743.956000", "160743.958000", "160743.961000", "160743.963000", "160751.847000", "160751.850000", "160751.852000", "160751.855000", "160751.857000", "160751.867000", "160751.869000"],
      "InstanceNumber": [1, 2, 3, 4, 5, 6, 7, 8, 9, 10, 11, 12, 13, 14, 15, 16, 17, 18, 19, 20, 21, 22, 23, 24, 25, 26, 27, 28, 29, 30, 31, 32, 33, 34, 35, 36, 37, 38, 39, 40, 41, 42, 43, 44, 45, 46, 47, 48, 49, 50, 51, 52, 53, 54, 55, 56, 57, 58, 59, 60, 61, 62, 63, 64, 65, 66, 67, 68, 69, 70, 71, 72, 73, 74, 75, 76, 77, 78, 79, 80, 81, 82, 83, 84, 85, 86, 87, 88, 89, 90, 91, 92, 93, 94, 95, 96, 97, 98, 99, 100, 101, 102, 103, 104, 105, 106, 107, 108, 109, 110, 111, 112, 113, 114, 115, 116, 117, 118, 119, 120, 121, 122, 123, 124, 125, 126, 127, 128, 129, 130, 131, 132, 133, 134, 135, 136, 137, 138, 139, 140, 141, 142, 143, 144, 145, 146, 147, 148, 149, 150, 151, 152, 153, 154, 155, 156, 157, 158, 159, 160, 161, 162, 163, 164, 165, 166, 167, 168, 169, 170, 171, 172, 173, 174, 175, 176, 177, 178, 179, 180, 181, 182, 183, 184, 185, 186, 187, 188, 189, 190, 191, 192, 193, 194, 195, 196, 197, 198, 199, 200, 201, 202, 203, 204, 205, 206, 207, 208, 209, 210, 211, 212, 213, 214, 215, 216, 217, 218, 219, 220, 221, 222, 223, 224, 225, 226, 227, 228, 229, 230, 231, 232, 233, 234, 235, 236, 237, 238, 239, 240, 241, 242, 243, 244, 245, 246, 247, 248, 249, 250, 251, 252, 253, 254, 255, 256, 257, 258, 259, 260, 261, 262, 263, 264, 265, 266, 267, 268, 269, 270, 271, 272, 273, 274, 275, 276, 277, 278, 279, 280, 281, 282, 283, 284, 285, 286, 287, 288, 289, 290, 291, 292, 293, 294, 295, 296, 297, 298, 299, 300, 301, 302, 303, 304, 305, 306, 307, 308, 309, 310, 311, 312, 313, 314, 315, 316, 317, 318, 319, 320, 321, 322, 323, 324, 325, 326, 327, 328, 329, 330, 331, 332, 333, 334, 335, 336, 337, 338, 339, 340, 341, 342, 343, 344, 345, 346, 347, 348, 349, 350, 351, 352, 353, 354, 355, 356, 357, 358, 359, 360, 361, 362, 363, 364, 365, 366, 367, 368, 369, 370, 371, 372, 373, 374, 375, 376, 377, 378, 379, 380, 381, 382, 383, 384, 385, 386, 387, 388, 389, 390, 391, 392],
