{
  "AcquisitionMatrixPE": 88,
  "AcquisitionNumber": 1,
  "AcquisitionTime": "15:57:12.362500",
  "BandwidthPerPixelPhaseEncode": 19.592,
  "BaseResolution": 88,
  "BodyPartExamined": "BRAIN",
  "ConsistencyInfo": "N4_VE11C_LATEST_20160120",
  "ConversionSoftware": "dcm2niix",
  "ConversionSoftwareVersion": "v1.0.20190902",
  "DerivedVendorReportedEchoSpacing": 0.000580014,
  "DeviceSerialNumber": "67050",
  "DwellTime": 2.6e-06,
  "EchoTime": 0.033,
  "EchoTrainLength": 88,
  "EffectiveEchoSpacing": 0.000580014,
  "FlipAngle": 62,
  "ImageOrientationPatientDICOM": [0.994355, -0.050014, 0.0935787, 0.049328, 0.998736, 0.00963087],
  "ImageType": [
    "ORIGINAL",
    "PRIMARY",
    "M",
    "ND",
    "MOSAIC"
],
  "ImagingFrequency": 123.251,
  "InPlanePhaseEncodingDirectionDICOM": "COL",
  "InstitutionAddress": "Olive_Street_60_Providence_RI_US_02912",
  "InstitutionName": "BROWN_UNIVERSITY_MRF",
  "InstitutionalDepartmentName": "Department",
  "MRAcquisitionType": "2D",
  "MagneticFieldStrength": 3,
  "Manufacturer": "Siemens",
  "ManufacturersModelName": "Prisma_fit",
  "Modality": "MR",
  "MultibandAccelerationFactor": 4,
  "PartialFourier": 1,
  "PatientPosition": "HFS",
  "PercentPhaseFOV": 100,
  "PhaseEncodingDirection": "j-",
  "PhaseEncodingSteps": 88,
  "PhaseResolution": 1,
  "PixelBandwidth": 2185,
  "ProcedureStepDescription": "ASHENHAV_1222",
  "ProtocolName": "func-bold_task-RDMcolor_run-05",
  "PulseSequenceDetails": "%SiemensSeq%_ep2d_bold",
  "ReceiveCoilActiveElements": "HC1-7;NC1",
  "ReceiveCoilName": "HeadNeck_64",
  "ReconMatrixPE": 88,
  "RefLinesPE": 8,
  "RepetitionTime": 1.2,
  "SAR": 0.0462029,
  "ScanOptions": "FS",
  "ScanningSequence": "EP",
  "SequenceName": "_epfid2d1_88",
  "SequenceVariant": "SK",
  "SeriesDescription": "func-bold_task-RDMcolor_run-05",
  "SeriesNumber": 16,
  "ShimSetting": [1756, -9107, 4339, 527, -159, -232, 72, 26],
  "SliceThickness": 2.4,
  "SliceTiming": [0.55, 0, 0.63, 0.0775, 0.7075, 0.1575, 0.7875, 0.235, 0.865, 0.315, 0.9425, 0.3925, 1.0225, 0.4725, 1.1, 0.55, 0, 0.63, 0.0775, 0.7075, 0.1575, 0.7875, 0.235, 0.865, 0.315, 0.9425, 0.3925, 1.0225, 0.4725, 1.1, 0.55, 0, 0.63, 0.0775, 0.7075, 0.1575, 0.7875, 0.235, 0.865, 0.315, 0.9425, 0.3925, 1.0225, 0.4725, 1.1, 0.55, 0, 0.63, 0.0775, 0.7075, 0.1575, 0.7875, 0.235, 0.865, 0.315, 0.9425, 0.3925, 1.0225, 0.4725, 1.1],
  "SoftwareVersions": "syngo_MR_E11",
  "SpacingBetweenSlices": 2.4,
  "StationName": "AWP67050",
  "TaskName": "RDMcolor",
  "TotalReadoutTime": 0.0504612,
  "TxRefAmp": 219.483,
  "dcmmeta_affine": [
    [-2.3841917514801025, 0.1182750016450882, 0.22546109557151794, 98.29522705078125],
    [0.11991982161998749, 2.3946969509124756, 0.011905092746019363, -102.90770721435547],
    [0.22437623143196106, -0.023092199116945267, 2.3893566131591797, -83.09690856933594],
    [0.0, 0.0, 0.0, 1.0]
],
  "dcmmeta_reorient_transform": [
    [0.0, -1.0, 0.0, 87.0],
    [1.0, 0.0, 0.0, 0.0],
    [0.0, 0.0, 1.0, 0.0],
    [0.0, 0.0, 0.0, 1.0]
],
  "dcmmeta_shape": [88, 88, 60, 392],
  "dcmmeta_slice_dim": 2,
  "dcmmeta_version": 0.6,
  "global": {
    "const": {
      "AcquisitionMatrix": [88, 0, 0, 88],
      "AngioFlag": "N",
      "BitsAllocated": 16,
      "BitsStored": 12,
      "BodyPartExamined": "BRAIN",
      "Columns": 704,
      "DeidentificationMethodCodeSequence": [
        {
          "CodeMeaning": "XNAT DicomEdit 6 Script",
          "CodeValue": "3",
          "CodingSchemeDesignator": "XNAT",
          "CodingSchemeVersion": "1.0"}
],
      "EchoNumbers": 1,
      "EchoTime": 33.0,
      "EchoTrainLength": 88,
      "FlipAngle": 62.0,
      "HighBit": 11,
      "ImageOrientationPatient": [0.99435488072662, -0.0500139544333, 0.09357871305532, 0.04932796464468, 0.99873620052865, 0.00963087003409],
      "ImagePositionPatient": [-879.34492431047, -806.06230199443, -161.32620301386],
      "ImageType": [
        "ORIGINAL",
        "PRIMARY",
        "M",
        "ND",
        "MOSAIC"
],
      "ImagedNucleus": "1H",
      "ImagingFrequency": 123.250765,
      "InPlanePhaseEncodingDirection": "COL",
      "MRAcquisitionType": "2D",
      "MagneticFieldStrength": 3.0,
      "Manufacturer": "SIEMENS",
      "ManufacturerModelName": "Prisma_fit",
      "Modality": "MR",
      "NumberOfAverages": 1.0,
      "NumberOfPhaseEncodingSteps": 88,
      "PercentPhaseFieldOfView": 100.0,
      "PercentSampling": 100.0,
      "PerformedProcedureStepStartTime": "144128.036000",
      "PhotometricInterpretation": "MONOCHROME2",
      "PixelBandwidth": 2185.0,
      "PixelRepresentation": 0,
      "PixelSpacing": [2.3977272510529, 2.3977272510529],
      "ProtocolName": "func-bold_task-RDMcolor_run-05",
      "RepetitionTime": 1200.0,
      "Rows": 704,
      "SAR": 0.04620286736439,
      "SamplesPerPixel": 1,
      "ScanOptions": "FS",
      "ScanningSequence": "EP",
      "SequenceName": "*epfid2d1_88",
      "SequenceVariant": "SK",
      "SeriesDescription": "func-bold_task-RDMcolor_run-05",
      "SeriesNumber": 16,
      "SeriesTime": "155755.495000",
      "SliceLocation": -74.004802255241,
      "SliceThickness": 2.4000000953674,
      "SmallestImagePixelValue": 0,
      "SoftwareVersions": "syngo MR E11",
      "SpacingBetweenSlices": 2.3999999856663,
      "SpecificCharacterSet": "ISO_IR 100",
      "StudyID": "1",
      "StudyTime": "144127.968000",
      "TransmitCoilName": "Body",
      "VariableFlipAngleFlag": "N",
      "WindowCenterWidthExplanation": "Algo1",
      "dBdt": 0.0},
    "slices": {}
  },
  "time": {
    "samples": {
      "AcquisitionNumber": [1, 2, 3, 4, 5, 6, 7, 8, 9, 10, 11, 12, 13, 14, 15, 16, 17, 18, 19, 20, 21, 22, 23, 24, 25, 26, 27, 28, 29, 30, 31, 32, 33, 34, 35, 36, 37, 38, 39, 40, 41, 42, 43, 44, 45, 46, 47, 48, 49, 50, 51, 52, 53, 54, 55, 56, 57, 58, 59, 60, 61, 62, 63, 64, 65, 66, 67, 68, 69, 70, 71, 72, 73, 74, 75, 76, 77, 78, 79, 80, 81, 82, 83, 84, 85, 86, 87, 88, 89, 90, 91, 92, 93, 94, 95, 96, 97, 98, 99, 100, 101, 102, 103, 104, 105, 106, 107, 108, 109, 110, 111, 112, 113, 114, 115, 116, 117, 118, 119, 120, 121, 122, 123, 124, 125, 126, 127, 128, 129, 130, 131, 132, 133, 134, 135, 136, 137, 138, 139, 140, 141, 142, 143, 144, 145, 146, 147, 148, 149, 150, 151, 152, 153, 154, 155, 156, 157, 158, 159, 160, 161, 162, 163, 164, 165, 166, 167, 168, 169, 170, 171, 172, 173, 174, 175, 176, 177, 178, 179, 180, 181, 182, 183, 184, 185, 186, 187, 188, 189, 190, 191, 192, 193, 194, 195, 196, 197, 198, 199, 200, 201, 202, 203, 204, 205, 206, 207, 208, 209, 210, 211, 212, 213, 214, 215, 216, 217, 218, 219, 220, 221, 222, 223, 224, 225, 226, 227, 228, 229, 230, 231, 232, 233, 234, 235, 236, 237, 238, 239, 240, 241, 242, 243, 244, 245, 246, 247, 248, 249, 250, 251, 252, 253, 254, 255, 256, 257, 258, 259, 260, 261, 262, 263, 264, 265, 266, 267, 268, 269, 270, 271, 272, 273, 274, 275, 276, 277, 278, 279, 280, 281, 282, 283, 284, 285, 286, 287, 288, 289, 290, 291, 292, 293, 294, 295, 296, 297, 298, 299, 300, 301, 302, 303, 304, 305, 306, 307, 308, 309, 310, 311, 312, 313, 314, 315, 316, 317, 318, 319, 320, 321, 322, 323, 324, 325, 326, 327, 328, 329, 330, 331, 332, 333, 334, 335, 336, 337, 338, 339, 340, 341, 342, 343, 344, 345, 346, 347, 348, 349, 350, 351, 352, 353, 354, 355, 356, 357, 358, 359, 360, 361, 362, 363, 364, 365, 366, 367, 368, 369, 370, 371, 372, 373, 374, 375, 376, 377, 378, 379, 380, 381, 382, 383, 384, 385, 386, 387, 388, 389, 390, 391, 392],
      "AcquisitionTime": ["155712.362500", "155713.562500", "155714.762500", "155715.962500", "155717.162500", "155718.362500", "155719.562500", "155720.762500", "155721.962500", "155723.162500", "155724.362500", "155725.562500", "155726.762500", "155727.962500", "155729.162500", "155730.362500", "155731.562500", "155732.762500", "155733.962500", "155735.162500", "155736.362500", "155737.562500", "155738.762500", "155739.962500", "155741.162500", "155742.362500", "155743.562500", "155744.762500", "155745.962500", "155747.162500", "155748.362500", "155749.562500", "155750.762500", "155751.962500", "155753.162500", "155754.362500", "155755.562500", "155756.762500", "155757.962500", "155759.162500", "155800.362500", "155801.562500", "155802.762500", "155803.962500", "155805.162500", "155806.362500", "155807.562500", "155808.762500", "155809.962500", "155811.162500", "155812.362500", "155813.562500", "155814.762500", "155815.962500", "155817.162500", "155818.362500", "155819.562500", "155820.762500", "155821.962500", "155823.162500", "155824.362500", "155825.562500", "155826.762500", "155827.962500", "155829.162500", "155830.362500", "155831.562500", "155832.762500", "155833.962500", "155835.162500", "155836.362500", "155837.562500", "155838.762500", "155839.962500", "155841.162500", "155842.362500", "155843.562500", "155844.762500", "155845.962500", "155847.162500", "155848.362500", "155849.562500", "155850.762500", "155851.962500", "155853.162500", "155854.362500", "155855.562500", "155856.762500", "155857.962500", "155859.162500", "155900.362500", "155901.562500", "155902.762500", "155903.962500", "155905.162500", "155906.362500", "155907.562500", "155908.762500", "155909.962500", "155911.162500", "155912.362500", "155913.562500", "155914.762500", "155915.962500", "155917.162500", "155918.362500", "155919.562500", "155920.762500", "155921.962500", "155923.162500", "155924.362500", "155925.562500", "155926.762500", "155927.962500", "155929.162500", "155930.362500", "155931.562500", "155932.762500", "155933.962500", "155935.162500", "155936.362500", "155937.562500", "155938.762500", "155939.962500", "155941.162500", "155942.362500", "155943.562500", "155944.762500", "155945.962500", "155947.162500", "155948.362500", "155949.562500", "155950.762500", "155951.962500", "155953.162500", "155954.362500", "155955.562500", "155956.762500", "155957.962500", "155959.162500", "160000.362500", "160001.562500", "160002.762500", "160003.962500", "160005.162500", "160006.362500", "160007.562500", "160008.762500", "160009.962500", "160011.162500", "160012.362500", "160013.562500", "160014.762500", "160015.962500", "160017.162500", "160018.362500", "160019.562500", "160020.762500", "160021.962500", "160023.162500", "160024.362500", "160025.562500", "160026.762500", "160027.962500", "160029.162500", "160030.362500", "160031.562500", "160032.762500", "160033.962500", "160035.162500", "160036.362500", "160037.562500", "160038.762500", "160039.962500", "160041.162500", "160042.362500", "160043.562500", "160044.762500", "160045.962500", "160047.162500", "160048.362500", "160049.562500", "160050.762500", "160051.962500", "160053.162500", "160054.362500", "160055.562500", "160056.762500", "160057.962500", "160059.162500", "160100.362500", "160101.562500", "160102.762500", "160103.962500", "160105.162500", "160106.362500", "160107.562500", "160108.762500", "160109.962500", "160111.162500", "160112.362500", "160113.562500", "160114.762500", "160115.962500", "160117.162500", "160118.362500", "160119.562500", "160120.762500", "160121.962500", "160123.162500", "160124.362500", "160125.562500", "160126.762500", "160127.962500", "160129.162500", "160130.362500", "160131.562500", "160132.762500", "160133.962500", "160135.162500", "160136.362500", "160137.562500", "160138.762500", "160139.962500", "160141.162500", "160142.362500", "160143.562500", "160144.762500", "160145.962500", "160147.162500", "160148.362500", "160149.562500", "160150.762500", "160151.962500", "160153.162500", "160154.362500", "160155.562500", "160156.762500", "160157.962500", "160159.162500", "160200.362500", "160201.562500", "160202.762500", "160203.962500", "160205.162500", "160206.362500", "160207.562500", "160208.762500", "160209.962500", "160211.162500", "160212.362500", "160213.562500", "160214.762500", "160215.962500", "160217.162500", "160218.362500", "160219.562500", "160220.762500", "160221.962500", "160223.162500", "160224.362500", "160225.562500", "160226.762500", "160227.962500", "160229.162500", "160230.362500", "160231.562500", "160232.762500", "160233.962500", "160235.162500", "160236.362500", "160237.562500", "160238.762500", "160239.962500", "160241.162500", "160242.362500", "160243.562500", "160244.762500", "160245.962500", "160247.162500", "160248.362500", "160249.562500", "160250.762500", "160251.962500", "160253.162500", "160254.362500", "160255.562500", "160256.762500", "160257.962500", "160259.162500", "160300.362500", "160301.562500", "160302.762500", "160303.962500", "160305.162500", "160306.362500", "160307.562500", "160308.762500", "160309.962500", "160311.162500", "160312.362500", "160313.562500", "160314.762500", "160315.962500", "160317.162500", "160318.362500", "160319.562500", "160320.762500", "160321.962500", "160323.162500", "160324.362500", "160325.562500", "160326.762500", "160327.962500", "160329.162500", "160330.362500", "160331.562500", "160332.762500", "160333.962500", "160335.162500", "160336.362500", "160337.562500", "160338.762500", "160339.962500", "160341.162500", "160342.362500", "160343.562500", "160344.762500", "160345.962500", "160347.162500", "160348.362500", "160349.562500", "160350.762500", "160351.962500", "160353.162500", "160354.362500", "160355.562500", "160356.762500", "160357.962500", "160359.162500", "160400.362500", "160401.562500", "160402.762500", "160403.962500", "160405.162500", "160406.362500", "160407.562500", "160408.762500", "160409.962500", "160411.162500", "160412.362500", "160413.562500", "160414.762500", "160415.962500", "160417.162500", "160418.362500", "160419.562500", "160420.762500", "160421.962500", "160423.162500", "160424.362500", "160425.562500", "160426.762500", "160427.962500", "160429.162500", "160430.362500", "160431.562500", "160432.762500", "160433.962500", "160435.162500", "160436.362500", "160437.562500", "160438.762500", "160439.962500", "160441.162500", "160442.362500", "160443.562500", "160444.762500", "160445.962500", "160447.162500", "160448.362500", "160449.562500", "160450.762500", "160451.962500", "160453.162500", "160454.362500", "160455.562500", "160456.762500", "160457.962500", "160459.162500", "160500.362500", "160501.562500"],
      "ContentTime": ["155755.498000", "155755.501000", "155755.504000", "155755.507000", "155755.509000", "155755.512000", "155755.514000", "155755.527000", "155755.529000", "155755.532000", "155755.534000", "155755.537000", "155755.539000", "155755.542000", "155755.545000", "155755.547000", "155755.550000", "155755.552000", "155755.555000", "155755.557000", "155755.560000", "155755.562000", "155755.565000", "155755.577000", "155755.580000", "155755.582000", "155755.585000", "155755.588000", "155755.590000", "155755.596000", "155755.599000", "155755.601000", "155755.604000", "155755.607000", "155755.609000", "155835.494000", "155835.496000", "155835.499000", "155835.502000", "155835.504000", "155835.507000", "155835.509000", "155835.512000", "155835.514000", "155835.517000", "155835.520000", "155835.522000", "155835.525000", "155835.527000", "155835.530000", "155835.533000", "155835.535000", "155835.538000", "155835.540000", "155835.543000", "155835.546000", "155835.548000", "155835.551000", "155835.553000", "155835.556000", "155835.558000", "155835.561000", "155835.563000", "155835.566000", "155835.569000", "155835.586000", "155835.589000", "155835.592000", "155835.594000", "155915.492000", "155915.495000", "155915.498000", "155915.500000", "155915.503000", "155915.505000", "155915.508000", "155915.510000", "155915.513000", "155915.515000", "155915.518000", "155915.521000", "155915.523000", "155915.534000", "155915.537000", "155915.539000", "155915.548000", "155915.551000", "155915.553000", "155915.556000", "155915.558000", "155915.561000", "155915.564000", "155915.566000", "155915.569000", "155915.571000", "155915.574000", "155915.576000", "155915.579000", "155915.581000", "155915.584000", "155915.587000", "155915.589000", "155955.493000", "155955.496000", "155955.499000", "155955.501000", "155955.504000", "155955.506000", "155955.509000", "155955.512000", "155955.514000", "155955.517000", "155955.520000", "155955.522000", "155955.525000", "155955.527000", "155955.530000", "155955.532000", "155955.535000", "155955.538000", "155955.540000", "155955.543000", "155955.545000", "155955.548000", "155955.550000", "155955.553000", "155955.556000", "155955.558000", "155955.561000", "155955.563000", "155955.566000", "155955.568000", "155955.571000", "155955.573000", "155955.576000", "160035.493000", "160035.506000", "160035.509000", "160035.511000", "160035.514000", "160035.516000", "160035.519000", "160035.521000", "160035.524000", "160035.527000", "160035.529000", "160035.532000", "160035.534000", "160035.537000", "160035.539000", "160035.548000", "160035.550000", "160035.553000", "160035.555000", "160035.558000", "160035.561000", "160035.563000", "160035.566000", "160035.568000", "160035.571000", "160035.573000", "160035.576000", "160035.578000", "160035.581000", "160035.584000", "160035.586000", "160035.589000", "160035.591000", "160035.594000", "160115.493000", "160115.495000", "160115.498000", "160115.500000", "160115.503000", "160115.505000", "160115.508000", "160115.510000", "160115.513000", "160115.516000", "160115.524000", "160115.527000", "160115.530000", "160115.532000", "160115.535000", "160115.537000", "160115.540000", "160115.542000", "160115.545000", "160115.547000", "160115.550000", "160115.552000", "160115.555000", "160115.557000", "160115.560000", "160115.562000", "160115.565000", "160115.567000", "160115.570000", "160115.572000", "160115.575000", "160115.578000", "160115.580000", "160135.493000", "160135.495000", "160135.498000", "160135.501000", "160135.503000", "160135.506000", "160135.508000", "160135.511000", "160135.514000", "160135.516000", "160135.519000", "160135.521000", "160135.524000", "160135.526000", "160135.529000", "160135.531000", "160135.534000", "160215.494000", "160215.497000", "160215.499000", "160215.502000", "160215.504000", "160215.507000", "160215.510000", "160215.512000", "160215.515000", "160215.517000", "160215.520000", "160215.523000", "160215.525000", "160215.528000", "160215.530000", "160215.533000", "160215.536000", "160215.538000", "160215.541000", "160215.543000", "160215.546000", "160215.549000", "160215.551000", "160215.554000", "160215.557000", "160215.559000", "160215.562000", "160215.564000", "160215.567000", "160215.569000", "160215.589000", "160215.591000", "160215.611000", "160255.494000", "160255.496000", "160255.499000", "160255.501000", "160255.504000", "160255.507000", "160255.509000", "160255.512000", "160255.515000", "160255.517000", "160255.520000", "160255.522000", "160255.525000", "160255.528000", "160255.530000", "160255.533000", "160255.535000", "160255.538000", "160255.540000", "160255.543000", "160255.545000", "160255.548000", "160255.551000", "160255.553000", "160255.556000", "160255.558000", "160255.561000", "160255.564000", "160255.566000", "160255.577000", "160255.580000", "160255.582000", "160255.585000", "160335.493000", "160335.495000", "160335.498000", "160335.501000", "160335.503000", "160335.506000", "160335.508000", "160335.511000", "160335.513000", "160335.516000", "160335.519000", "160335.521000", "160335.524000", "160335.526000", "160335.529000", "160335.531000", "160335.534000", "160335.537000", "160335.539000", "160335.542000", "160335.544000", "160335.547000", "160335.549000", "160335.552000", "160335.555000", "160335.557000", "160335.560000", "160335.570000", "160335.573000", "160335.576000", "160335.578000", "160335.581000", "160335.583000", "160335.586000", "160415.492000", "160415.495000", "160415.498000", "160415.500000", "160415.503000", "160415.505000", "160415.508000", "160415.510000", "160415.513000", "160415.516000", "160415.518000", "160415.521000", "160415.523000", "160415.526000", "160415.528000", "160415.531000", "160415.533000", "160415.536000", "160415.538000", "160415.541000", "160415.544000", "160415.546000", "160415.549000", "160415.551000", "160415.554000", "160415.556000", "160415.559000", "160415.561000", "160415.564000", "160415.566000", "160415.569000", "160415.571000", "160415.574000", "160455.494000", "160455.496000", "160455.510000", "160455.513000", "160455.515000", "160455.518000", "160455.520000", "160455.523000", "160455.526000", "160455.528000", "160455.531000", "160455.533000", "160455.536000", "160455.538000", "160455.541000", "160455.544000", "160455.546000", "160455.549000", "160455.552000", "160455.554000", "160455.557000", "160455.559000", "160455.562000", "160455.564000", "160455.567000", "160455.570000", "160455.572000", "160455.575000", "160455.577000", "160455.580000", "160455.582000", "160455.585000", "160455.588000", "160503.039000", "160503.042000", "160503.045000", "160503.048000", "160503.050000", "160503.053000", "160503.055000"],
      "InstanceCreationTime": ["155755.498000", "155755.501000", "155755.504000", "155755.507000", "155755.509000", "155755.512000", "155755.514000", "155755.527000", "155755.529000", "155755.532000", "155755.534000", "155755.537000", "155755.539000", "155755.542000", "155755.545000", "155755.547000", "155755.550000", "155755.552000", "155755.555000", "155755.557000", "155755.560000", "155755.562000", "155755.565000", "155755.577000", "155755.580000", "155755.582000", "155755.585000", "155755.588000", "155755.590000", "155755.596000", "155755.599000", "155755.601000", "155755.604000", "155755.607000", "155755.609000", "155835.494000", "155835.496000", "155835.499000", "155835.502000", "155835.504000", "155835.507000", "155835.509000", "155835.512000", "155835.514000", "155835.517000", "155835.520000", "155835.522000", "155835.525000", "155835.527000", "155835.530000", "155835.533000", "155835.535000", "155835.538000", "155835.540000", "155835.543000", "155835.546000", "155835.548000", "155835.551000", "155835.553000", "155835.556000", "155835.558000", "155835.561000", "155835.563000", "155835.566000", "155835.569000", "155835.586000", "155835.589000", "155835.592000", "155835.594000", "155915.492000", "155915.495000", "155915.498000", "155915.500000", "155915.503000", "155915.505000", "155915.508000", "155915.510000", "155915.513000", "155915.515000", "155915.518000", "155915.521000", "155915.523000", "155915.534000", "155915.537000", "155915.539000", "155915.548000", "155915.551000", "155915.553000", "155915.556000", "155915.558000", "155915.561000", "155915.564000", "155915.566000", "155915.569000", "155915.571000", "155915.574000", "155915.576000", "155915.579000", "155915.581000", "155915.584000", "155915.587000", "155915.589000", "155955.493000", "155955.496000", "155955.499000", "155955.501000", "155955.504000", "155955.506000", "155955.509000", "155955.512000", "155955.514000", "155955.517000", "155955.520000", "155955.522000", "155955.525000", "155955.527000", "155955.530000", "155955.532000", "155955.535000", "155955.538000", "155955.540000", "155955.543000", "155955.545000", "155955.548000", "155955.550000", "155955.553000", "155955.556000", "155955.558000", "155955.561000", "155955.563000", "155955.566000", "155955.568000", "155955.571000", "155955.573000", "155955.576000", "160035.493000", "160035.506000", "160035.509000", "160035.511000", "160035.514000", "160035.516000", "160035.519000", "160035.521000", "160035.524000", "160035.527000", "160035.529000", "160035.532000", "160035.534000", "160035.537000", "160035.539000", "160035.548000", "160035.550000", "160035.553000", "160035.555000", "160035.558000", "160035.561000", "160035.563000", "160035.566000", "160035.568000", "160035.571000", "160035.573000", "160035.576000", "160035.578000", "160035.581000", "160035.584000", "160035.586000", "160035.589000", "160035.591000", "160035.594000", "160115.493000", "160115.495000", "160115.498000", "160115.500000", "160115.503000", "160115.505000", "160115.508000", "160115.510000", "160115.513000", "160115.516000", "160115.524000", "160115.527000", "160115.530000", "160115.532000", "160115.535000", "160115.537000", "160115.540000", "160115.542000", "160115.545000", "160115.547000", "160115.550000", "160115.552000", "160115.555000", "160115.557000", "160115.560000", "160115.562000", "160115.565000", "160115.567000", "160115.570000", "160115.572000", "160115.575000", "160115.578000", "160115.580000", "160135.493000", "160135.495000", "160135.498000", "160135.501000", "160135.503000", "160135.506000", "160135.508000", "160135.511000", "160135.514000", "160135.516000", "160135.519000", "160135.521000", "160135.524000", "160135.526000", "160135.529000", "160135.531000", "160135.534000", "160215.494000", "160215.497000", "160215.499000", "160215.502000", "160215.504000", "160215.507000", "160215.510000", "160215.512000", "160215.515000", "160215.517000", "160215.520000", "160215.523000", "160215.525000", "160215.528000", "160215.530000", "160215.533000", "160215.536000", "160215.538000", "160215.541000", "160215.543000", "160215.546000", "160215.549000", "160215.551000", "160215.554000", "160215.557000", "160215.559000", "160215.562000", "160215.564000", "160215.567000", "160215.569000", "160215.589000", "160215.591000", "160215.611000", "160255.494000", "160255.496000", "160255.499000", "160255.501000", "160255.504000", "160255.507000", "160255.509000", "160255.512000", "160255.515000", "160255.517000", "160255.520000", "160255.522000", "160255.525000", "160255.528000", "160255.530000", "160255.533000", "160255.535000", "160255.538000", "160255.540000", "160255.543000", "160255.545000", "160255.548000", "160255.551000", "160255.553000", "160255.556000", "160255.558000", "160255.561000", "160255.564000", "160255.566000", "160255.577000", "160255.580000", "160255.582000", "160255.585000", "160335.493000", "160335.495000", "160335.498000", "160335.501000", "160335.503000", "160335.506000", "160335.508000", "160335.511000", "160335.513000", "160335.516000", "160335.519000", "160335.521000", "160335.524000", "160335.526000", "160335.529000", "160335.531000", "160335.534000", "160335.537000", "160335.539000", "160335.542000", "160335.544000", "160335.547000", "160335.549000", "160335.552000", "160335.555000", "160335.557000", "160335.560000", "160335.570000", "160335.573000", "160335.576000", "160335.578000", "160335.581000", "160335.583000", "160335.586000", "160415.492000", "160415.495000", "160415.498000", "160415.500000", "160415.503000", "160415.505000", "160415.508000", "160415.510000", "160415.513000", "160415.516000", "160415.518000", "160415.521000", "160415.523000", "160415.526000", "160415.528000", "160415.531000", "160415.533000", "160415.536000", "160415.538000", "160415.541000", "160415.544000", "160415.546000", "160415.549000", "160415.551000", "160415.554000", "160415.556000", "160415.559000", "160415.561000", "160415.564000", "160415.566000", "160415.569000", "160415.571000", "160415.574000", "160455.494000", "160455.496000", "160455.510000", "160455.513000", "160455.515000", "160455.518000", "160455.520000", "160455.523000", "160455.526000", "160455.528000", "160455.531000", "160455.533000", "160455.536000", "160455.538000", "160455.541000", "160455.544000", "160455.546000", "160455.549000", "160455.552000", "160455.554000", "160455.557000", "160455.559000", "160455.562000", "160455.564000", "160455.567000", "160455.570000", "160455.572000", "160455.575000", "160455.577000", "160455.580000", "160455.582000", "160455.585000", "160455.588000", "160503.039000", "160503.042000", "160503.045000", "160503.048000", "160503.050000", "160503.053000", "160503.055000"],
      "InstanceNumber": [1, 2, 3, 4, 5, 6, 7, 8, 9, 10, 11, 12, 13, 14, 15, 16, 17, 18, 19, 20, 21, 22, 23, 24, 25, 26, 27, 28, 29, 30, 31, 32, 33, 34, 35, 36, 37, 38, 39, 40, 41, 42, 43, 44, 45, 46, 47, 48, 49, 50, 51, 52, 53, 54, 55, 56, 57, 58, 59, 60, 61, 62, 63, 64, 65, 66, 67, 68, 69, 70, 71, 72, 73, 74, 75, 76, 77, 78, 79, 80, 81, 82, 83, 84, 85, 86, 87, 88, 89, 90, 91, 92, 93, 94, 95, 96, 97, 98, 99, 100, 101, 102, 103, 104, 105, 106, 107, 108, 109, 110, 111, 112, 113, 114, 115, 116, 117, 118, 119, 120, 121, 122, 123, 124, 125, 126, 127, 128, 129, 130, 131, 132, 133, 134, 135, 136, 137, 138, 139, 140, 141, 142, 143, 144, 145, 146, 147, 148, 149, 150, 151, 152, 153, 154, 155, 156, 157, 158, 159, 160, 161, 162, 163, 164, 165, 166, 167, 168, 169, 170, 171, 172, 173, 174, 175, 176, 177, 178, 179, 180, 181, 182, 183, 184, 185, 186, 187, 188, 189, 190, 191, 192, 193, 194, 195, 196, 197, 198, 199, 200, 201, 202, 203, 204, 205, 206, 207, 208, 209, 210, 211, 212, 213, 214, 215, 216, 217, 218, 219, 220, 221, 222, 223, 224, 225, 226, 227, 228, 229, 230, 231, 232, 233, 234, 235, 236, 237, 238, 239, 240, 241, 242, 243, 244, 245, 246, 247, 248, 249, 250, 251, 252, 253, 254, 255, 256, 257, 258, 259, 260, 261, 262, 263, 264, 265, 266, 267, 268, 269, 270, 271, 272, 273, 274, 275, 276, 277, 278, 279, 280, 281, 282, 283, 284, 285, 286, 287, 288, 289, 290, 291, 292, 293, 294, 295, 296, 297, 298, 299, 300, 301, 302, 303, 304, 305, 306, 307, 308, 309, 310, 311, 312, 313, 314, 315, 316, 317, 318, 319, 320, 321, 322, 323, 324, 325, 326, 327, 328, 329, 330, 331, 332, 333, 334, 335, 336, 337, 338, 339, 340, 341, 342, 343, 344, 345, 346, 347, 348, 349, 350, 351, 352, 353, 354, 355, 356, 357, 358, 359, 360, 361, 362, 363, 364, 365, 366, 367, 368, 369, 370, 371, 372, 373, 374, 375, 376, 377, 378, 379, 380, 381, 382, 383, 384, 385, 386, 387, 388, 389, 390, 391, 392],
