{
  "AcquisitionMatrixPE": 88,
  "AcquisitionNumber": 1,
  "AcquisitionTime": "15:42:8.350000",
  "BandwidthPerPixelPhaseEncode": 19.592,
  "BaseResolution": 88,
  "BodyPartExamined": "BRAIN",
  "ConsistencyInfo": "N4_VE11C_LATEST_20160120",
  "ConversionSoftware": "dcm2niix",
  "ConversionSoftwareVersion": "v1.0.20190902",
  "DerivedVendorReportedEchoSpacing": 0.000580014,
  "DeviceSerialNumber": "67050",
  "DwellTime": 2.6e-06,
  "EchoTime": 0.033,
  "EchoTrainLength": 88,
  "EffectiveEchoSpacing": 0.000580014,
  "FlipAngle": 62,
  "ImageOrientationPatientDICOM": [0.994355, -0.050014, 0.0935787, 0.049328, 0.998736, 0.00963087],
  "ImageType": [
    "ORIGINAL",
    "PRIMARY",
    "M",
    "ND",
    "MOSAIC"
],
  "ImagingFrequency": 123.251,
  "InPlanePhaseEncodingDirectionDICOM": "COL",
  "InstitutionAddress": "Olive_Street_60_Providence_RI_US_02912",
  "InstitutionName": "BROWN_UNIVERSITY_MRF",
  "InstitutionalDepartmentName": "Department",
  "MRAcquisitionType": "2D",
  "MagneticFieldStrength": 3,
  "Manufacturer": "Siemens",
  "ManufacturersModelName": "Prisma_fit",
  "Modality": "MR",
  "MultibandAccelerationFactor": 4,
  "PartialFourier": 1,
  "PatientPosition": "HFS",
  "PercentPhaseFOV": 100,
  "PhaseEncodingDirection": "j-",
  "PhaseEncodingSteps": 88,
  "PhaseResolution": 1,
  "PixelBandwidth": 2185,
  "ProcedureStepDescription": "ASHENHAV_1222",
  "ProtocolName": "func-bold_task-RDMmotion_run-04",
  "PulseSequenceDetails": "%SiemensSeq%_ep2d_bold",
  "ReceiveCoilActiveElements": "HC1-7;NC1",
  "ReceiveCoilName": "HeadNeck_64",
  "ReconMatrixPE": 88,
  "RefLinesPE": 8,
  "RepetitionTime": 1.2,
  "SAR": 0.0457339,
  "ScanOptions": "FS",
  "ScanningSequence": "EP",
  "SequenceName": "_epfid2d1_88",
  "SequenceVariant": "SK",
  "SeriesDescription": "func-bold_task-RDMmotion_run-04",
  "SeriesNumber": 13,
  "ShimSetting": [1756, -9107, 4339, 527, -159, -232, 72, 26],
  "SliceThickness": 2.4,
  "SliceTiming": [0.55, 0, 0.63, 0.08, 0.7075, 0.1575, 0.7875, 0.2375, 0.865, 0.315, 0.945, 0.3925, 1.0225, 0.4725, 1.1025, 0.55, 0, 0.63, 0.08, 0.7075, 0.1575, 0.7875, 0.2375, 0.865, 0.315, 0.945, 0.3925, 1.0225, 0.4725, 1.1025, 0.55, 0, 0.63, 0.08, 0.7075, 0.1575, 0.7875, 0.2375, 0.865, 0.315, 0.945, 0.3925, 1.0225, 0.4725, 1.1025, 0.55, 0, 0.63, 0.08, 0.7075, 0.1575, 0.7875, 0.2375, 0.865, 0.315, 0.945, 0.3925, 1.0225, 0.4725, 1.1025],
  "SoftwareVersions": "syngo_MR_E11",
  "SpacingBetweenSlices": 2.4,
  "StationName": "AWP67050",
  "TaskName": "RDMmotion",
  "TotalReadoutTime": 0.0504612,
  "TxRefAmp": 219.483,
  "dcmmeta_affine": [
    [-2.3841917514801025, 0.1182750016450882, 0.22546109557151794, 98.29522705078125],
    [0.11991982161998749, 2.3946969509124756, 0.011905092746019363, -102.90770721435547],
    [0.22437623143196106, -0.023092199116945267, 2.3893566131591797, -83.09690856933594],
    [0.0, 0.0, 0.0, 1.0]
],
  "dcmmeta_reorient_transform": [
    [0.0, -1.0, 0.0, 87.0],
    [1.0, 0.0, 0.0, 0.0],
    [0.0, 0.0, 1.0, 0.0],
    [0.0, 0.0, 0.0, 1.0]
],
  "dcmmeta_shape": [88, 88, 60, 125],
  "dcmmeta_slice_dim": 2,
  "dcmmeta_version": 0.6,
  "global": {
    "const": {
      "AcquisitionMatrix": [88, 0, 0, 88],
      "AngioFlag": "N",
      "BitsAllocated": 16,
      "BitsStored": 12,
      "BodyPartExamined": "BRAIN",
      "Columns": 704,
      "DeidentificationMethodCodeSequence": [
        {
          "CodeMeaning": "XNAT DicomEdit 6 Script",
          "CodeValue": "3",
          "CodingSchemeDesignator": "XNAT",
          "CodingSchemeVersion": "1.0"}
],
      "EchoNumbers": 1,
      "EchoTime": 33.0,
      "EchoTrainLength": 88,
      "FlipAngle": 62.0,
      "HighBit": 11,
      "ImageOrientationPatient": [0.99435488072662, -0.0500139544333, 0.09357871305532, 0.04932796464468, 0.99873620052865, 0.00963087003409],
      "ImagePositionPatient": [-879.34492431047, -806.06230199443, -161.32620301386],
      "ImageType": [
        "ORIGINAL",
        "PRIMARY",
        "M",
        "ND",
        "MOSAIC"
],
      "ImagedNucleus": "1H",
      "ImagingFrequency": 123.250761,
      "InPlanePhaseEncodingDirection": "COL",
      "MRAcquisitionType": "2D",
      "MagneticFieldStrength": 3.0,
      "Manufacturer": "SIEMENS",
      "ManufacturerModelName": "Prisma_fit",
      "Modality": "MR",
      "NumberOfAverages": 1.0,
      "NumberOfPhaseEncodingSteps": 88,
      "PercentPhaseFieldOfView": 100.0,
      "PercentSampling": 100.0,
      "PerformedProcedureStepStartTime": "144128.036000",
      "PhotometricInterpretation": "MONOCHROME2",
      "PixelBandwidth": 2185.0,
      "PixelRepresentation": 0,
      "PixelSpacing": [2.3977272510529, 2.3977272510529],
      "ProtocolName": "func-bold_task-RDMmotion_run-04",
      "RepetitionTime": 1200.0,
      "Rows": 704,
      "SAR": 0.0457338889622,
      "SamplesPerPixel": 1,
      "ScanOptions": "FS",
      "ScanningSequence": "EP",
      "SequenceName": "*epfid2d1_88",
      "SequenceVariant": "SK",
      "SeriesDescription": "func-bold_task-RDMmotion_run-04",
      "SeriesNumber": 13,
      "SeriesTime": "154215.494000",
      "SliceLocation": -74.004802255241,
      "SliceThickness": 2.4000000953674,
      "SmallestImagePixelValue": 0,
      "SoftwareVersions": "syngo MR E11",
      "SpacingBetweenSlices": 2.3999999856663,
      "SpecificCharacterSet": "ISO_IR 100",
      "StudyID": "1",
      "StudyTime": "144127.968000",
      "TransmitCoilName": "Body",
      "VariableFlipAngleFlag": "N",
      "WindowCenterWidthExplanation": "Algo1",
      "dBdt": 0.0},
    "slices": {}
  },
  "time": {
    "samples": {
      "AcquisitionNumber": [1, 2, 3, 4, 5, 6, 7, 8, 9, 10, 11, 12, 13, 14, 15, 16, 17, 18, 19, 20, 21, 22, 23, 24, 25, 26, 27, 28, 29, 30, 31, 32, 33, 34, 35, 36, 37, 38, 39, 40, 41, 42, 43, 44, 45, 46, 47, 48, 49, 50, 51, 52, 53, 54, 55, 56, 57, 58, 59, 60, 61, 62, 63, 64, 65, 66, 67, 68, 69, 70, 71, 72, 73, 74, 75, 76, 77, 78, 79, 80, 81, 82, 83, 84, 85, 86, 87, 88, 89, 90, 91, 92, 93, 94, 95, 96, 97, 98, 99, 100, 101, 102, 103, 104, 105, 106, 107, 108, 109, 110, 111, 112, 113, 114, 115, 116, 117, 118, 119, 120, 121, 122, 123, 124, 125],
      "AcquisitionTime": ["154208.350000", "154209.550000", "154210.750000", "154211.950000", "154213.150000", "154214.350000", "154215.550000", "154216.750000", "154217.950000", "154219.150000", "154220.350000", "154221.550000", "154222.750000", "154223.950000", "154225.150000", "154226.350000", "154227.550000", "154228.750000", "154229.950000", "154231.150000", "154232.350000", "154233.550000", "154234.750000", "154235.950000", "154237.150000", "154238.350000", "154239.550000", "154240.750000", "154241.950000", "154243.150000", "154244.350000", "154245.550000", "154246.750000", "154247.950000", "154249.150000", "154250.350000", "154251.550000", "154252.750000", "154253.950000", "154255.150000", "154256.350000", "154257.550000", "154258.750000", "154259.950000", "154301.150000", "154302.350000", "154303.550000", "154304.750000", "154305.950000", "154307.150000", "154308.350000", "154309.550000", "154310.750000", "154311.950000", "154313.150000", "154314.350000", "154315.550000", "154316.750000", "154317.950000", "154319.150000", "154320.350000", "154321.550000", "154322.750000", "154323.950000", "154325.150000", "154326.350000", "154327.550000", "154328.750000", "154329.950000", "154331.150000", "154332.350000", "154333.550000", "154334.750000", "154335.950000", "154337.150000", "154338.350000", "154339.550000", "154340.750000", "154341.950000", "154343.150000", "154344.350000", "154345.550000", "154346.750000", "154347.950000", "154349.150000", "154350.350000", "154351.550000", "154352.750000", "154353.950000", "154355.150000", "154356.350000", "154357.550000", "154358.750000", "154359.950000", "154401.150000", "154402.350000", "154403.550000", "154404.750000", "154405.950000", "154407.150000", "154408.350000", "154409.550000", "154410.750000", "154411.950000", "154413.150000", "154414.350000", "154415.550000", "154416.750000", "154417.950000", "154419.150000", "154420.350000", "154421.550000", "154422.750000", "154423.950000", "154425.150000", "154426.350000", "154427.550000", "154428.750000", "154429.950000", "154431.150000", "154432.350000", "154433.550000", "154434.750000", "154435.950000", "154437.150000"],
      "ContentTime": ["154215.498000", "154215.501000", "154215.504000", "154215.518000", "154215.520000", "154255.492000", "154255.495000", "154255.498000", "154255.500000", "154255.503000", "154255.505000", "154255.508000", "154255.510000", "154255.513000", "154255.516000", "154255.518000", "154255.521000", "154255.523000", "154255.526000", "154255.528000", "154255.531000", "154255.534000", "154255.536000", "154255.539000", "154255.541000", "154255.544000", "154255.546000", "154255.549000", "154255.551000", "154255.554000", "154255.556000", "154255.559000", "154255.562000", "154255.568000", "154255.571000", "154255.573000", "154255.576000", "154255.579000", "154255.581000", "154335.494000", "154335.497000", "154335.499000", "154335.502000", "154335.504000", "154335.508000", "154335.511000", "154335.514000", "154335.516000", "154335.519000", "154335.521000", "154335.524000", "154335.526000", "154335.529000", "154335.531000", "154335.534000", "154335.536000", "154335.539000", "154335.541000", "154335.544000", "154335.547000", "154335.549000", "154335.552000", "154335.554000", "154335.557000", "154335.559000", "154335.562000", "154335.564000", "154335.567000", "154335.570000", "154335.572000", "154335.575000", "154335.577000", "154415.493000", "154415.496000", "154415.499000", "154415.501000", "154415.504000", "154415.506000", "154415.509000", "154415.511000", "154415.514000", "154415.516000", "154415.519000", "154415.521000", "154415.524000", "154415.526000", "154415.529000", "154415.531000", "154415.534000", "154415.536000", "154415.539000", "154415.542000", "154415.544000", "154415.547000", "154415.549000", "154415.552000", "154415.555000", "154415.557000", "154415.560000", "154415.562000", "154415.565000", "154415.567000", "154415.570000", "154415.572000", "154415.590000", "154438.422000", "154438.425000", "154438.427000", "154438.430000", "154438.433000", "154438.435000", "154438.438000", "154438.440000", "154438.443000", "154438.446000", "154438.448000", "154438.451000", "154438.454000", "154438.466000", "154438.469000", "154438.472000", "154438.475000", "154438.477000", "154438.480000", "154438.482000"],
      "InstanceCreationTime": ["154215.498000", "154215.501000", "154215.504000", "154215.518000", "154215.520000", "154255.492000", "154255.495000", "154255.498000", "154255.500000", "154255.503000", "154255.505000", "154255.508000", "154255.510000", "154255.513000", "154255.516000", "154255.518000", "154255.521000", "154255.523000", "154255.526000", "154255.528000", "154255.531000", "154255.534000", "154255.536000", "154255.539000", "154255.541000", "154255.544000", "154255.546000", "154255.549000", "154255.551000", "154255.554000", "154255.556000", "154255.559000", "154255.562000", "154255.568000", "154255.571000", "154255.573000", "154255.576000", "154255.579000", "154255.581000", "154335.494000", "154335.497000", "154335.499000", "154335.502000", "154335.504000", "154335.508000", "154335.511000", "154335.514000", "154335.516000", "154335.519000", "154335.521000", "154335.524000", "154335.526000", "154335.529000", "154335.531000", "154335.534000", "154335.536000", "154335.539000", "154335.541000", "154335.544000", "154335.547000", "154335.549000", "154335.552000", "154335.554000", "154335.557000", "154335.559000", "154335.562000", "154335.564000", "154335.567000", "154335.570000", "154335.572000", "154335.575000", "154335.577000", "154415.493000", "154415.496000", "154415.499000", "154415.501000", "154415.504000", "154415.506000", "154415.509000", "154415.511000", "154415.514000", "154415.516000", "154415.519000", "154415.521000", "154415.524000", "154415.526000", "154415.529000", "154415.531000", "154415.534000", "154415.536000", "154415.539000", "154415.542000", "154415.544000", "154415.547000", "154415.549000", "154415.552000", "154415.555000", "154415.557000", "154415.560000", "154415.562000", "154415.565000", "154415.567000", "154415.570000", "154415.572000", "154415.590000", "154438.422000", "154438.425000", "154438.427000", "154438.430000", "154438.433000", "154438.435000", "154438.438000", "154438.440000", "154438.443000", "154438.446000", "154438.448000", "154438.451000", "154438.454000", "154438.466000", "154438.469000", "154438.472000", "154438.475000", "154438.477000", "154438.480000", "154438.482000"],
      "InstanceNumber": [1, 2, 3, 4, 5, 6, 7, 8, 9, 10, 11, 12, 13, 14, 15, 16, 17, 18, 19, 20, 21, 22, 23, 24, 25, 26, 27, 28, 29, 30, 31, 32, 33, 34, 35, 36, 37, 38, 39, 40, 41, 42, 43, 44, 45, 46, 47, 48, 49, 50, 51, 52, 53, 54, 55, 56, 57, 58, 59, 60, 61, 62, 63, 64, 65, 66, 67, 68, 69, 70, 71, 72, 73, 74, 75, 76, 77, 78, 79, 80, 81, 82, 83, 84, 85, 86, 87, 88, 89, 90, 91, 92, 93, 94, 95, 96, 97, 98, 99, 100, 101, 102, 103, 104, 105, 106, 107, 108, 109, 110, 111, 112, 113, 114, 115, 116, 117, 118, 119, 120, 121, 122, 123, 124, 125],
      "LargestImagePixelValue": [2088, 2029, 1991, 1976, 1970, 1969, 1975, 1977, 1979, 1967, 1979, 1963, 1957, 1961, 1972, 1962, 1966, 1967, 1954, 1957, 1964, 1975, 1947, 1961, 1958, 1956, 1964, 1965, 1967, 1972, 1971, 1970, 1978, 1971, 1978, 1960, 1954, 1955, 1962, 1949, 1953, 1969, 1957, 1965, 1965, 1960, 1967, 1984, 1967, 1963, 1957, 1956, 1962, 1964, 1957, 1969, 1970, 1961, 1966, 1979, 1973, 1976, 1971, 1960, 1962, 1965, 1977, 1958, 1966, 1948, 1958, 1954, 1972, 1984, 1971, 1964, 1964, 1971, 1968, 1967, 1971, 1964, 1968, 1959, 1978, 1963, 1979, 1981, 1962, 1967, 1967, 1964, 1980, 1954, 1964, 1960, 1948, 1968, 1961, 1964, 1963, 1965, 1959, 1973, 1972, 1965, 1973, 1967, 1974, 1987, 1972, 1976, 1957, 1965, 1968, 1955, 1962, 1953, 1950, 1964, 1960, 1951, 1964, 1947, 1954],
      "WindowCenter": [595.0, 593.0, 592.0, 592.0, 591.0, 592.0, 593.0, 592.0, 592.0, 591.0, 591.0, 591.0, 591.0, 591.0, 592.0, 592.0, 593.0, 593.0, 592.0, 591.0, 591.0, 592.0, 591.0, 592.0, 592.0, 592.0, 592.0, 591.0, 592.0, 592.0, 592.0, 592.0, 592.0, 591.0, 591.0, 591.0, 591.0, 592.0, 592.0, 592.0, 592.0, 592.0, 593.0, 593.0, 593.0, 593.0, 593.0, 593.0, 592.0, 592.0, 592.0, 592.0, 592.0, 592.0, 592.0, 593.0, 593.0, 593.0, 594.0, 593.0, 593.0, 593.0, 593.0, 593.0, 592.0, 592.0, 592.0, 592.0, 591.0, 592.0, 592.0, 592.0, 593.0, 593.0, 593.0, 592.0, 592.0, 592.0, 592.0, 593.0, 593.0, 593.0, 593.0, 593.0, 593.0, 592.0, 592.0, 592.0, 592.0, 593.0, 592.0, 592.0, 593.0, 592.0, 593.0, 593.0, 592.0, 593.0, 594.0, 593.0, 592.0, 592.0, 591.0, 591.0, 591.0, 592.0, 592.0, 592.0, 593.0, 593.0, 593.0, 593.0, 592.0, 592.0, 592.0, 592.0, 592.0, 591.0, 592.0, 591.0, 591.0, 591.0, 592.0, 592.0, 592.0],
      "WindowWidth": [1269.0, 1265.0, 1262.0, 1261.0, 1261.0, 1262.0, 1264.0, 1262.0, 1263.0, 1261.0, 1260.0, 1260.0, 1259.0, 1260.0, 1262.0, 1263.0, 1264.0, 1263.0, 1262.0, 1260.0, 1260.0, 1261.0, 1260.0, 1263.0, 1263.0, 1263.0, 1262.0, 1260.0, 1261.0, 1262.0, 1261.0, 1262.0, 1261.0, 1260.0, 1260.0, 1260.0, 1260.0, 1261.0, 1263.0, 1262.0, 1263.0, 1263.0, 1265.0, 1265.0, 1265.0, 1265.0, 1264.0, 1264.0, 1263.0, 1262.0, 1262.0, 1263.0, 1263.0, 1262.0, 1262.0, 1263.0, 1264.0, 1265.0, 1266.0, 1265.0, 1265.0, 1265.0, 1264.0, 1264.0, 1263.0, 1263.0, 1261.0, 1261.0, 1261.0, 1261.0, 1262.0, 1262.0, 1263.0, 1263.0, 1264.0, 1263.0, 1262.0, 1261.0, 1262.0, 1264.0, 1265.0, 1265.0, 1264.0, 1264.0, 1264.0, 1263.0, 1262.0, 1263.0, 1263.0, 1263.0, 1263.0, 1263.0, 1263.0, 1262.0, 1264.0, 1264.0, 1263.0, 1265.0, 1266.0, 1265.0, 1263.0, 1262.0, 1260.0, 1261.0, 1261.0, 1262.0, 1263.0, 1261.0, 1264.0, 1263.0, 1264.0, 1263.0, 1262.0, 1262.0, 1261.0, 1262.0, 1262.0, 1261.0, 1261.0, 1260.0, 1261.0, 1261.0, 1262.0, 1261.0, 1262.0]
    },
    "slices": {}
  }
}