{
  "AcquisitionMatrixPE": 88,
  "AcquisitionNumber": 1,
  "AcquisitionTime": "15:09:38.057500",
  "BandwidthPerPixelPhaseEncode": 19.592,
  "BaseResolution": 88,
  "BodyPartExamined": "BRAIN",
  "ConsistencyInfo": "N4_VE11C_LATEST_20160120",
  "ConversionSoftware": "dcm2niix",
  "ConversionSoftwareVersion": "v1.0.20190902",
  "DerivedVendorReportedEchoSpacing": 0.000580014,
  "DeviceSerialNumber": "67050",
  "DwellTime": 2.6e-06,
  "EchoTime": 0.033,
  "EchoTrainLength": 88,
  "EffectiveEchoSpacing": 0.000580014,
  "FlipAngle": 62,
  "ImageOrientationPatientDICOM": [0.994355, -0.050014, 0.0935787, 0.049328, 0.998736, 0.00963087],
  "ImageType": [
    "ORIGINAL",
    "PRIMARY",
    "M",
    "ND",
    "MOSAIC"
],
  "ImagingFrequency": 123.251,
  "InPlanePhaseEncodingDirectionDICOM": "COL",
  "InstitutionAddress": "Olive_Street_60_Providence_RI_US_02912",
  "InstitutionName": "BROWN_UNIVERSITY_MRF",
  "InstitutionalDepartmentName": "Department",
  "MRAcquisitionType": "2D",
  "MagneticFieldStrength": 3,
  "Manufacturer": "Siemens",
  "ManufacturersModelName": "Prisma_fit",
  "Modality": "MR",
  "MultibandAccelerationFactor": 4,
  "PartialFourier": 1,
  "PatientPosition": "HFS",
  "PercentPhaseFOV": 100,
  "PhaseEncodingDirection": "j-",
  "PhaseEncodingSteps": 88,
  "PhaseResolution": 1,
  "PixelBandwidth": 2185,
  "ProcedureStepDescription": "ASHENHAV_1222",
  "ProtocolName": "func-bold_task-RDMcolor_run-01",
  "PulseSequenceDetails": "%SiemensSeq%_ep2d_bold",
  "ReceiveCoilActiveElements": "HC1-7;NC1",
  "ReceiveCoilName": "HeadNeck_64",
  "ReconMatrixPE": 88,
  "RefLinesPE": 8,
  "RepetitionTime": 1.2,
  "SAR": 0.0462029,
  "ScanOptions": "FS",
  "ScanningSequence": "EP",
  "SequenceName": "_epfid2d1_88",
  "SequenceVariant": "SK",
  "SeriesDescription": "func-bold_task-RDMcolor_run-01",
  "SeriesNumber": 8,
  "ShimSetting": [1756, -9107, 4339, 527, -159, -232, 72, 26],
  "SliceThickness": 2.4,
  "SliceTiming": [0.55, 0, 0.63, 0.08, 0.7075, 0.1575, 0.7875, 0.2375, 0.865, 0.315, 0.945, 0.3925, 1.0225, 0.4725, 1.1025, 0.55, 0, 0.63, 0.08, 0.7075, 0.1575, 0.7875, 0.2375, 0.865, 0.315, 0.945, 0.3925, 1.0225, 0.4725, 1.1025, 0.55, 0, 0.63, 0.08, 0.7075, 0.1575, 0.7875, 0.2375, 0.865, 0.315, 0.945, 0.3925, 1.0225, 0.4725, 1.1025, 0.55, 0, 0.63, 0.08, 0.7075, 0.1575, 0.7875, 0.2375, 0.865, 0.315, 0.945, 0.3925, 1.0225, 0.4725, 1.1025],
  "SoftwareVersions": "syngo_MR_E11",
  "SpacingBetweenSlices": 2.4,
  "StationName": "AWP67050",
  "TaskName": "RDMcolor",
  "TotalReadoutTime": 0.0504612,
  "TxRefAmp": 219.483,
  "dcmmeta_affine": [
    [-2.3841917514801025, 0.1182750016450882, 0.22546109557151794, 98.29522705078125],
    [0.11991982161998749, 2.3946969509124756, 0.011905092746019363, -102.90770721435547],
    [0.22437623143196106, -0.023092199116945267, 2.3893566131591797, -83.09690856933594],
    [0.0, 0.0, 0.0, 1.0]
],
  "dcmmeta_reorient_transform": [
    [0.0, -1.0, 0.0, 87.0],
    [1.0, 0.0, 0.0, 0.0],
    [0.0, 0.0, 1.0, 0.0],
    [0.0, 0.0, 0.0, 1.0]
],
  "dcmmeta_shape": [88, 88, 60, 392],
  "dcmmeta_slice_dim": 2,
  "dcmmeta_version": 0.6,
  "global": {
    "const": {
      "AcquisitionMatrix": [88, 0, 0, 88],
      "AngioFlag": "N",
      "BitsAllocated": 16,
      "BitsStored": 12,
      "BodyPartExamined": "BRAIN",
      "Columns": 704,
      "DeidentificationMethodCodeSequence": [
        {
          "CodeMeaning": "XNAT DicomEdit 6 Script",
          "CodeValue": "3",
          "CodingSchemeDesignator": "XNAT",
          "CodingSchemeVersion": "1.0"}
],
      "EchoNumbers": 1,
      "EchoTime": 33.0,
      "EchoTrainLength": 88,
      "FlipAngle": 62.0,
      "HighBit": 11,
      "ImageOrientationPatient": [0.99435488072662, -0.0500139544333, 0.09357871305532, 0.04932796464468, 0.99873620052865, 0.00963087003409],
      "ImagePositionPatient": [-879.34492431047, -806.06230199443, -161.32620301386],
      "ImageType": [
        "ORIGINAL",
        "PRIMARY",
        "M",
        "ND",
        "MOSAIC"
],
      "ImagedNucleus": "1H",
      "ImagingFrequency": 123.250746,
      "InPlanePhaseEncodingDirection": "COL",
      "MRAcquisitionType": "2D",
      "MagneticFieldStrength": 3.0,
      "Manufacturer": "SIEMENS",
      "ManufacturerModelName": "Prisma_fit",
      "Modality": "MR",
      "NumberOfAverages": 1.0,
      "NumberOfPhaseEncodingSteps": 88,
      "PercentPhaseFieldOfView": 100.0,
      "PercentSampling": 100.0,
      "PerformedProcedureStepStartTime": "144128.036000",
      "PhotometricInterpretation": "MONOCHROME2",
      "PixelBandwidth": 2185.0,
      "PixelRepresentation": 0,
      "PixelSpacing": [2.3977272510529, 2.3977272510529],
      "ProtocolName": "func-bold_task-RDMcolor_run-01",
      "RepetitionTime": 1200.0,
      "Rows": 704,
      "SAR": 0.04620286736439,
      "SamplesPerPixel": 1,
      "ScanOptions": "FS",
      "ScanningSequence": "EP",
      "SequenceName": "*epfid2d1_88",
      "SequenceVariant": "SK",
      "SeriesDescription": "func-bold_task-RDMcolor_run-01",
      "SeriesNumber": 8,
      "SeriesTime": "151015.556000",
      "SliceLocation": -74.004802255241,
      "SliceThickness": 2.4000000953674,
      "SmallestImagePixelValue": 0,
      "SoftwareVersions": "syngo MR E11",
      "SpacingBetweenSlices": 2.3999999856663,
      "SpecificCharacterSet": "ISO_IR 100",
      "StudyID": "1",
      "StudyTime": "144127.968000",
      "TransmitCoilName": "Body",
      "VariableFlipAngleFlag": "N",
      "WindowCenterWidthExplanation": "Algo1",
      "dBdt": 0.0},
    "slices": {}
  },
  "time": {
    "samples": {
      "AcquisitionNumber": [1, 2, 3, 4, 5, 6, 7, 8, 9, 10, 11, 12, 13, 14, 15, 16, 17, 18, 19, 20, 21, 22, 23, 24, 25, 26, 27, 28, 29, 30, 31, 32, 33, 34, 35, 36, 37, 38, 39, 40, 41, 42, 43, 44, 45, 46, 47, 48, 49, 50, 51, 52, 53, 54, 55, 56, 57, 58, 59, 60, 61, 62, 63, 64, 65, 66, 67, 68, 69, 70, 71, 72, 73, 74, 75, 76, 77, 78, 79, 80, 81, 82, 83, 84, 85, 86, 87, 88, 89, 90, 91, 92, 93, 94, 95, 96, 97, 98, 99, 100, 101, 102, 103, 104, 105, 106, 107, 108, 109, 110, 111, 112, 113, 114, 115, 116, 117, 118, 119, 120, 121, 122, 123, 124, 125, 126, 127, 128, 129, 130, 131, 132, 133, 134, 135, 136, 137, 138, 139, 140, 141, 142, 143, 144, 145, 146, 147, 148, 149, 150, 151, 152, 153, 154, 155, 156, 157, 158, 159, 160, 161, 162, 163, 164, 165, 166, 167, 168, 169, 170, 171, 172, 173, 174, 175, 176, 177, 178, 179, 180, 181, 182, 183, 184, 185, 186, 187, 188, 189, 190, 191, 192, 193, 194, 195, 196, 197, 198, 199, 200, 201, 202, 203, 204, 205, 206, 207, 208, 209, 210, 211, 212, 213, 214, 215, 216, 217, 218, 219, 220, 221, 222, 223, 224, 225, 226, 227, 228, 229, 230, 231, 232, 233, 234, 235, 236, 237, 238, 239, 240, 241, 242, 243, 244, 245, 246, 247, 248, 249, 250, 251, 252, 253, 254, 255, 256, 257, 258, 259, 260, 261, 262, 263, 264, 265, 266, 267, 268, 269, 270, 271, 272, 273, 274, 275, 276, 277, 278, 279, 280, 281, 282, 283, 284, 285, 286, 287, 288, 289, 290, 291, 292, 293, 294, 295, 296, 297, 298, 299, 300, 301, 302, 303, 304, 305, 306, 307, 308, 309, 310, 311, 312, 313, 314, 315, 316, 317, 318, 319, 320, 321, 322, 323, 324, 325, 326, 327, 328, 329, 330, 331, 332, 333, 334, 335, 336, 337, 338, 339, 340, 341, 342, 343, 344, 345, 346, 347, 348, 349, 350, 351, 352, 353, 354, 355, 356, 357, 358, 359, 360, 361, 362, 363, 364, 365, 366, 367, 368, 369, 370, 371, 372, 373, 374, 375, 376, 377, 378, 379, 380, 381, 382, 383, 384, 385, 386, 387, 388, 389, 390, 391, 392],
      "AcquisitionTime": ["150938.057500", "150939.257500", "150940.457500", "150941.657500", "150942.857500", "150944.057500", "150945.257500", "150946.457500", "150947.657500", "150948.857500", "150950.057500", "150951.257500", "150952.457500", "150953.657500", "150954.857500", "150956.057500", "150957.257500", "150958.457500", "150959.657500", "151000.857500", "151002.057500", "151003.257500", "151004.457500", "151005.657500", "151006.857500", "151008.057500", "151009.257500", "151010.457500", "151011.657500", "151012.857500", "151014.057500", "151015.257500", "151016.457500", "151017.657500", "151018.857500", "151020.057500", "151021.257500", "151022.457500", "151023.657500", "151024.857500", "151026.057500", "151027.257500", "151028.457500", "151029.657500", "151030.857500", "151032.057500", "151033.257500", "151034.457500", "151035.657500", "151036.857500", "151038.057500", "151039.257500", "151040.457500", "151041.657500", "151042.857500", "151044.057500", "151045.257500", "151046.457500", "151047.657500", "151048.857500", "151050.057500", "151051.257500", "151052.457500", "151053.657500", "151054.857500", "151056.057500", "151057.257500", "151058.457500", "151059.657500", "151100.857500", "151102.057500", "151103.257500", "151104.457500", "151105.657500", "151106.857500", "151108.057500", "151109.257500", "151110.457500", "151111.657500", "151112.857500", "151114.057500", "151115.257500", "151116.457500", "151117.657500", "151118.857500", "151120.057500", "151121.257500", "151122.457500", "151123.657500", "151124.857500", "151126.057500", "151127.257500", "151128.457500", "151129.657500", "151130.857500", "151132.057500", "151133.257500", "151134.457500", "151135.657500", "151136.857500", "151138.057500", "151139.257500", "151140.457500", "151141.657500", "151142.857500", "151144.057500", "151145.257500", "151146.457500", "151147.657500", "151148.857500", "151150.057500", "151151.257500", "151152.457500", "151153.657500", "151154.857500", "151156.057500", "151157.257500", "151158.457500", "151159.657500", "151200.857500", "151202.057500", "151203.257500", "151204.457500", "151205.657500", "151206.857500", "151208.057500", "151209.257500", "151210.457500", "151211.657500", "151212.857500", "151214.057500", "151215.257500", "151216.457500", "151217.657500", "151218.857500", "151220.057500", "151221.257500", "151222.457500", "151223.657500", "151224.857500", "151226.057500", "151227.257500", "151228.457500", "151229.657500", "151230.857500", "151232.057500", "151233.257500", "151234.457500", "151235.657500", "151236.857500", "151238.057500", "151239.257500", "151240.457500", "151241.657500", "151242.857500", "151244.057500", "151245.257500", "151246.457500", "151247.657500", "151248.857500", "151250.057500", "151251.257500", "151252.457500", "151253.657500", "151254.857500", "151256.057500", "151257.257500", "151258.457500", "151259.657500", "151300.857500", "151302.057500", "151303.257500", "151304.457500", "151305.657500", "151306.857500", "151308.057500", "151309.257500", "151310.457500", "151311.657500", "151312.857500", "151314.057500", "151315.257500", "151316.457500", "151317.657500", "151318.857500", "151320.057500", "151321.257500", "151322.457500", "151323.657500", "151324.857500", "151326.057500", "151327.257500", "151328.457500", "151329.657500", "151330.857500", "151332.057500", "151333.257500", "151334.457500", "151335.657500", "151336.857500", "151338.057500", "151339.257500", "151340.457500", "151341.657500", "151342.857500", "151344.057500", "151345.257500", "151346.457500", "151347.657500", "151348.857500", "151350.057500", "151351.257500", "151352.457500", "151353.657500", "151354.857500", "151356.057500", "151357.257500", "151358.457500", "151359.657500", "151400.857500", "151402.057500", "151403.257500", "151404.457500", "151405.657500", "151406.857500", "151408.057500", "151409.257500", "151410.457500", "151411.657500", "151412.857500", "151414.057500", "151415.257500", "151416.457500", "151417.657500", "151418.857500", "151420.057500", "151421.257500", "151422.457500", "151423.657500", "151424.857500", "151426.057500", "151427.257500", "151428.457500", "151429.657500", "151430.857500", "151432.057500", "151433.257500", "151434.457500", "151435.657500", "151436.857500", "151438.057500", "151439.257500", "151440.457500", "151441.657500", "151442.857500", "151444.057500", "151445.257500", "151446.457500", "151447.657500", "151448.857500", "151450.057500", "151451.257500", "151452.457500", "151453.657500", "151454.857500", "151456.057500", "151457.257500", "151458.457500", "151459.657500", "151500.857500", "151502.057500", "151503.257500", "151504.457500", "151505.657500", "151506.857500", "151508.057500", "151509.257500", "151510.457500", "151511.657500", "151512.857500", "151514.057500", "151515.257500", "151516.457500", "151517.657500", "151518.857500", "151520.057500", "151521.257500", "151522.457500", "151523.657500", "151524.857500", "151526.057500", "151527.257500", "151528.457500", "151529.657500", "151530.857500", "151532.057500", "151533.257500", "151534.457500", "151535.657500", "151536.857500", "151538.057500", "151539.257500", "151540.457500", "151541.657500", "151542.857500", "151544.057500", "151545.257500", "151546.457500", "151547.657500", "151548.857500", "151550.057500", "151551.257500", "151552.457500", "151553.657500", "151554.857500", "151556.057500", "151557.257500", "151558.457500", "151559.657500", "151600.857500", "151602.057500", "151603.257500", "151604.457500", "151605.657500", "151606.857500", "151608.057500", "151609.257500", "151610.457500", "151611.657500", "151612.857500", "151614.057500", "151615.257500", "151616.457500", "151617.657500", "151618.857500", "151620.057500", "151621.257500", "151622.457500", "151623.657500", "151624.857500", "151626.057500", "151627.257500", "151628.457500", "151629.657500", "151630.857500", "151632.057500", "151633.257500", "151634.457500", "151635.657500", "151636.857500", "151638.057500", "151639.257500", "151640.457500", "151641.657500", "151642.857500", "151644.057500", "151645.257500", "151646.457500", "151647.657500", "151648.857500", "151650.057500", "151651.257500", "151652.457500", "151653.657500", "151654.857500", "151656.057500", "151657.257500", "151658.457500", "151659.657500", "151700.857500", "151702.057500", "151703.257500", "151704.457500", "151705.657500", "151706.857500", "151708.057500", "151709.257500", "151710.457500", "151711.657500", "151712.857500", "151714.057500", "151715.257500", "151716.457500", "151717.657500", "151718.857500", "151720.057500", "151721.257500", "151722.457500", "151723.657500", "151724.857500", "151726.057500", "151727.257500"],
      "ContentTime": ["151015.559000", "151015.573000", "151015.576000", "151015.578000", "151015.581000", "151015.584000", "151015.586000", "151015.589000", "151015.591000", "151015.594000", "151015.606000", "151015.608000", "151015.611000", "151015.614000", "151015.616000", "151015.619000", "151015.622000", "151015.625000", "151015.637000", "151015.639000", "151015.651000", "151015.653000", "151015.656000", "151015.659000", "151015.662000", "151015.665000", "151015.668000", "151015.670000", "151015.673000", "151015.676000", "151055.555000", "151055.557000", "151055.560000", "151055.563000", "151055.565000", "151055.568000", "151055.570000", "151055.579000", "151055.581000", "151055.584000", "151055.586000", "151055.589000", "151055.592000", "151055.599000", "151055.602000", "151055.605000", "151055.607000", "151055.610000", "151055.612000", "151055.615000", "151055.618000", "151055.620000", "151055.638000", "151055.641000", "151055.643000", "151055.646000", "151055.648000", "151055.651000", "151055.653000", "151055.656000", "151055.659000", "151055.661000", "151055.664000", "151055.666000", "151135.555000", "151135.557000", "151135.560000", "151135.563000", "151135.565000", "151135.568000", "151135.570000", "151135.573000", "151135.575000", "151135.578000", "151135.580000", "151135.583000", "151135.585000", "151135.588000", "151135.590000", "151135.605000", "151135.607000", "151135.610000", "151135.612000", "151135.615000", "151135.618000", "151135.620000", "151135.623000", "151135.625000", "151135.628000", "151135.630000", "151135.633000", "151135.635000", "151135.638000", "151135.640000", "151135.643000", "151135.645000", "151135.648000", "151215.554000", "151215.557000", "151215.560000", "151215.562000", "151215.565000", "151215.568000", "151215.570000", "151215.573000", "151215.576000", "151215.578000", "151215.581000", "151215.584000", "151215.586000", "151215.589000", "151215.599000", "151215.602000", "151215.604000", "151215.607000", "151215.609000", "151215.612000", "151215.614000", "151215.617000", "151215.620000", "151215.622000", "151215.625000", "151215.627000", "151215.630000", "151215.633000", "151215.635000", "151215.638000", "151215.640000", "151215.643000", "151215.645000", "151255.555000", "151255.557000", "151255.560000", "151255.563000", "151255.565000", "151255.568000", "151255.570000", "151255.573000", "151255.576000", "151255.578000", "151255.581000", "151255.583000", "151255.586000", "151255.588000", "151255.591000", "151255.594000", "151255.596000", "151255.599000", "151255.601000", "151255.604000", "151255.607000", "151255.609000", "151255.612000", "151255.614000", "151255.617000", "151255.619000", "151255.622000", "151255.624000", "151255.627000", "151255.630000", "151255.632000", "151255.635000", "151255.637000", "151255.640000", "151335.554000", "151335.557000", "151335.560000", "151335.562000", "151335.565000", "151335.568000", "151335.570000", "151335.573000", "151335.575000", "151335.578000", "151335.580000", "151335.583000", "151335.586000", "151335.588000", "151335.591000", "151335.593000", "151335.596000", "151335.604000", "151335.607000", "151335.609000", "151335.612000", "151335.614000", "151335.617000", "151335.620000", "151335.622000", "151335.625000", "151335.627000", "151335.630000", "151335.632000", "151335.635000", "151335.637000", "151335.640000", "151335.643000", "151415.555000", "151415.557000", "151415.560000", "151415.562000", "151415.565000", "151415.568000", "151415.570000", "151415.573000", "151415.576000", "151415.578000", "151415.581000", "151415.583000", "151415.586000", "151415.588000", "151415.591000", "151415.606000", "151415.609000", "151415.611000", "151415.614000", "151415.617000", "151415.619000", "151415.622000", "151415.624000", "151415.627000", "151415.629000", "151415.632000", "151415.634000", "151415.637000", "151415.640000", "151415.642000", "151415.645000", "151415.647000", "151415.650000", "151455.554000", "151455.557000", "151455.567000", "151455.570000", "151455.573000", "151455.575000", "151455.578000", "151455.580000", "151455.583000", "151455.586000", "151455.588000", "151455.591000", "151455.593000", "151455.596000", "151455.598000", "151455.601000", "151455.603000", "151455.606000", "151455.609000", "151455.639000", "151455.641000", "151455.644000", "151455.646000", "151455.649000", "151455.651000", "151455.654000", "151455.656000", "151455.659000", "151455.661000", "151455.664000", "151455.667000", "151455.669000", "151455.672000", "151455.674000", "151535.554000", "151535.557000", "151535.560000", "151535.562000", "151535.565000", "151535.575000", "151535.578000", "151535.581000", "151535.583000", "151535.586000", "151535.589000", "151535.591000", "151535.594000", "151535.597000", "151535.600000", "151535.602000", "151535.605000", "151535.608000", "151535.610000", "151535.613000", "151535.616000", "151535.619000", "151535.621000", "151535.624000", "151535.626000", "151535.629000", "151535.632000", "151535.634000", "151535.637000", "151535.640000", "151535.642000", "151535.645000", "151535.647000", "151615.554000", "151615.557000", "151615.560000", "151615.563000", "151615.565000", "151615.568000", "151615.571000", "151615.573000", "151615.576000", "151615.578000", "151615.581000", "151615.584000", "151615.586000", "151615.589000", "151615.592000", "151615.594000", "151615.597000", "151615.600000", "151615.602000", "151615.605000", "151615.607000", "151615.610000", "151615.613000", "151615.616000", "151615.618000", "151615.621000", "151615.623000", "151615.626000", "151615.629000", "151615.631000", "151615.634000", "151615.636000", "151615.639000", "151655.555000", "151655.558000", "151655.560000", "151655.563000", "151655.565000", "151655.568000", "151655.570000", "151655.573000", "151655.575000", "151655.578000", "151655.581000", "151655.583000", "151655.586000", "151655.589000", "151655.591000", "151655.594000", "151655.596000", "151655.599000", "151655.602000", "151655.604000", "151655.607000", "151655.610000", "151655.612000", "151655.615000", "151655.617000", "151655.620000", "151655.623000", "151655.625000", "151655.628000", "151655.631000", "151655.633000", "151655.636000", "151655.638000", "151655.641000", "151729.168000", "151729.171000", "151729.174000", "151729.185000", "151729.188000", "151729.190000", "151729.193000", "151729.195000", "151729.198000", "151729.201000", "151729.203000", "151729.206000", "151729.208000", "151729.211000", "151729.213000", "151729.216000", "151729.219000", "151729.221000", "151729.224000", "151729.226000", "151729.229000", "151729.232000", "151729.234000", "151729.237000", "151729.239000", "151729.242000", "151729.244000", "151729.247000"],
      "InstanceCreationTime": ["151015.559000", "151015.573000", "151015.576000", "151015.578000", "151015.581000", "151015.584000", "151015.586000", "151015.589000", "151015.591000", "151015.594000", "151015.606000", "151015.608000", "151015.611000", "151015.614000", "151015.616000", "151015.619000", "151015.622000", "151015.625000", "151015.637000", "151015.639000", "151015.651000", "151015.653000", "151015.656000", "151015.659000", "151015.662000", "151015.665000", "151015.668000", "151015.670000", "151015.673000", "151015.676000", "151055.555000", "151055.557000", "151055.560000", "151055.563000", "151055.565000", "151055.568000", "151055.570000", "151055.579000", "151055.581000", "151055.584000", "151055.586000", "151055.589000", "151055.592000", "151055.599000", "151055.602000", "151055.605000", "151055.607000", "151055.610000", "151055.612000", "151055.615000", "151055.618000", "151055.620000", "151055.638000", "151055.641000", "151055.643000", "151055.646000", "151055.648000", "151055.651000", "151055.653000", "151055.656000", "151055.659000", "151055.661000", "151055.664000", "151055.666000", "151135.555000", "151135.557000", "151135.560000", "151135.563000", "151135.565000", "151135.568000", "151135.570000", "151135.573000", "151135.575000", "151135.578000", "151135.580000", "151135.583000", "151135.585000", "151135.588000", "151135.590000", "151135.605000", "151135.607000", "151135.610000", "151135.612000", "151135.615000", "151135.618000", "151135.620000", "151135.623000", "151135.625000", "151135.628000", "151135.630000", "151135.633000", "151135.635000", "151135.638000", "151135.640000", "151135.643000", "151135.645000", "151135.648000", "151215.554000", "151215.557000", "151215.560000", "151215.562000", "151215.565000", "151215.568000", "151215.570000", "151215.573000", "151215.576000", "151215.578000", "151215.581000", "151215.584000", "151215.586000", "151215.589000", "151215.599000", "151215.602000", "151215.604000", "151215.607000", "151215.609000", "151215.612000", "151215.614000", "151215.617000", "151215.620000", "151215.622000", "151215.625000", "151215.627000", "151215.630000", "151215.633000", "151215.635000", "151215.638000", "151215.640000", "151215.643000", "151215.645000", "151255.555000", "151255.557000", "151255.560000", "151255.563000", "151255.565000", "151255.568000", "151255.570000", "151255.573000", "151255.576000", "151255.578000", "151255.581000", "151255.583000", "151255.586000", "151255.588000", "151255.591000", "151255.594000", "151255.596000", "151255.599000", "151255.601000", "151255.604000", "151255.607000", "151255.609000", "151255.612000", "151255.614000", "151255.617000", "151255.619000", "151255.622000", "151255.624000", "151255.627000", "151255.630000", "151255.632000", "151255.635000", "151255.637000", "151255.640000", "151335.554000", "151335.557000", "151335.560000", "151335.562000", "151335.565000", "151335.568000", "151335.570000", "151335.573000", "151335.575000", "151335.578000", "151335.580000", "151335.583000", "151335.586000", "151335.588000", "151335.591000", "151335.593000", "151335.596000", "151335.604000", "151335.607000", "151335.609000", "151335.612000", "151335.614000", "151335.617000", "151335.620000", "151335.622000", "151335.625000", "151335.627000", "151335.630000", "151335.632000", "151335.635000", "151335.637000", "151335.640000", "151335.643000", "151415.555000", "151415.557000", "151415.560000", "151415.562000", "151415.565000", "151415.568000", "151415.570000", "151415.573000", "151415.576000", "151415.578000", "151415.581000", "151415.583000", "151415.586000", "151415.588000", "151415.591000", "151415.606000", "151415.609000", "151415.611000", "151415.614000", "151415.617000", "151415.619000", "151415.622000", "151415.624000", "151415.627000", "151415.629000", "151415.632000", "151415.634000", "151415.637000", "151415.640000", "151415.642000", "151415.645000", "151415.647000", "151415.650000", "151455.554000", "151455.557000", "151455.567000", "151455.570000", "151455.573000", "151455.575000", "151455.578000", "151455.580000", "151455.583000", "151455.586000", "151455.588000", "151455.591000", "151455.593000", "151455.596000", "151455.598000", "151455.601000", "151455.603000", "151455.606000", "151455.609000", "151455.639000", "151455.641000", "151455.644000", "151455.646000", "151455.649000", "151455.651000", "151455.654000", "151455.656000", "151455.659000", "151455.661000", "151455.664000", "151455.667000", "151455.669000", "151455.672000", "151455.674000", "151535.554000", "151535.557000", "151535.560000", "151535.562000", "151535.565000", "151535.575000", "151535.578000", "151535.581000", "151535.583000", "151535.586000", "151535.589000", "151535.591000", "151535.594000", "151535.597000", "151535.600000", "151535.602000", "151535.605000", "151535.608000", "151535.610000", "151535.613000", "151535.616000", "151535.619000", "151535.621000", "151535.624000", "151535.626000", "151535.629000", "151535.632000", "151535.634000", "151535.637000", "151535.640000", "151535.642000", "151535.645000", "151535.647000", "151615.554000", "151615.557000", "151615.560000", "151615.563000", "151615.565000", "151615.568000", "151615.571000", "151615.573000", "151615.576000", "151615.578000", "151615.581000", "151615.584000", "151615.586000", "151615.589000", "151615.592000", "151615.594000", "151615.597000", "151615.600000", "151615.602000", "151615.605000", "151615.607000", "151615.610000", "151615.613000", "151615.616000", "151615.618000", "151615.621000", "151615.623000", "151615.626000", "151615.629000", "151615.631000", "151615.634000", "151615.636000", "151615.639000", "151655.555000", "151655.558000", "151655.560000", "151655.563000", "151655.565000", "151655.568000", "151655.570000", "151655.573000", "151655.575000", "151655.578000", "151655.581000", "151655.583000", "151655.586000", "151655.589000", "151655.591000", "151655.594000", "151655.596000", "151655.599000", "151655.602000", "151655.604000", "151655.607000", "151655.610000", "151655.612000", "151655.615000", "151655.617000", "151655.620000", "151655.623000", "151655.625000", "151655.628000", "151655.631000", "151655.633000", "151655.636000", "151655.638000", "151655.641000", "151729.168000", "151729.171000", "151729.174000", "151729.185000", "151729.188000", "151729.190000", "151729.193000", "151729.195000", "151729.198000", "151729.201000", "151729.203000", "151729.206000", "151729.208000", "151729.211000", "151729.213000", "151729.216000", "151729.219000", "151729.221000", "151729.224000", "151729.226000", "151729.229000", "151729.232000", "151729.234000", "151729.237000", "151729.239000", "151729.242000", "151729.244000", "151729.247000"],
      "InstanceNumber": [1, 2, 3, 4, 5, 6, 7, 8, 9, 10, 11, 12, 13, 14, 15, 16, 17, 18, 19, 20, 21, 22, 23, 24, 25, 26, 27, 28, 29, 30, 31, 32, 33, 34, 35, 36, 37, 38, 39, 40, 41, 42, 43, 44, 45, 46, 47, 48, 49, 50, 51, 52, 53, 54, 55, 56, 57, 58, 59, 60, 61, 62, 63, 64, 65, 66, 67, 68, 69, 70, 71, 72, 73, 74, 75, 76, 77, 78, 79, 80, 81, 82, 83, 84, 85, 86, 87, 88, 89, 90, 91, 92, 93, 94, 95, 96, 97, 98, 99, 100, 101, 102, 103, 104, 105, 106, 107, 108, 109, 110, 111, 112, 113, 114, 115, 116, 117, 118, 119, 120, 121, 122, 123, 124, 125, 126, 127, 128, 129, 130, 131, 132, 133, 134, 135, 136, 137, 138, 139, 140, 141, 142, 143, 144, 145, 146, 147, 148, 149, 150, 151, 152, 153, 154, 155, 156, 157, 158, 159, 160, 161, 162, 163, 164, 165, 166, 167, 168, 169, 170, 171, 172, 173, 174, 175, 176, 177, 178, 179, 180, 181, 182, 183, 184, 185, 186, 187, 188, 189, 190, 191, 192, 193, 194, 195, 196, 197, 198, 199, 200, 201, 202, 203, 204, 205, 206, 207, 208, 209, 210, 211, 212, 213, 214, 215, 216, 217, 218, 219, 220, 221, 222, 223, 224, 225, 226, 227, 228, 229, 230, 231, 232, 233, 234, 235, 236, 237, 238, 239, 240, 241, 242, 243, 244, 245, 246, 247, 248, 249, 250, 251, 252, 253, 254, 255, 256, 257, 258, 259, 260, 261, 262, 263, 264, 265, 266, 267, 268, 269, 270, 271, 272, 273, 274, 275, 276, 277, 278, 279, 280, 281, 282, 283, 284, 285, 286, 287, 288, 289, 290, 291, 292, 293, 294, 295, 296, 297, 298, 299, 300, 301, 302, 303, 304, 305, 306, 307, 308, 309, 310, 311, 312, 313, 314, 315, 316, 317, 318, 319, 320, 321, 322, 323, 324, 325, 326, 327, 328, 329, 330, 331, 332, 333, 334, 335, 336, 337, 338, 339, 340, 341, 342, 343, 344, 345, 346, 347, 348, 349, 350, 351, 352, 353, 354, 355, 356, 357, 358, 359, 360, 361, 362, 363, 364, 365, 366, 367, 368, 369, 370, 371, 372, 373, 374, 375, 376, 377, 378, 379, 380, 381, 382, 383, 384, 385, 386, 387, 388, 389, 390, 391, 392],
