{
  "AcquisitionMatrixPE": 88,
  "AcquisitionNumber": 1,
  "AcquisitionTime": "15:56:35.200000",
  "BandwidthPerPixelPhaseEncode": 19.592,
  "BaseResolution": 88,
  "BodyPartExamined": "BRAIN",
  "ConsistencyInfo": "N4_VE11C_LATEST_20160120",
  "ConversionSoftware": "dcm2niix",
  "ConversionSoftwareVersion": "v1.0.20190902",
  "DerivedVendorReportedEchoSpacing": 0.000580014,
  "DeviceSerialNumber": "67050",
  "DwellTime": 2.6e-06,
  "EchoTime": 0.033,
  "EchoTrainLength": 88,
  "EffectiveEchoSpacing": 0.000580014,
  "FlipAngle": 62,
  "ImageOrientationPatientDICOM": [0.991057, 0.0969248, 0.0917156, -0.0828731, 0.98577, -0.146252],
  "ImageType": [
    "ORIGINAL",
    "PRIMARY",
    "M",
    "ND",
    "MOSAIC"
],
  "ImagingFrequency": 123.251,
  "InPlanePhaseEncodingDirectionDICOM": "COL",
  "InstitutionAddress": "Olive_Street_60_Providence_RI_US_02912",
  "InstitutionName": "BROWN_UNIVERSITY_MRF",
  "InstitutionalDepartmentName": "Department",
  "MRAcquisitionType": "2D",
  "MagneticFieldStrength": 3,
  "Manufacturer": "Siemens",
  "ManufacturersModelName": "Prisma_fit",
  "Modality": "MR",
  "MultibandAccelerationFactor": 4,
  "PartialFourier": 1,
  "PatientPosition": "HFS",
  "PercentPhaseFOV": 100,
  "PhaseEncodingDirection": "j-",
  "PhaseEncodingSteps": 88,
  "PhaseResolution": 1,
  "PixelBandwidth": 2185,
  "ProcedureStepDescription": "ASHENHAV_1222",
  "ProtocolName": "func-bold_task-RDMmotion_run-06",
  "PulseSequenceDetails": "%SiemensSeq%_ep2d_bold",
  "ReceiveCoilActiveElements": "HC1-7;NC1",
  "ReceiveCoilName": "HeadNeck_64",
  "ReconMatrixPE": 88,
  "RefLinesPE": 8,
  "RepetitionTime": 1.2,
  "SAR": 0.0508446,
  "ScanOptions": "FS",
  "ScanningSequence": "EP",
  "SequenceName": "_epfid2d1_88",
  "SequenceVariant": "SK",
  "SeriesDescription": "func-bold_task-RDMmotion_run-06",
  "SeriesNumber": 17,
  "ShimSetting": [1772, -9082, 4374, 419, -100, -83, 116, 0],
  "SliceThickness": 2.4,
  "SliceTiming": [0.55, 0, 0.6275, 0.0775, 0.7075, 0.1575, 0.785, 0.235, 0.865, 0.315, 0.9425, 0.3925, 1.0225, 0.47, 1.1, 0.55, 0, 0.6275, 0.0775, 0.7075, 0.1575, 0.785, 0.235, 0.865, 0.315, 0.9425, 0.3925, 1.0225, 0.47, 1.1, 0.55, 0, 0.6275, 0.0775, 0.7075, 0.1575, 0.785, 0.235, 0.865, 0.315, 0.9425, 0.3925, 1.0225, 0.47, 1.1, 0.55, 0, 0.6275, 0.0775, 0.7075, 0.1575, 0.785, 0.235, 0.865, 0.315, 0.9425, 0.3925, 1.0225, 0.47, 1.1],
  "SoftwareVersions": "syngo_MR_E11",
  "SpacingBetweenSlices": 2.4,
  "StationName": "AWP67050",
  "TaskName": "RDMmotion",
  "TotalReadoutTime": 0.0504612,
  "TxRefAmp": 242.525,
  "dcmmeta_affine": [
    [-2.376284122467041, -0.1987069845199585, 0.2510063946247101, 108.60192108154297],
    [-0.23239925503730774, 2.363607406616211, -0.32962509989738464, -75.3448486328125],
    [0.21990905702114105, 0.3506736159324646, 2.3639676570892334, -94.71685791015625],
    [0.0, 0.0, 0.0, 1.0]
],
  "dcmmeta_reorient_transform": [
    [0.0, -1.0, 0.0, 87.0],
    [1.0, 0.0, 0.0, 0.0],
    [0.0, 0.0, 1.0, 0.0],
    [0.0, 0.0, 0.0, 1.0]
],
  "dcmmeta_shape": [88, 88, 60, 125],
  "dcmmeta_slice_dim": 2,
  "dcmmeta_version": 0.6,
  "global": {
    "const": {
      "AcquisitionMatrix": [88, 0, 0, 88],
      "AngioFlag": "N",
      "BitsAllocated": 16,
      "BitsStored": 12,
      "BodyPartExamined": "BRAIN",
      "Columns": 704,
      "DeidentificationMethodCodeSequence": [
        {
          "CodeMeaning": "XNAT DicomEdit 6 Script",
          "CodeValue": "3",
          "CodingSchemeDesignator": "XNAT",
          "CodingSchemeVersion": "1.0"}
],
      "EchoNumbers": 1,
      "EchoTime": 33.0,
      "EchoTrainLength": 88,
      "FlipAngle": 62.0,
      "HighBit": 11,
      "ImageOrientationPatient": [0.99105692322453, 0.09692480945648, 0.09171562702479, -0.0828730584552, 0.98576988307837, -0.1462525001425],
      "ImagePositionPatient": [-762.00819298378, -929.85900950473, -23.93277067902],
      "ImageType": [
        "ORIGINAL",
        "PRIMARY",
        "M",
        "ND",
        "MOSAIC"
],
      "ImagedNucleus": "1H",
      "ImagingFrequency": 123.250627,
      "InPlanePhaseEncodingDirection": "COL",
      "MRAcquisitionType": "2D",
      "MagneticFieldStrength": 3.0,
      "Manufacturer": "SIEMENS",
      "ManufacturerModelName": "Prisma_fit",
      "Modality": "MR",
      "NumberOfAverages": 1.0,
      "NumberOfPhaseEncodingSteps": 88,
      "PercentPhaseFieldOfView": 100.0,
      "PercentSampling": 100.0,
      "PerformedProcedureStepStartTime": "141126.402000",
      "PhotometricInterpretation": "MONOCHROME2",
      "PixelBandwidth": 2185.0,
      "PixelRepresentation": 0,
      "PixelSpacing": [2.3977272510529, 2.3977272510529],
      "ProtocolName": "func-bold_task-RDMmotion_run-06",
      "RepetitionTime": 1200.0,
      "Rows": 704,
      "SAR": 0.050844647002,
      "SamplesPerPixel": 1,
      "ScanOptions": "FS",
      "ScanningSequence": "EP",
      "SequenceName": "*epfid2d1_88",
      "SequenceVariant": "SK",
      "SeriesDescription": "func-bold_task-RDMmotion_run-06",
      "SeriesNumber": 17,
      "SeriesTime": "155713.532000",
      "SliceLocation": -71.588436972607,
      "SliceThickness": 2.4000000953674,
      "SmallestImagePixelValue": 0,
      "SoftwareVersions": "syngo MR E11",
      "SpacingBetweenSlices": 2.399999981894,
      "SpecificCharacterSet": "ISO_IR 100",
      "StudyID": "1",
      "StudyTime": "141126.275000",
      "TransmitCoilName": "Body",
      "VariableFlipAngleFlag": "N",
      "WindowCenterWidthExplanation": "Algo1",
      "dBdt": 0.0},
    "slices": {}
  },
  "time": {
    "samples": {
      "AcquisitionNumber": [1, 2, 3, 4, 5, 6, 7, 8, 9, 10, 11, 12, 13, 14, 15, 16, 17, 18, 19, 20, 21, 22, 23, 24, 25, 26, 27, 28, 29, 30, 31, 32, 33, 34, 35, 36, 37, 38, 39, 40, 41, 42, 43, 44, 45, 46, 47, 48, 49, 50, 51, 52, 53, 54, 55, 56, 57, 58, 59, 60, 61, 62, 63, 64, 65, 66, 67, 68, 69, 70, 71, 72, 73, 74, 75, 76, 77, 78, 79, 80, 81, 82, 83, 84, 85, 86, 87, 88, 89, 90, 91, 92, 93, 94, 95, 96, 97, 98, 99, 100, 101, 102, 103, 104, 105, 106, 107, 108, 109, 110, 111, 112, 113, 114, 115, 116, 117, 118, 119, 120, 121, 122, 123, 124, 125],
      "AcquisitionTime": ["155635.200000", "155636.400000", "155637.600000", "155638.800000", "155640.000000", "155641.200000", "155642.400000", "155643.600000", "155644.800000", "155646.000000", "155647.200000", "155648.400000", "155649.600000", "155650.800000", "155652.000000", "155653.200000", "155654.400000", "155655.600000", "155656.800000", "155658.000000", "155659.200000", "155700.400000", "155701.600000", "155702.800000", "155704.000000", "155705.200000", "155706.400000", "155707.600000", "155708.800000", "155710.000000", "155711.200000", "155712.400000", "155713.600000", "155714.800000", "155716.000000", "155717.200000", "155718.400000", "155719.600000", "155720.800000", "155722.000000", "155723.200000", "155724.400000", "155725.600000", "155726.800000", "155728.000000", "155729.200000", "155730.400000", "155731.600000", "155732.800000", "155734.000000", "155735.200000", "155736.400000", "155737.600000", "155738.800000", "155740.000000", "155741.200000", "155742.400000", "155743.600000", "155744.800000", "155746.000000", "155747.200000", "155748.400000", "155749.600000", "155750.800000", "155752.000000", "155753.200000", "155754.400000", "155755.600000", "155756.800000", "155758.000000", "155759.200000", "155800.400000", "155801.600000", "155802.800000", "155804.000000", "155805.200000", "155806.400000", "155807.600000", "155808.800000", "155810.000000", "155811.200000", "155812.400000", "155813.600000", "155814.800000", "155816.000000", "155817.200000", "155818.400000", "155819.600000", "155820.800000", "155822.000000", "155823.200000", "155824.400000", "155825.600000", "155826.800000", "155828.000000", "155829.200000", "155830.400000", "155831.600000", "155832.800000", "155834.000000", "155835.200000", "155836.400000", "155837.600000", "155838.800000", "155840.000000", "155841.200000", "155842.400000", "155843.600000", "155844.800000", "155846.000000", "155847.200000", "155848.400000", "155849.600000", "155850.800000", "155852.000000", "155853.200000", "155854.400000", "155855.600000", "155856.800000", "155858.000000", "155859.200000", "155900.400000", "155901.600000", "155902.800000", "155904.000000"],
      "ContentTime": ["155713.536000", "155713.539000", "155713.542000", "155713.544000", "155713.546000", "155713.549000", "155713.551000", "155713.554000", "155713.557000", "155713.559000", "155713.562000", "155713.564000", "155713.570000", "155713.592000", "155713.595000", "155713.605000", "155713.607000", "155713.610000", "155713.612000", "155713.615000", "155713.617000", "155713.620000", "155713.622000", "155713.625000", "155713.627000", "155713.630000", "155713.637000", "155713.640000", "155713.642000", "155713.645000", "155713.647000", "155753.531000", "155753.534000", "155753.542000", "155753.545000", "155753.548000", "155753.550000", "155753.553000", "155753.555000", "155753.558000", "155753.560000", "155753.563000", "155753.565000", "155753.568000", "155753.570000", "155753.573000", "155753.575000", "155753.578000", "155753.580000", "155753.583000", "155753.586000", "155753.588000", "155753.591000", "155753.593000", "155753.596000", "155753.599000", "155753.601000", "155753.604000", "155753.606000", "155753.609000", "155753.611000", "155753.614000", "155753.616000", "155753.625000", "155833.531000", "155833.534000", "155833.537000", "155833.539000", "155833.542000", "155833.544000", "155833.547000", "155833.549000", "155833.552000", "155833.555000", "155833.557000", "155833.560000", "155833.562000", "155833.565000", "155833.571000", "155833.573000", "155833.576000", "155833.578000", "155833.581000", "155833.583000", "155833.586000", "155833.588000", "155833.591000", "155833.593000", "155833.596000", "155833.598000", "155833.601000", "155833.603000", "155833.606000", "155833.608000", "155833.611000", "155833.613000", "155833.616000", "155833.619000", "155905.965000", "155905.968000", "155905.971000", "155905.974000", "155905.976000", "155905.979000", "155905.981000", "155905.984000", "155905.987000", "155905.989000", "155905.992000", "155905.994000", "155905.997000", "155906.000000", "155906.003000", "155906.006000", "155906.008000", "155906.011000", "155906.013000", "155906.016000", "155906.019000", "155906.021000", "155906.024000", "155906.026000", "155906.029000", "155906.031000", "155906.034000"],
      "InstanceCreationTime": ["155713.536000", "155713.539000", "155713.542000", "155713.544000", "155713.546000", "155713.549000", "155713.551000", "155713.554000", "155713.557000", "155713.559000", "155713.562000", "155713.564000", "155713.570000", "155713.592000", "155713.595000", "155713.605000", "155713.607000", "155713.610000", "155713.612000", "155713.615000", "155713.617000", "155713.620000", "155713.622000", "155713.625000", "155713.627000", "155713.630000", "155713.637000", "155713.640000", "155713.642000", "155713.645000", "155713.647000", "155753.531000", "155753.534000", "155753.542000", "155753.545000", "155753.548000", "155753.550000", "155753.553000", "155753.555000", "155753.558000", "155753.560000", "155753.563000", "155753.565000", "155753.568000", "155753.570000", "155753.573000", "155753.575000", "155753.578000", "155753.580000", "155753.583000", "155753.586000", "155753.588000", "155753.591000", "155753.593000", "155753.596000", "155753.599000", "155753.601000", "155753.604000", "155753.606000", "155753.609000", "155753.611000", "155753.614000", "155753.616000", "155753.625000", "155833.531000", "155833.534000", "155833.537000", "155833.539000", "155833.542000", "155833.544000", "155833.547000", "155833.549000", "155833.552000", "155833.555000", "155833.557000", "155833.560000", "155833.562000", "155833.565000", "155833.571000", "155833.573000", "155833.576000", "155833.578000", "155833.581000", "155833.583000", "155833.586000", "155833.588000", "155833.591000", "155833.593000", "155833.596000", "155833.598000", "155833.601000", "155833.603000", "155833.606000", "155833.608000", "155833.611000", "155833.613000", "155833.616000", "155833.619000", "155905.965000", "155905.968000", "155905.971000", "155905.974000", "155905.976000", "155905.979000", "155905.981000", "155905.984000", "155905.987000", "155905.989000", "155905.992000", "155905.994000", "155905.997000", "155906.000000", "155906.003000", "155906.006000", "155906.008000", "155906.011000", "155906.013000", "155906.016000", "155906.019000", "155906.021000", "155906.024000", "155906.026000", "155906.029000", "155906.031000", "155906.034000"],
      "InstanceNumber": [1, 2, 3, 4, 5, 6, 7, 8, 9, 10, 11, 12, 13, 14, 15, 16, 17, 18, 19, 20, 21, 22, 23, 24, 25, 26, 27, 28, 29, 30, 31, 32, 33, 34, 35, 36, 37, 38, 39, 40, 41, 42, 43, 44, 45, 46, 47, 48, 49, 50, 51, 52, 53, 54, 55, 56, 57, 58, 59, 60, 61, 62, 63, 64, 65, 66, 67, 68, 69, 70, 71, 72, 73, 74, 75, 76, 77, 78, 79, 80, 81, 82, 83, 84, 85, 86, 87, 88, 89, 90, 91, 92, 93, 94, 95, 96, 97, 98, 99, 100, 101, 102, 103, 104, 105, 106, 107, 108, 109, 110, 111, 112, 113, 114, 115, 116, 117, 118, 119, 120, 121, 122, 123, 124, 125],
      "LargestImagePixelValue": [2288, 2210, 2162, 2174, 2150, 2140, 2154, 2148, 2170, 2146, 2130, 2162, 2150, 2150, 2137, 2115, 2127, 2118, 2084, 2100, 2106, 2122, 2136, 2097, 2132, 2121, 2123, 2094, 2086, 2100, 2078, 2118, 2126, 2083, 2103, 2082, 2091, 2093, 2079, 2095, 2108, 2080, 2119, 2092, 2119, 2116, 2097, 2118, 2106, 2118, 2119, 2081, 2108, 2091, 2107, 2113, 2084, 2105, 2088, 2070, 2077, 2071, 2095, 2098, 2091, 2060, 2085, 2075, 2074, 2102, 2091, 2105, 2082, 2076, 2084, 2053, 2067, 2061, 2041, 2069, 2109, 2094, 2062, 2137, 2096, 2145, 2094, 2097, 2152, 2099, 2079, 2106, 2047, 2052, 2066, 2111, 2088, 2055, 2027, 2049, 2116, 2064, 2062, 2187, 2075, 2093, 2076, 2081, 2098, 2095, 2082, 2120, 2142, 2127, 2083, 2098, 2112, 2109, 2079, 2115, 2096, 2102, 2150, 2074, 2055],
      "WindowCenter": [585.0, 581.0, 579.0, 579.0, 579.0, 579.0, 580.0, 579.0, 578.0, 578.0, 578.0, 578.0, 578.0, 578.0, 579.0, 579.0, 578.0, 577.0, 576.0, 576.0, 576.0, 577.0, 578.0, 579.0, 579.0, 578.0, 577.0, 576.0, 575.0, 576.0, 576.0, 577.0, 577.0, 577.0, 576.0, 576.0, 576.0, 576.0, 576.0, 577.0, 577.0, 579.0, 579.0, 578.0, 578.0, 578.0, 577.0, 578.0, 577.0, 577.0, 577.0, 577.0, 577.0, 578.0, 578.0, 578.0, 578.0, 577.0, 577.0, 577.0, 577.0, 577.0, 577.0, 578.0, 578.0, 578.0, 578.0, 578.0, 578.0, 579.0, 578.0, 578.0, 578.0, 578.0, 578.0, 579.0, 580.0, 580.0, 577.0, 578.0, 579.0, 578.0, 579.0, 580.0, 579.0, 579.0, 578.0, 578.0, 579.0, 579.0, 577.0, 577.0, 577.0, 577.0, 577.0, 578.0, 577.0, 575.0, 574.0, 575.0, 578.0, 575.0, 575.0, 577.0, 576.0, 576.0, 576.0, 576.0, 577.0, 577.0, 577.0, 578.0, 579.0, 579.0, 578.0, 578.0, 578.0, 578.0, 577.0, 578.0, 578.0, 578.0, 578.0, 579.0, 578.0],
      "WindowWidth": [1247.0, 1238.0, 1234.0, 1233.0, 1233.0, 1234.0, 1235.0, 1233.0, 1232.0, 1231.0, 1231.0, 1231.0, 1231.0, 1232.0, 1234.0, 1234.0, 1231.0, 1229.0, 1227.0, 1227.0, 1228.0, 1229.0, 1231.0, 1233.0, 1233.0, 1232.0, 1230.0, 1228.0, 1226.0, 1227.0, 1228.0, 1230.0, 1230.0, 1228.0, 1228.0, 1227.0, 1227.0, 1227.0, 1228.0, 1230.0, 1230.0, 1233.0, 1232.0, 1231.0, 1232.0, 1231.0, 1230.0, 1231.0, 1230.0, 1230.0, 1230.0, 1229.0, 1231.0, 1232.0, 1232.0, 1232.0, 1231.0, 1230.0, 1230.0, 1229.0, 1229.0, 1229.0, 1230.0, 1231.0, 1232.0, 1231.0, 1232.0, 1231.0, 1231.0, 1233.0, 1233.0, 1232.0, 1231.0, 1232.0, 1233.0, 1233.0, 1236.0, 1236.0, 1231.0, 1231.0, 1232.0, 1232.0, 1233.0, 1235.0, 1233.0, 1234.0, 1231.0, 1232.0, 1234.0, 1233.0, 1229.0, 1229.0, 1228.0, 1228.0, 1229.0, 1232.0, 1229.0, 1225.0, 1223.0, 1226.0, 1232.0, 1226.0, 1225.0, 1229.0, 1226.0, 1227.0, 1227.0, 1227.0, 1229.0, 1230.0, 1230.0, 1232.0, 1233.0, 1234.0, 1232.0, 1230.0, 1231.0, 1232.0, 1230.0, 1230.0, 1230.0, 1231.0, 1232.0, 1232.0, 1231.0]
    },
    "slices": {}
  }
}