{
  "AcquisitionMatrixPE": 88,
  "AcquisitionNumber": 1,
  "AcquisitionTime": "14:56:14.645000",
  "BandwidthPerPixelPhaseEncode": 19.592,
  "BaseResolution": 88,
  "BodyPartExamined": "BRAIN",
  "ConsistencyInfo": "N4_VE11C_LATEST_20160120",
  "ConversionSoftware": "dcm2niix",
  "ConversionSoftwareVersion": "v1.0.20190902",
  "DerivedVendorReportedEchoSpacing": 0.000580014,
  "DeviceSerialNumber": "67050",
  "DwellTime": 2.6e-06,
  "EchoTime": 0.033,
  "EchoTrainLength": 88,
  "EffectiveEchoSpacing": 0.000580014,
  "FlipAngle": 62,
  "ImageOrientationPatientDICOM": [0.991057, 0.0969248, 0.0917156, -0.0828731, 0.98577, -0.146252],
  "ImageType": [
    "ORIGINAL",
    "PRIMARY",
    "M",
    "ND",
    "MOSAIC"
],
  "ImagingFrequency": 123.251,
  "InPlanePhaseEncodingDirectionDICOM": "COL",
  "InstitutionAddress": "Olive_Street_60_Providence_RI_US_02912",
  "InstitutionName": "BROWN_UNIVERSITY_MRF",
  "InstitutionalDepartmentName": "Department",
  "MRAcquisitionType": "2D",
  "MagneticFieldStrength": 3,
  "Manufacturer": "Siemens",
  "ManufacturersModelName": "Prisma_fit",
  "Modality": "MR",
  "MultibandAccelerationFactor": 4,
  "PartialFourier": 1,
  "PatientPosition": "HFS",
  "PercentPhaseFOV": 100,
  "PhaseEncodingDirection": "j-",
  "PhaseEncodingSteps": 88,
  "PhaseResolution": 1,
  "PixelBandwidth": 2185,
  "ProcedureStepDescription": "ASHENHAV_1222",
  "ProtocolName": "func-bold_task-RDMmotion_run-01",
  "PulseSequenceDetails": "%SiemensSeq%_ep2d_bold",
  "ReceiveCoilActiveElements": "HC1-7;NC1",
  "ReceiveCoilName": "HeadNeck_64",
  "ReconMatrixPE": 88,
  "RefLinesPE": 8,
  "RepetitionTime": 1.2,
  "SAR": 0.0508446,
  "ScanOptions": "FS",
  "ScanningSequence": "EP",
  "SequenceName": "_epfid2d1_88",
  "SequenceVariant": "SK",
  "SeriesDescription": "func-bold_task-RDMmotion_run-01",
  "SeriesNumber": 7,
  "ShimSetting": [1772, -9082, 4374, 419, -100, -83, 116, 0],
  "SliceThickness": 2.4,
  "SliceTiming": [0.55, 0, 0.6275, 0.0775, 0.7075, 0.1575, 0.785, 0.235, 0.865, 0.3125, 0.9425, 0.3925, 1.0225, 0.47, 1.1, 0.55, 0, 0.6275, 0.0775, 0.7075, 0.1575, 0.785, 0.235, 0.865, 0.3125, 0.9425, 0.3925, 1.0225, 0.47, 1.1, 0.55, 0, 0.6275, 0.0775, 0.7075, 0.1575, 0.785, 0.235, 0.865, 0.3125, 0.9425, 0.3925, 1.0225, 0.47, 1.1, 0.55, 0, 0.6275, 0.0775, 0.7075, 0.1575, 0.785, 0.235, 0.865, 0.3125, 0.9425, 0.3925, 1.0225, 0.47, 1.1],
  "SoftwareVersions": "syngo_MR_E11",
  "SpacingBetweenSlices": 2.4,
  "StationName": "AWP67050",
  "TaskName": "RDMmotion",
  "TotalReadoutTime": 0.0504612,
  "TxRefAmp": 242.525,
  "dcmmeta_affine": [
    [-2.376284122467041, -0.1987069845199585, 0.2510063946247101, 108.60192108154297],
    [-0.23239925503730774, 2.363607406616211, -0.32962509989738464, -75.3448486328125],
    [0.21990905702114105, 0.3506736159324646, 2.3639676570892334, -94.71685791015625],
    [0.0, 0.0, 0.0, 1.0]
],
  "dcmmeta_reorient_transform": [
    [0.0, -1.0, 0.0, 87.0],
    [1.0, 0.0, 0.0, 0.0],
    [0.0, 0.0, 1.0, 0.0],
    [0.0, 0.0, 0.0, 1.0]
],
  "dcmmeta_shape": [88, 88, 60, 125],
  "dcmmeta_slice_dim": 2,
  "dcmmeta_version": 0.6,
  "global": {
    "const": {
      "AcquisitionMatrix": [88, 0, 0, 88],
      "AngioFlag": "N",
      "BitsAllocated": 16,
      "BitsStored": 12,
      "BodyPartExamined": "BRAIN",
      "Columns": 704,
      "DeidentificationMethodCodeSequence": [
        {
          "CodeMeaning": "XNAT DicomEdit 6 Script",
          "CodeValue": "3",
          "CodingSchemeDesignator": "XNAT",
          "CodingSchemeVersion": "1.0"}
],
      "EchoNumbers": 1,
      "EchoTime": 33.0,
      "EchoTrainLength": 88,
      "FlipAngle": 62.0,
      "HighBit": 11,
      "ImageOrientationPatient": [0.99105692322453, 0.09692480945648, 0.09171562702479, -0.0828730584552, 0.98576988307837, -0.1462525001425],
      "ImagePositionPatient": [-762.00819298378, -929.85900950473, -23.93277067902],
      "ImageType": [
        "ORIGINAL",
        "PRIMARY",
        "M",
        "ND",
        "MOSAIC"
],
      "ImagedNucleus": "1H",
      "ImagingFrequency": 123.250601,
      "InPlanePhaseEncodingDirection": "COL",
      "MRAcquisitionType": "2D",
      "MagneticFieldStrength": 3.0,
      "Manufacturer": "SIEMENS",
      "ManufacturerModelName": "Prisma_fit",
      "Modality": "MR",
      "NumberOfAverages": 1.0,
      "NumberOfPhaseEncodingSteps": 88,
      "PercentPhaseFieldOfView": 100.0,
      "PercentSampling": 100.0,
      "PerformedProcedureStepStartTime": "141126.402000",
      "PhotometricInterpretation": "MONOCHROME2",
      "PixelBandwidth": 2185.0,
      "PixelRepresentation": 0,
      "PixelSpacing": [2.3977272510529, 2.3977272510529],
      "ProtocolName": "func-bold_task-RDMmotion_run-01",
      "RepetitionTime": 1200.0,
      "Rows": 704,
      "SAR": 0.050844647002,
      "SamplesPerPixel": 1,
      "ScanOptions": "FS",
      "ScanningSequence": "EP",
      "SequenceName": "*epfid2d1_88",
      "SequenceVariant": "SK",
      "SeriesDescription": "func-bold_task-RDMmotion_run-01",
      "SeriesNumber": 7,
      "SeriesTime": "145651.875000",
      "SliceLocation": -71.588436972607,
      "SliceThickness": 2.4000000953674,
      "SmallestImagePixelValue": 0,
      "SoftwareVersions": "syngo MR E11",
      "SpacingBetweenSlices": 2.399999981894,
      "SpecificCharacterSet": "ISO_IR 100",
      "StudyID": "1",
      "StudyTime": "141126.275000",
      "TransmitCoilName": "Body",
      "VariableFlipAngleFlag": "N",
      "WindowCenterWidthExplanation": "Algo1",
      "dBdt": 0.0},
    "slices": {}
  },
  "time": {
    "samples": {
      "AcquisitionNumber": [1, 2, 3, 4, 5, 6, 7, 8, 9, 10, 11, 12, 13, 14, 15, 16, 17, 18, 19, 20, 21, 22, 23, 24, 25, 26, 27, 28, 29, 30, 31, 32, 33, 34, 35, 36, 37, 38, 39, 40, 41, 42, 43, 44, 45, 46, 47, 48, 49, 50, 51, 52, 53, 54, 55, 56, 57, 58, 59, 60, 61, 62, 63, 64, 65, 66, 67, 68, 69, 70, 71, 72, 73, 74, 75, 76, 77, 78, 79, 80, 81, 82, 83, 84, 85, 86, 87, 88, 89, 90, 91, 92, 93, 94, 95, 96, 97, 98, 99, 100, 101, 102, 103, 104, 105, 106, 107, 108, 109, 110, 111, 112, 113, 114, 115, 116, 117, 118, 119, 120, 121, 122, 123, 124, 125],
      "AcquisitionTime": ["145614.645000", "145615.845000", "145617.045000", "145618.245000", "145619.445000", "145620.645000", "145621.845000", "145623.045000", "145624.245000", "145625.445000", "145626.645000", "145627.845000", "145629.045000", "145630.245000", "145631.445000", "145632.645000", "145633.845000", "145635.045000", "145636.245000", "145637.445000", "145638.645000", "145639.845000", "145641.045000", "145642.245000", "145643.445000", "145644.645000", "145645.845000", "145647.045000", "145648.245000", "145649.445000", "145650.645000", "145651.845000", "145653.045000", "145654.245000", "145655.445000", "145656.645000", "145657.845000", "145659.045000", "145700.245000", "145701.445000", "145702.645000", "145703.845000", "145705.045000", "145706.245000", "145707.445000", "145708.645000", "145709.845000", "145711.045000", "145712.245000", "145713.445000", "145714.645000", "145715.845000", "145717.045000", "145718.245000", "145719.445000", "145720.645000", "145721.845000", "145723.045000", "145724.245000", "145725.445000", "145726.645000", "145727.845000", "145729.045000", "145730.245000", "145731.445000", "145732.645000", "145733.845000", "145735.045000", "145736.245000", "145737.445000", "145738.645000", "145739.845000", "145741.045000", "145742.245000", "145743.445000", "145744.645000", "145745.845000", "145747.045000", "145748.245000", "145749.445000", "145750.645000", "145751.845000", "145753.045000", "145754.245000", "145755.445000", "145756.645000", "145757.845000", "145759.045000", "145800.245000", "145801.445000", "145802.645000", "145803.845000", "145805.045000", "145806.245000", "145807.445000", "145808.645000", "145809.845000", "145811.045000", "145812.245000", "145813.445000", "145814.645000", "145815.845000", "145817.045000", "145818.245000", "145819.445000", "145820.645000", "145821.845000", "145823.045000", "145824.245000", "145825.445000", "145826.645000", "145827.845000", "145829.045000", "145830.245000", "145831.445000", "145832.645000", "145833.845000", "145835.045000", "145836.245000", "145837.445000", "145838.645000", "145839.845000", "145841.045000", "145842.245000", "145843.445000"],
      "ContentTime": ["145651.878000", "145651.882000", "145651.895000", "145651.898000", "145651.900000", "145651.912000", "145651.915000", "145651.917000", "145651.920000", "145651.923000", "145651.925000", "145651.928000", "145651.931000", "145651.936000", "145651.938000", "145651.941000", "145651.944000", "145651.946000", "145651.949000", "145651.951000", "145651.954000", "145651.957000", "145651.959000", "145651.962000", "145651.964000", "145651.967000", "145651.970000", "145651.972000", "145651.975000", "145651.978000", "145731.873000", "145731.876000", "145731.890000", "145731.893000", "145731.895000", "145731.898000", "145731.900000", "145731.903000", "145731.906000", "145731.908000", "145731.911000", "145731.913000", "145731.916000", "145731.919000", "145731.921000", "145731.924000", "145731.930000", "145731.933000", "145731.936000", "145731.938000", "145731.941000", "145731.943000", "145731.959000", "145731.961000", "145731.964000", "145731.967000", "145731.970000", "145731.973000", "145731.976000", "145731.978000", "145731.981000", "145731.984000", "145731.986000", "145811.873000", "145811.876000", "145811.879000", "145811.882000", "145811.884000", "145811.887000", "145811.890000", "145811.892000", "145811.895000", "145811.898000", "145811.900000", "145811.903000", "145811.909000", "145811.911000", "145811.914000", "145811.917000", "145811.920000", "145811.923000", "145811.925000", "145811.928000", "145811.930000", "145811.933000", "145811.936000", "145811.938000", "145811.941000", "145811.943000", "145811.946000", "145811.949000", "145811.952000", "145811.955000", "145811.957000", "145811.960000", "145811.963000", "145811.965000", "145845.239000", "145845.242000", "145845.245000", "145845.248000", "145845.250000", "145845.253000", "145845.255000", "145845.258000", "145845.261000", "145845.263000", "145845.266000", "145845.268000", "145845.271000", "145845.274000", "145845.276000", "145845.279000", "145845.281000", "145845.284000", "145845.286000", "145845.289000", "145845.291000", "145845.294000", "145845.297000", "145845.299000", "145845.302000", "145845.304000", "145845.307000", "145845.309000"],
      "InstanceCreationTime": ["145651.878000", "145651.882000", "145651.895000", "145651.898000", "145651.900000", "145651.912000", "145651.915000", "145651.917000", "145651.920000", "145651.923000", "145651.925000", "145651.928000", "145651.931000", "145651.936000", "145651.938000", "145651.941000", "145651.944000", "145651.946000", "145651.949000", "145651.951000", "145651.954000", "145651.957000", "145651.959000", "145651.962000", "145651.964000", "145651.967000", "145651.970000", "145651.972000", "145651.975000", "145651.978000", "145731.873000", "145731.876000", "145731.890000", "145731.893000", "145731.895000", "145731.898000", "145731.900000", "145731.903000", "145731.906000", "145731.908000", "145731.911000", "145731.913000", "145731.916000", "145731.919000", "145731.921000", "145731.924000", "145731.930000", "145731.933000", "145731.936000", "145731.938000", "145731.941000", "145731.943000", "145731.959000", "145731.961000", "145731.964000", "145731.967000", "145731.970000", "145731.973000", "145731.976000", "145731.978000", "145731.981000", "145731.984000", "145731.986000", "145811.873000", "145811.876000", "145811.879000", "145811.882000", "145811.884000", "145811.887000", "145811.890000", "145811.892000", "145811.895000", "145811.898000", "145811.900000", "145811.903000", "145811.909000", "145811.911000", "145811.914000", "145811.917000", "145811.920000", "145811.923000", "145811.925000", "145811.928000", "145811.930000", "145811.933000", "145811.936000", "145811.938000", "145811.941000", "145811.943000", "145811.946000", "145811.949000", "145811.952000", "145811.955000", "145811.957000", "145811.960000", "145811.963000", "145811.965000", "145845.239000", "145845.242000", "145845.245000", "145845.248000", "145845.250000", "145845.253000", "145845.255000", "145845.258000", "145845.261000", "145845.263000", "145845.266000", "145845.268000", "145845.271000", "145845.274000", "145845.276000", "145845.279000", "145845.281000", "145845.284000", "145845.286000", "145845.289000", "145845.291000", "145845.294000", "145845.297000", "145845.299000", "145845.302000", "145845.304000", "145845.307000", "145845.309000"],
      "InstanceNumber": [1, 2, 3, 4, 5, 6, 7, 8, 9, 10, 11, 12, 13, 14, 15, 16, 17, 18, 19, 20, 21, 22, 23, 24, 25, 26, 27, 28, 29, 30, 31, 32, 33, 34, 35, 36, 37, 38, 39, 40, 41, 42, 43, 44, 45, 46, 47, 48, 49, 50, 51, 52, 53, 54, 55, 56, 57, 58, 59, 60, 61, 62, 63, 64, 65, 66, 67, 68, 69, 70, 71, 72, 73, 74, 75, 76, 77, 78, 79, 80, 81, 82, 83, 84, 85, 86, 87, 88, 89, 90, 91, 92, 93, 94, 95, 96, 97, 98, 99, 100, 101, 102, 103, 104, 105, 106, 107, 108, 109, 110, 111, 112, 113, 114, 115, 116, 117, 118, 119, 120, 121, 122, 123, 124, 125],
      "LargestImagePixelValue": [2263, 2182, 2131, 2123, 2087, 2101, 2098, 2106, 2099, 2079, 2090, 2073, 2088, 2079, 2085, 2079, 2091, 2101, 2064, 2088, 2088, 2096, 2094, 2061, 2093, 2074, 2111, 2088, 2093, 2094, 2067, 2070, 2097, 2116, 2125, 2093, 2064, 2091, 2059, 2066, 2071, 2056, 2080, 2042, 2058, 2060, 2054, 2062, 2055, 2072, 2046, 2066, 2078, 2057, 2078, 2078, 2070, 2052, 2059, 2072, 2074, 2051, 2047, 2065, 2069, 2069, 2072, 2082, 2066, 2078, 2071, 2079, 2084, 2092, 2080, 2111, 2065, 2164, 2133, 2128, 2134, 2106, 2131, 2123, 2104, 2132, 2113, 2122, 2113, 2112, 2100, 2092, 2117, 2100, 2086, 2115, 2093, 2108, 2083, 2105, 2098, 2084, 2101, 2099, 2098, 2116, 2095, 2113, 2130, 2099, 2121, 2121, 2109, 2114, 2117, 2106, 2119, 2126, 2115, 2130, 2121, 2137, 2099, 2115, 2110],
      "WindowCenter": [593.0, 590.0, 589.0, 588.0, 586.0, 586.0, 587.0, 586.0, 587.0, 586.0, 587.0, 587.0, 587.0, 586.0, 586.0, 585.0, 585.0, 585.0, 584.0, 585.0, 585.0, 585.0, 585.0, 584.0, 585.0, 585.0, 586.0, 585.0, 585.0, 585.0, 584.0, 584.0, 583.0, 585.0, 586.0, 585.0, 584.0, 584.0, 582.0, 582.0, 581.0, 580.0, 581.0, 581.0, 582.0, 581.0, 581.0, 582.0, 582.0, 584.0, 583.0, 585.0, 585.0, 584.0, 584.0, 584.0, 584.0, 584.0, 584.0, 584.0, 584.0, 584.0, 584.0, 584.0, 584.0, 585.0, 585.0, 585.0, 585.0, 585.0, 586.0, 585.0, 586.0, 586.0, 586.0, 587.0, 585.0, 587.0, 586.0, 586.0, 586.0, 585.0, 586.0, 586.0, 585.0, 586.0, 585.0, 586.0, 585.0, 585.0, 585.0, 585.0, 586.0, 585.0, 584.0, 585.0, 584.0, 584.0, 584.0, 584.0, 585.0, 585.0, 585.0, 585.0, 585.0, 586.0, 585.0, 585.0, 586.0, 585.0, 586.0, 586.0, 585.0, 586.0, 585.0, 585.0, 586.0, 586.0, 587.0, 587.0, 587.0, 587.0, 587.0, 586.0, 587.0],
      "WindowWidth": [1266.0, 1260.0, 1257.0, 1254.0, 1251.0, 1250.0, 1251.0, 1251.0, 1252.0, 1251.0, 1251.0, 1251.0, 1251.0, 1250.0, 1249.0, 1248.0, 1248.0, 1247.0, 1246.0, 1247.0, 1248.0, 1248.0, 1248.0, 1246.0, 1246.0, 1247.0, 1248.0, 1247.0, 1248.0, 1247.0, 1246.0, 1244.0, 1243.0, 1248.0, 1249.0, 1247.0, 1245.0, 1244.0, 1241.0, 1240.0, 1239.0, 1237.0, 1239.0, 1239.0, 1240.0, 1240.0, 1240.0, 1242.0, 1242.0, 1244.0, 1244.0, 1246.0, 1248.0, 1245.0, 1245.0, 1246.0, 1246.0, 1245.0, 1245.0, 1245.0, 1245.0, 1245.0, 1244.0, 1246.0, 1245.0, 1247.0, 1247.0, 1247.0, 1248.0, 1248.0, 1248.0, 1247.0, 1249.0, 1250.0, 1249.0, 1250.0, 1248.0, 1252.0, 1250.0, 1250.0, 1250.0, 1248.0, 1249.0, 1249.0, 1247.0, 1249.0, 1248.0, 1248.0, 1248.0, 1247.0, 1248.0, 1247.0, 1248.0, 1247.0, 1246.0, 1246.0, 1245.0, 1246.0, 1246.0, 1246.0, 1247.0, 1248.0, 1247.0, 1248.0, 1247.0, 1248.0, 1247.0, 1248.0, 1249.0, 1248.0, 1249.0, 1249.0, 1248.0, 1249.0, 1248.0, 1247.0, 1248.0, 1249.0, 1250.0, 1251.0, 1250.0, 1251.0, 1251.0, 1250.0, 1250.0]
    },
    "slices": {}
  }
}