{
  "AcquisitionMatrixPE": 88,
  "AcquisitionNumber": 1,
  "AcquisitionTime": "18:23:15.990000",
  "BandwidthPerPixelPhaseEncode": 19.592,
  "BaseResolution": 88,
  "BodyPartExamined": "BRAIN",
  "ConsistencyInfo": "N4_VE11C_LATEST_20160120",
  "ConversionSoftware": "dcm2niix",
  "ConversionSoftwareVersion": "v1.0.20190902",
  "DerivedVendorReportedEchoSpacing": 0.000580014,
  "DeviceSerialNumber": "67050",
  "DwellTime": 2.6e-06,
  "EchoTime": 0.033,
  "EchoTrainLength": 88,
  "EffectiveEchoSpacing": 0.000580014,
  "FlipAngle": 62,
  "ImageOrientationPatientDICOM": [0.9985, 0.0543661, 0.00641502, -0.0546012, 0.997484, 0.0452209],
  "ImageType": [
    "ORIGINAL",
    "PRIMARY",
    "M",
    "ND",
    "MOSAIC"
],
  "ImagingFrequency": 123.251,
  "InPlanePhaseEncodingDirectionDICOM": "COL",
  "InstitutionAddress": "Olive_Street_60_Providence_RI_US_02912",
  "InstitutionName": "BROWN_UNIVERSITY_MRF",
  "InstitutionalDepartmentName": "Department",
  "MRAcquisitionType": "2D",
  "MagneticFieldStrength": 3,
  "Manufacturer": "Siemens",
  "ManufacturersModelName": "Prisma_fit",
  "Modality": "MR",
  "MultibandAccelerationFactor": 4,
  "PartialFourier": 1,
  "PatientPosition": "HFS",
  "PercentPhaseFOV": 100,
  "PhaseEncodingDirection": "j-",
  "PhaseEncodingSteps": 88,
  "PhaseResolution": 1,
  "PixelBandwidth": 2185,
  "ProcedureStepDescription": "ASHENHAV_1222",
  "ProtocolName": "func-bold_task-RDMmotion_run-04",
  "PulseSequenceDetails": "%SiemensSeq%_ep2d_bold",
  "ReceiveCoilActiveElements": "HC3-7;NC1",
  "ReceiveCoilName": "HeadNeck_64",
  "ReconMatrixPE": 88,
  "RefLinesPE": 8,
  "RepetitionTime": 1.2,
  "SAR": 0.0452555,
  "ScanOptions": "FS",
  "ScanningSequence": "EP",
  "SequenceName": "_epfid2d1_88",
  "SequenceVariant": "SK",
  "SeriesDescription": "func-bold_task-RDMmotion_run-04",
  "SeriesNumber": 13,
  "ShimSetting": [1757, -9231, 4402, 858, -28, -297, 415, -38],
  "SliceThickness": 2.4,
  "SliceTiming": [0.55, 0, 0.6275, 0.0775, 0.7075, 0.1575, 0.785, 0.235, 0.865, 0.315, 0.9425, 0.3925, 1.0225, 0.47, 1.1, 0.55, 0, 0.6275, 0.0775, 0.7075, 0.1575, 0.785, 0.235, 0.865, 0.315, 0.9425, 0.3925, 1.0225, 0.47, 1.1, 0.55, 0, 0.6275, 0.0775, 0.7075, 0.1575, 0.785, 0.235, 0.865, 0.315, 0.9425, 0.3925, 1.0225, 0.47, 1.1, 0.55, 0, 0.6275, 0.0775, 0.7075, 0.1575, 0.785, 0.235, 0.865, 0.315, 0.9425, 0.3925, 1.0225, 0.47, 1.1],
  "SoftwareVersions": "syngo_MR_E11",
  "SpacingBetweenSlices": 2.4,
  "StationName": "AWP67050",
  "TaskName": "RDMmotion",
  "TotalReadoutTime": 0.0504612,
  "TxRefAmp": 220.458,
  "dcmmeta_affine": [
    [-2.394131660461426, -0.13091884553432465, 0.009456954896450043, 113.38870239257812],
    [-0.13035497069358826, 2.3916938304901123, 0.10920804738998413, -99.42579650878906],
    [0.015381471253931522, -0.10842736810445786, 2.3974955081939697, -69.23463439941406],
    [0.0, 0.0, 0.0, 1.0]
],
  "dcmmeta_reorient_transform": [
    [0.0, -1.0, 0.0, 87.0],
    [1.0, 0.0, 0.0, 0.0],
    [0.0, 0.0, 1.0, 0.0],
    [0.0, 0.0, 0.0, 1.0]
],
  "dcmmeta_shape": [88, 88, 60, 125],
  "dcmmeta_slice_dim": 2,
  "dcmmeta_version": 0.6,
  "global": {
    "const": {
      "AcquisitionMatrix": [88, 0, 0, 88],
      "AngioFlag": "N",
      "BitsAllocated": 16,
      "BitsStored": 12,
      "BodyPartExamined": "BRAIN",
      "Columns": 704,
      "DeidentificationMethodCodeSequence": [
        {
          "CodeMeaning": "XNAT DicomEdit 6 Script",
          "CodeValue": "3",
          "CodingSchemeDesignator": "XNAT",
          "CodingSchemeVersion": "1.0"}
],
      "EchoNumbers": 1,
      "EchoTime": 33.0,
      "EchoTrainLength": 88,
      "FlipAngle": 62.0,
      "HighBit": 11,
      "ImageOrientationPatient": [0.99850046546106, 0.05436605537179, 0.00641502122779, -0.0546012247166, 0.9974837226786, 0.04522089396158],
      "ImagePositionPatient": [-799.06834590972, -885.44262855206, -116.80094212842],
      "ImageType": [
        "ORIGINAL",
        "PRIMARY",
        "M",
        "ND",
        "MOSAIC"
],
      "ImagedNucleus": "1H",
      "ImagingFrequency": 123.250802,
      "InPlanePhaseEncodingDirection": "COL",
      "MRAcquisitionType": "2D",
      "MagneticFieldStrength": 3.0,
      "Manufacturer": "SIEMENS",
      "ManufacturerModelName": "Prisma_fit",
      "Modality": "MR",
      "NumberOfAverages": 1.0,
      "NumberOfPhaseEncodingSteps": 88,
      "PercentPhaseFieldOfView": 100.0,
      "PercentSampling": 100.0,
      "PerformedProcedureStepStartTime": "172520.650000",
      "PhotometricInterpretation": "MONOCHROME2",
      "PixelBandwidth": 2185.0,
      "PixelRepresentation": 0,
      "PixelSpacing": [2.3977272510529, 2.3977272510529],
      "ProtocolName": "func-bold_task-RDMmotion_run-04",
      "RepetitionTime": 1200.0,
      "Rows": 704,
      "SAR": 0.04525553757627,
      "SamplesPerPixel": 1,
      "ScanOptions": "FS",
      "ScanningSequence": "EP",
      "SequenceName": "*epfid2d1_88",
      "SequenceVariant": "SK",
      "SeriesDescription": "func-bold_task-RDMmotion_run-04",
      "SeriesNumber": 13,
      "SeriesTime": "182353.097000",
      "SliceLocation": -73.239796029028,
      "SliceThickness": 2.4000000953674,
      "SmallestImagePixelValue": 0,
      "SoftwareVersions": "syngo MR E11",
      "SpacingBetweenSlices": 2.4000000683899,
      "SpecificCharacterSet": "ISO_IR 100",
      "StudyID": "1",
      "StudyTime": "172520.512000",
      "TransmitCoilName": "Body",
      "VariableFlipAngleFlag": "N",
      "WindowCenterWidthExplanation": "Algo1",
      "dBdt": 0.0},
    "slices": {}
  },
  "time": {
    "samples": {
      "AcquisitionNumber": [1, 2, 3, 4, 5, 6, 7, 8, 9, 10, 11, 12, 13, 14, 15, 16, 17, 18, 19, 20, 21, 22, 23, 24, 25, 26, 27, 28, 29, 30, 31, 32, 33, 34, 35, 36, 37, 38, 39, 40, 41, 42, 43, 44, 45, 46, 47, 48, 49, 50, 51, 52, 53, 54, 55, 56, 57, 58, 59, 60, 61, 62, 63, 64, 65, 66, 67, 68, 69, 70, 71, 72, 73, 74, 75, 76, 77, 78, 79, 80, 81, 82, 83, 84, 85, 86, 87, 88, 89, 90, 91, 92, 93, 94, 95, 96, 97, 98, 99, 100, 101, 102, 103, 104, 105, 106, 107, 108, 109, 110, 111, 112, 113, 114, 115, 116, 117, 118, 119, 120, 121, 122, 123, 124, 125],
      "AcquisitionTime": ["182315.990000", "182317.190000", "182318.390000", "182319.590000", "182320.790000", "182321.990000", "182323.190000", "182324.390000", "182325.590000", "182326.790000", "182327.990000", "182329.190000", "182330.390000", "182331.590000", "182332.790000", "182333.990000", "182335.190000", "182336.390000", "182337.590000", "182338.790000", "182339.990000", "182341.190000", "182342.390000", "182343.590000", "182344.790000", "182345.990000", "182347.190000", "182348.390000", "182349.590000", "182350.790000", "182351.990000", "182353.190000", "182354.390000", "182355.590000", "182356.790000", "182357.990000", "182359.190000", "182400.390000", "182401.590000", "182402.790000", "182403.990000", "182405.190000", "182406.390000", "182407.590000", "182408.790000", "182409.990000", "182411.190000", "182412.390000", "182413.590000", "182414.790000", "182415.990000", "182417.190000", "182418.390000", "182419.590000", "182420.790000", "182421.990000", "182423.190000", "182424.390000", "182425.590000", "182426.790000", "182427.990000", "182429.190000", "182430.390000", "182431.590000", "182432.790000", "182433.990000", "182435.190000", "182436.390000", "182437.590000", "182438.790000", "182439.990000", "182441.190000", "182442.390000", "182443.590000", "182444.790000", "182445.990000", "182447.190000", "182448.390000", "182449.590000", "182450.790000", "182451.990000", "182453.190000", "182454.390000", "182455.590000", "182456.790000", "182457.990000", "182459.190000", "182500.390000", "182501.590000", "182502.790000", "182503.990000", "182505.190000", "182506.390000", "182507.590000", "182508.790000", "182509.990000", "182511.190000", "182512.390000", "182513.590000", "182514.790000", "182515.990000", "182517.190000", "182518.390000", "182519.590000", "182520.790000", "182521.990000", "182523.190000", "182524.390000", "182525.590000", "182526.790000", "182527.990000", "182529.190000", "182530.390000", "182531.590000", "182532.790000", "182533.990000", "182535.190000", "182536.390000", "182537.590000", "182538.790000", "182539.990000", "182541.190000", "182542.390000", "182543.590000", "182544.790000"],
      "ContentTime": ["182353.100000", "182353.104000", "182353.116000", "182353.118000", "182353.121000", "182353.123000", "182353.126000", "182353.128000", "182353.131000", "182353.133000", "182353.145000", "182353.148000", "182353.151000", "182353.153000", "182353.156000", "182353.158000", "182353.161000", "182353.163000", "182353.166000", "182353.168000", "182353.171000", "182353.173000", "182353.176000", "182353.178000", "182353.181000", "182353.190000", "182353.193000", "182353.196000", "182353.198000", "182353.201000", "182353.203000", "182433.079000", "182433.081000", "182433.084000", "182433.086000", "182433.089000", "182433.091000", "182433.094000", "182433.096000", "182433.099000", "182433.102000", "182433.104000", "182433.107000", "182433.123000", "182433.125000", "182433.128000", "182433.131000", "182433.133000", "182433.136000", "182433.138000", "182433.141000", "182433.143000", "182433.146000", "182433.149000", "182433.151000", "182433.154000", "182433.156000", "182433.159000", "182433.161000", "182433.164000", "182433.169000", "182433.172000", "182433.174000", "182433.177000", "182513.079000", "182513.081000", "182513.084000", "182513.087000", "182513.089000", "182513.092000", "182513.094000", "182513.097000", "182513.099000", "182513.102000", "182513.104000", "182513.107000", "182513.109000", "182513.112000", "182513.114000", "182513.117000", "182513.120000", "182513.122000", "182513.125000", "182513.128000", "182513.130000", "182513.133000", "182513.135000", "182513.138000", "182513.140000", "182513.143000", "182513.145000", "182513.148000", "182513.151000", "182513.161000", "182513.163000", "182513.166000", "182513.168000", "182545.876000", "182545.885000", "182545.888000", "182545.891000", "182545.893000", "182545.896000", "182545.898000", "182545.901000", "182545.903000", "182545.906000", "182545.909000", "182545.911000", "182545.914000", "182545.916000", "182545.919000", "182545.921000", "182545.924000", "182545.927000", "182545.929000", "182545.932000", "182545.935000", "182545.937000", "182545.940000", "182545.942000", "182545.945000", "182545.948000", "182545.950000", "182545.953000"],
      "InstanceCreationTime": ["182353.100000", "182353.104000", "182353.116000", "182353.118000", "182353.121000", "182353.123000", "182353.126000", "182353.128000", "182353.131000", "182353.133000", "182353.145000", "182353.148000", "182353.151000", "182353.153000", "182353.156000", "182353.158000", "182353.161000", "182353.163000", "182353.166000", "182353.168000", "182353.171000", "182353.173000", "182353.176000", "182353.178000", "182353.181000", "182353.190000", "182353.193000", "182353.196000", "182353.198000", "182353.201000", "182353.203000", "182433.079000", "182433.081000", "182433.084000", "182433.086000", "182433.089000", "182433.091000", "182433.094000", "182433.096000", "182433.099000", "182433.102000", "182433.104000", "182433.107000", "182433.123000", "182433.125000", "182433.128000", "182433.131000", "182433.133000", "182433.136000", "182433.138000", "182433.141000", "182433.143000", "182433.146000", "182433.149000", "182433.151000", "182433.154000", "182433.156000", "182433.159000", "182433.161000", "182433.164000", "182433.169000", "182433.172000", "182433.174000", "182433.177000", "182513.079000", "182513.081000", "182513.084000", "182513.087000", "182513.089000", "182513.092000", "182513.094000", "182513.097000", "182513.099000", "182513.102000", "182513.104000", "182513.107000", "182513.109000", "182513.112000", "182513.114000", "182513.117000", "182513.120000", "182513.122000", "182513.125000", "182513.128000", "182513.130000", "182513.133000", "182513.135000", "182513.138000", "182513.140000", "182513.143000", "182513.145000", "182513.148000", "182513.151000", "182513.161000", "182513.163000", "182513.166000", "182513.168000", "182545.876000", "182545.885000", "182545.888000", "182545.891000", "182545.893000", "182545.896000", "182545.898000", "182545.901000", "182545.903000", "182545.906000", "182545.909000", "182545.911000", "182545.914000", "182545.916000", "182545.919000", "182545.921000", "182545.924000", "182545.927000", "182545.929000", "182545.932000", "182545.935000", "182545.937000", "182545.940000", "182545.942000", "182545.945000", "182545.948000", "182545.950000", "182545.953000"],
      "InstanceNumber": [1, 2, 3, 4, 5, 6, 7, 8, 9, 10, 11, 12, 13, 14, 15, 16, 17, 18, 19, 20, 21, 22, 23, 24, 25, 26, 27, 28, 29, 30, 31, 32, 33, 34, 35, 36, 37, 38, 39, 40, 41, 42, 43, 44, 45, 46, 47, 48, 49, 50, 51, 52, 53, 54, 55, 56, 57, 58, 59, 60, 61, 62, 63, 64, 65, 66, 67, 68, 69, 70, 71, 72, 73, 74, 75, 76, 77, 78, 79, 80, 81, 82, 83, 84, 85, 86, 87, 88, 89, 90, 91, 92, 93, 94, 95, 96, 97, 98, 99, 100, 101, 102, 103, 104, 105, 106, 107, 108, 109, 110, 111, 112, 113, 114, 115, 116, 117, 118, 119, 120, 121, 122, 123, 124, 125],
      "LargestImagePixelValue": [2019, 1992, 1973, 1958, 1962, 1993, 2019, 2044, 2034, 2055, 2022, 2053, 2000, 2019, 2040, 2024, 2023, 2023, 2026, 2038, 2039, 1992, 2004, 1994, 2006, 2006, 1993, 2001, 2003, 2029, 2039, 2016, 2016, 2001, 2015, 2044, 2013, 1993, 1973, 1961, 2009, 1995, 1991, 2021, 2033, 2032, 1983, 1966, 1999, 1990, 2049, 1977, 1986, 2001, 1974, 1991, 1989, 1983, 2004, 1985, 1998, 1968, 1993, 2004, 2004, 1994, 1996, 2004, 1985, 1968, 1982, 1954, 1981, 1995, 1994, 1996, 1994, 2018, 2035, 2002, 1997, 2013, 1989, 2028, 1995, 1984, 1999, 1988, 1994, 1973, 1966, 1984, 1978, 1982, 1964, 2008, 2051, 2078, 2032, 2025, 2001, 1992, 1991, 1972, 1970, 1974, 1982, 2030, 2032, 2029, 2049, 2020, 2017, 1996, 1976, 1962, 1959, 1975, 2001, 1989, 2026, 1983, 1993, 1999, 1998],
      "WindowCenter": [574.0, 573.0, 572.0, 572.0, 573.0, 574.0, 574.0, 575.0, 574.0, 574.0, 574.0, 574.0, 574.0, 573.0, 574.0, 574.0, 573.0, 573.0, 574.0, 574.0, 574.0, 573.0, 573.0, 573.0, 574.0, 573.0, 574.0, 573.0, 573.0, 575.0, 575.0, 575.0, 574.0, 574.0, 574.0, 574.0, 573.0, 573.0, 572.0, 572.0, 573.0, 573.0, 575.0, 575.0, 574.0, 574.0, 572.0, 572.0, 573.0, 573.0, 574.0, 573.0, 573.0, 573.0, 574.0, 574.0, 574.0, 574.0, 574.0, 573.0, 573.0, 573.0, 574.0, 574.0, 574.0, 573.0, 573.0, 573.0, 573.0, 573.0, 573.0, 573.0, 574.0, 574.0, 574.0, 574.0, 574.0, 574.0, 574.0, 573.0, 574.0, 574.0, 573.0, 574.0, 573.0, 573.0, 573.0, 573.0, 574.0, 573.0, 573.0, 574.0, 574.0, 575.0, 575.0, 576.0, 576.0, 575.0, 574.0, 574.0, 573.0, 574.0, 573.0, 574.0, 574.0, 574.0, 575.0, 575.0, 575.0, 574.0, 573.0, 574.0, 574.0, 573.0, 573.0, 573.0, 573.0, 574.0, 574.0, 574.0, 575.0, 574.0, 574.0, 576.0, 576.0],
      "WindowWidth": [1230.0, 1227.0, 1227.0, 1226.0, 1229.0, 1231.0, 1231.0, 1233.0, 1231.0, 1230.0, 1229.0, 1230.0, 1230.0, 1229.0, 1230.0, 1230.0, 1229.0, 1229.0, 1229.0, 1230.0, 1229.0, 1229.0, 1229.0, 1228.0, 1230.0, 1229.0, 1230.0, 1229.0, 1230.0, 1232.0, 1232.0, 1232.0, 1231.0, 1230.0, 1230.0, 1229.0, 1228.0, 1228.0, 1227.0, 1226.0, 1229.0, 1229.0, 1232.0, 1233.0, 1231.0, 1230.0, 1226.0, 1227.0, 1228.0, 1228.0, 1230.0, 1228.0, 1228.0, 1229.0, 1229.0, 1230.0, 1230.0, 1230.0, 1231.0, 1228.0, 1228.0, 1227.0, 1230.0, 1230.0, 1230.0, 1228.0, 1229.0, 1229.0, 1228.0, 1228.0, 1229.0, 1229.0, 1230.0, 1230.0, 1230.0, 1231.0, 1230.0, 1230.0, 1231.0, 1228.0, 1229.0, 1229.0, 1227.0, 1230.0, 1228.0, 1228.0, 1228.0, 1228.0, 1230.0, 1228.0, 1228.0, 1230.0, 1230.0, 1232.0, 1233.0, 1234.0, 1234.0, 1231.0, 1231.0, 1229.0, 1228.0, 1229.0, 1229.0, 1231.0, 1231.0, 1230.0, 1232.0, 1233.0, 1231.0, 1231.0, 1229.0, 1229.0, 1230.0, 1227.0, 1228.0, 1228.0, 1228.0, 1231.0, 1231.0, 1230.0, 1232.0, 1230.0, 1231.0, 1234.0, 1235.0]
    },
    "slices": {}
  }
}