{
  "AcquisitionMatrixPE": 88,
  "AcquisitionNumber": 1,
  "AcquisitionTime": "18:02:6.602500",
  "BandwidthPerPixelPhaseEncode": 19.592,
  "BaseResolution": 88,
  "BodyPartExamined": "BRAIN",
  "ConsistencyInfo": "N4_VE11C_LATEST_20160120",
  "ConversionSoftware": "dcm2niix",
  "ConversionSoftwareVersion": "v1.0.20190902",
  "DerivedVendorReportedEchoSpacing": 0.000580014,
  "DeviceSerialNumber": "67050",
  "DwellTime": 2.6e-06,
  "EchoTime": 0.033,
  "EchoTrainLength": 88,
  "EffectiveEchoSpacing": 0.000580014,
  "FlipAngle": 62,
  "ImageOrientationPatientDICOM": [0.9985, 0.0543661, 0.00641502, -0.0546012, 0.997484, 0.0452209],
  "ImageType": [
    "ORIGINAL",
    "PRIMARY",
    "M",
    "ND",
    "MOSAIC"
],
  "ImagingFrequency": 123.251,
  "InPlanePhaseEncodingDirectionDICOM": "COL",
  "InstitutionAddress": "Olive_Street_60_Providence_RI_US_02912",
  "InstitutionName": "BROWN_UNIVERSITY_MRF",
  "InstitutionalDepartmentName": "Department",
  "MRAcquisitionType": "2D",
  "MagneticFieldStrength": 3,
  "Manufacturer": "Siemens",
  "ManufacturersModelName": "Prisma_fit",
  "Modality": "MR",
  "MultibandAccelerationFactor": 4,
  "PartialFourier": 1,
  "PatientPosition": "HFS",
  "PercentPhaseFOV": 100,
  "PhaseEncodingDirection": "j-",
  "PhaseEncodingSteps": 88,
  "PhaseResolution": 1,
  "PixelBandwidth": 2185,
  "ProcedureStepDescription": "ASHENHAV_1222",
  "ProtocolName": "func-bold_task-RDMcolor_run-02",
  "PulseSequenceDetails": "%SiemensSeq%_ep2d_bold",
  "ReceiveCoilActiveElements": "HC3-7;NC1",
  "ReceiveCoilName": "HeadNeck_64",
  "ReconMatrixPE": 88,
  "RefLinesPE": 8,
  "RepetitionTime": 1.2,
  "SAR": 0.0457196,
  "ScanOptions": "FS",
  "ScanningSequence": "EP",
  "SequenceName": "_epfid2d1_88",
  "SequenceVariant": "SK",
  "SeriesDescription": "func-bold_task-RDMcolor_run-02",
  "SeriesNumber": 10,
  "ShimSetting": [1757, -9231, 4402, 858, -28, -297, 415, -38],
  "SliceThickness": 2.4,
  "SliceTiming": [0.55, 0, 0.63, 0.08, 0.7075, 0.1575, 0.7875, 0.2375, 0.865, 0.315, 0.945, 0.3925, 1.0225, 0.4725, 1.1025, 0.55, 0, 0.63, 0.08, 0.7075, 0.1575, 0.7875, 0.2375, 0.865, 0.315, 0.945, 0.3925, 1.0225, 0.4725, 1.1025, 0.55, 0, 0.63, 0.08, 0.7075, 0.1575, 0.7875, 0.2375, 0.865, 0.315, 0.945, 0.3925, 1.0225, 0.4725, 1.1025, 0.55, 0, 0.63, 0.08, 0.7075, 0.1575, 0.7875, 0.2375, 0.865, 0.315, 0.945, 0.3925, 1.0225, 0.4725, 1.1025],
  "SoftwareVersions": "syngo_MR_E11",
  "SpacingBetweenSlices": 2.4,
  "StationName": "AWP67050",
  "TaskName": "RDMcolor",
  "TotalReadoutTime": 0.0504612,
  "TxRefAmp": 220.458,
  "dcmmeta_affine": [
    [-2.394131660461426, -0.13091884553432465, 0.009456954896450043, 113.38870239257812],
    [-0.13035497069358826, 2.3916938304901123, 0.10920804738998413, -99.42579650878906],
    [0.015381471253931522, -0.10842736810445786, 2.3974955081939697, -69.23463439941406],
    [0.0, 0.0, 0.0, 1.0]
],
  "dcmmeta_reorient_transform": [
    [0.0, -1.0, 0.0, 87.0],
    [1.0, 0.0, 0.0, 0.0],
    [0.0, 0.0, 1.0, 0.0],
    [0.0, 0.0, 0.0, 1.0]
],
  "dcmmeta_shape": [88, 88, 60, 392],
  "dcmmeta_slice_dim": 2,
  "dcmmeta_version": 0.6,
  "global": {
    "const": {
      "AcquisitionMatrix": [88, 0, 0, 88],
      "AngioFlag": "N",
      "BitsAllocated": 16,
      "BitsStored": 12,
      "BodyPartExamined": "BRAIN",
      "Columns": 704,
      "DeidentificationMethodCodeSequence": [
        {
          "CodeMeaning": "XNAT DicomEdit 6 Script",
          "CodeValue": "3",
          "CodingSchemeDesignator": "XNAT",
          "CodingSchemeVersion": "1.0"}
],
      "EchoNumbers": 1,
      "EchoTime": 33.0,
      "EchoTrainLength": 88,
      "FlipAngle": 62.0,
      "HighBit": 11,
      "ImageOrientationPatient": [0.99850046546106, 0.05436605537179, 0.00641502122779, -0.0546012247166, 0.9974837226786, 0.04522089396158],
      "ImagePositionPatient": [-799.06834590972, -885.44262855206, -116.80094212842],
      "ImageType": [
        "ORIGINAL",
        "PRIMARY",
        "M",
        "ND",
        "MOSAIC"
],
      "ImagedNucleus": "1H",
      "ImagingFrequency": 123.250793,
      "InPlanePhaseEncodingDirection": "COL",
      "MRAcquisitionType": "2D",
      "MagneticFieldStrength": 3.0,
      "Manufacturer": "SIEMENS",
      "ManufacturerModelName": "Prisma_fit",
      "Modality": "MR",
      "NumberOfAverages": 1.0,
      "NumberOfPhaseEncodingSteps": 88,
      "PercentPhaseFieldOfView": 100.0,
      "PercentSampling": 100.0,
      "PerformedProcedureStepStartTime": "172520.650000",
      "PhotometricInterpretation": "MONOCHROME2",
      "PixelBandwidth": 2185.0,
      "PixelRepresentation": 0,
      "PixelSpacing": [2.3977272510529, 2.3977272510529],
      "ProtocolName": "func-bold_task-RDMcolor_run-02",
      "RepetitionTime": 1200.0,
      "Rows": 704,
      "SAR": 0.04571960704439,
      "SamplesPerPixel": 1,
      "ScanOptions": "FS",
      "ScanningSequence": "EP",
      "SequenceName": "*epfid2d1_88",
      "SequenceVariant": "SK",
      "SeriesDescription": "func-bold_task-RDMcolor_run-02",
      "SeriesNumber": 10,
      "SeriesTime": "180233.080000",
      "SliceLocation": -73.239796029028,
      "SliceThickness": 2.4000000953674,
      "SmallestImagePixelValue": 0,
      "SoftwareVersions": "syngo MR E11",
      "SpacingBetweenSlices": 2.4000000683899,
      "SpecificCharacterSet": "ISO_IR 100",
      "StudyID": "1",
      "StudyTime": "172520.512000",
      "TransmitCoilName": "Body",
      "VariableFlipAngleFlag": "N",
      "WindowCenterWidthExplanation": "Algo1",
      "dBdt": 0.0},
    "slices": {}
  },
  "time": {
    "samples": {
      "AcquisitionNumber": [1, 2, 3, 4, 5, 6, 7, 8, 9, 10, 11, 12, 13, 14, 15, 16, 17, 18, 19, 20, 21, 22, 23, 24, 25, 26, 27, 28, 29, 30, 31, 32, 33, 34, 35, 36, 37, 38, 39, 40, 41, 42, 43, 44, 45, 46, 47, 48, 49, 50, 51, 52, 53, 54, 55, 56, 57, 58, 59, 60, 61, 62, 63, 64, 65, 66, 67, 68, 69, 70, 71, 72, 73, 74, 75, 76, 77, 78, 79, 80, 81, 82, 83, 84, 85, 86, 87, 88, 89, 90, 91, 92, 93, 94, 95, 96, 97, 98, 99, 100, 101, 102, 103, 104, 105, 106, 107, 108, 109, 110, 111, 112, 113, 114, 115, 116, 117, 118, 119, 120, 121, 122, 123, 124, 125, 126, 127, 128, 129, 130, 131, 132, 133, 134, 135, 136, 137, 138, 139, 140, 141, 142, 143, 144, 145, 146, 147, 148, 149, 150, 151, 152, 153, 154, 155, 156, 157, 158, 159, 160, 161, 162, 163, 164, 165, 166, 167, 168, 169, 170, 171, 172, 173, 174, 175, 176, 177, 178, 179, 180, 181, 182, 183, 184, 185, 186, 187, 188, 189, 190, 191, 192, 193, 194, 195, 196, 197, 198, 199, 200, 201, 202, 203, 204, 205, 206, 207, 208, 209, 210, 211, 212, 213, 214, 215, 216, 217, 218, 219, 220, 221, 222, 223, 224, 225, 226, 227, 228, 229, 230, 231, 232, 233, 234, 235, 236, 237, 238, 239, 240, 241, 242, 243, 244, 245, 246, 247, 248, 249, 250, 251, 252, 253, 254, 255, 256, 257, 258, 259, 260, 261, 262, 263, 264, 265, 266, 267, 268, 269, 270, 271, 272, 273, 274, 275, 276, 277, 278, 279, 280, 281, 282, 283, 284, 285, 286, 287, 288, 289, 290, 291, 292, 293, 294, 295, 296, 297, 298, 299, 300, 301, 302, 303, 304, 305, 306, 307, 308, 309, 310, 311, 312, 313, 314, 315, 316, 317, 318, 319, 320, 321, 322, 323, 324, 325, 326, 327, 328, 329, 330, 331, 332, 333, 334, 335, 336, 337, 338, 339, 340, 341, 342, 343, 344, 345, 346, 347, 348, 349, 350, 351, 352, 353, 354, 355, 356, 357, 358, 359, 360, 361, 362, 363, 364, 365, 366, 367, 368, 369, 370, 371, 372, 373, 374, 375, 376, 377, 378, 379, 380, 381, 382, 383, 384, 385, 386, 387, 388, 389, 390, 391, 392],
      "AcquisitionTime": ["180206.602500", "180207.802500", "180209.002500", "180210.202500", "180211.402500", "180212.602500", "180213.802500", "180215.002500", "180216.202500", "180217.402500", "180218.602500", "180219.802500", "180221.002500", "180222.202500", "180223.402500", "180224.602500", "180225.802500", "180227.002500", "180228.202500", "180229.402500", "180230.602500", "180231.802500", "180233.002500", "180234.202500", "180235.402500", "180236.602500", "180237.802500", "180239.002500", "180240.202500", "180241.402500", "180242.602500", "180243.802500", "180245.002500", "180246.202500", "180247.402500", "180248.602500", "180249.802500", "180251.002500", "180252.202500", "180253.402500", "180254.602500", "180255.802500", "180257.002500", "180258.202500", "180259.402500", "180300.602500", "180301.802500", "180303.002500", "180304.202500", "180305.402500", "180306.602500", "180307.802500", "180309.002500", "180310.202500", "180311.402500", "180312.602500", "180313.802500", "180315.002500", "180316.202500", "180317.402500", "180318.602500", "180319.802500", "180321.002500", "180322.202500", "180323.402500", "180324.602500", "180325.802500", "180327.002500", "180328.202500", "180329.402500", "180330.602500", "180331.802500", "180333.002500", "180334.202500", "180335.402500", "180336.602500", "180337.802500", "180339.002500", "180340.202500", "180341.402500", "180342.602500", "180343.802500", "180345.002500", "180346.202500", "180347.402500", "180348.602500", "180349.802500", "180351.002500", "180352.202500", "180353.402500", "180354.602500", "180355.802500", "180357.002500", "180358.202500", "180359.402500", "180400.602500", "180401.802500", "180403.002500", "180404.202500", "180405.402500", "180406.602500", "180407.802500", "180409.002500", "180410.202500", "180411.402500", "180412.602500", "180413.802500", "180415.002500", "180416.202500", "180417.402500", "180418.602500", "180419.802500", "180421.002500", "180422.202500", "180423.402500", "180424.602500", "180425.802500", "180427.002500", "180428.202500", "180429.402500", "180430.602500", "180431.802500", "180433.002500", "180434.202500", "180435.402500", "180436.602500", "180437.802500", "180439.002500", "180440.202500", "180441.402500", "180442.602500", "180443.802500", "180445.002500", "180446.202500", "180447.402500", "180448.602500", "180449.802500", "180451.002500", "180452.202500", "180453.402500", "180454.602500", "180455.802500", "180457.002500", "180458.202500", "180459.402500", "180500.602500", "180501.802500", "180503.002500", "180504.202500", "180505.402500", "180506.602500", "180507.802500", "180509.002500", "180510.202500", "180511.402500", "180512.602500", "180513.802500", "180515.002500", "180516.202500", "180517.402500", "180518.602500", "180519.802500", "180521.002500", "180522.202500", "180523.402500", "180524.602500", "180525.802500", "180527.002500", "180528.202500", "180529.402500", "180530.602500", "180531.802500", "180533.002500", "180534.202500", "180535.402500", "180536.602500", "180537.802500", "180539.002500", "180540.202500", "180541.402500", "180542.602500", "180543.802500", "180545.002500", "180546.202500", "180547.402500", "180548.602500", "180549.802500", "180551.002500", "180552.202500", "180553.402500", "180554.602500", "180555.802500", "180557.002500", "180558.202500", "180559.402500", "180600.602500", "180601.802500", "180603.002500", "180604.202500", "180605.402500", "180606.602500", "180607.802500", "180609.002500", "180610.202500", "180611.402500", "180612.602500", "180613.802500", "180615.002500", "180616.202500", "180617.402500", "180618.602500", "180619.802500", "180621.002500", "180622.202500", "180623.402500", "180624.602500", "180625.802500", "180627.002500", "180628.202500", "180629.402500", "180630.602500", "180631.802500", "180633.002500", "180634.202500", "180635.402500", "180636.602500", "180637.802500", "180639.002500", "180640.202500", "180641.402500", "180642.602500", "180643.802500", "180645.002500", "180646.202500", "180647.402500", "180648.602500", "180649.802500", "180651.002500", "180652.202500", "180653.402500", "180654.602500", "180655.802500", "180657.002500", "180658.202500", "180659.402500", "180700.602500", "180701.802500", "180703.002500", "180704.202500", "180705.402500", "180706.602500", "180707.802500", "180709.002500", "180710.202500", "180711.402500", "180712.602500", "180713.802500", "180715.002500", "180716.202500", "180717.402500", "180718.602500", "180719.802500", "180721.002500", "180722.202500", "180723.402500", "180724.602500", "180725.802500", "180727.002500", "180728.202500", "180729.402500", "180730.602500", "180731.802500", "180733.002500", "180734.202500", "180735.402500", "180736.602500", "180737.802500", "180739.002500", "180740.202500", "180741.402500", "180742.602500", "180743.802500", "180745.002500", "180746.202500", "180747.402500", "180748.602500", "180749.802500", "180751.002500", "180752.202500", "180753.402500", "180754.602500", "180755.802500", "180757.002500", "180758.202500", "180759.402500", "180800.602500", "180801.802500", "180803.002500", "180804.202500", "180805.402500", "180806.602500", "180807.802500", "180809.002500", "180810.202500", "180811.402500", "180812.602500", "180813.802500", "180815.002500", "180816.202500", "180817.402500", "180818.602500", "180819.802500", "180821.002500", "180822.202500", "180823.402500", "180824.602500", "180825.802500", "180827.002500", "180828.202500", "180829.402500", "180830.602500", "180831.802500", "180833.002500", "180834.202500", "180835.402500", "180836.602500", "180837.802500", "180839.002500", "180840.202500", "180841.402500", "180842.602500", "180843.802500", "180845.002500", "180846.202500", "180847.402500", "180848.602500", "180849.802500", "180851.002500", "180852.202500", "180853.402500", "180854.602500", "180855.802500", "180857.002500", "180858.202500", "180859.402500", "180900.602500", "180901.802500", "180903.002500", "180904.202500", "180905.402500", "180906.602500", "180907.802500", "180909.002500", "180910.202500", "180911.402500", "180912.602500", "180913.802500", "180915.002500", "180916.202500", "180917.402500", "180918.602500", "180919.802500", "180921.002500", "180922.202500", "180923.402500", "180924.602500", "180925.802500", "180927.002500", "180928.202500", "180929.402500", "180930.602500", "180931.802500", "180933.002500", "180934.202500", "180935.402500", "180936.602500", "180937.802500", "180939.002500", "180940.202500", "180941.402500", "180942.602500", "180943.802500", "180945.002500", "180946.202500", "180947.402500", "180948.602500", "180949.802500", "180951.002500", "180952.202500", "180953.402500", "180954.602500", "180955.802500"],
      "ContentTime": ["180233.084000", "180233.087000", "180233.090000", "180233.092000", "180233.095000", "180233.097000", "180233.100000", "180233.102000", "180233.116000", "180233.119000", "180233.122000", "180233.124000", "180233.131000", "180233.134000", "180233.136000", "180233.139000", "180233.142000", "180233.144000", "180233.147000", "180233.149000", "180233.152000", "180313.079000", "180313.081000", "180313.084000", "180313.086000", "180313.089000", "180313.092000", "180313.094000", "180313.097000", "180313.099000", "180313.102000", "180313.104000", "180313.107000", "180313.109000", "180313.112000", "180313.114000", "180313.117000", "180313.119000", "180313.122000", "180313.125000", "180313.127000", "180313.130000", "180313.132000", "180313.135000", "180313.137000", "180313.140000", "180313.143000", "180313.146000", "180313.148000", "180313.151000", "180313.153000", "180313.156000", "180313.159000", "180313.161000", "180313.164000", "180353.078000", "180353.081000", "180353.084000", "180353.086000", "180353.089000", "180353.091000", "180353.094000", "180353.097000", "180353.099000", "180353.102000", "180353.105000", "180353.107000", "180353.110000", "180353.112000", "180353.115000", "180353.118000", "180353.120000", "180353.123000", "180353.125000", "180353.128000", "180353.130000", "180353.136000", "180353.139000", "180353.142000", "180353.144000", "180353.147000", "180353.149000", "180353.152000", "180353.155000", "180353.157000", "180353.160000", "180353.162000", "180353.165000", "180433.080000", "180433.082000", "180433.085000", "180433.087000", "180433.090000", "180433.093000", "180433.095000", "180433.098000", "180433.100000", "180433.103000", "180433.105000", "180433.112000", "180433.115000", "180433.118000", "180433.120000", "180433.123000", "180433.125000", "180433.128000", "180433.130000", "180433.133000", "180433.136000", "180433.138000", "180433.141000", "180433.143000", "180433.146000", "180433.148000", "180433.151000", "180433.153000", "180433.156000", "180433.158000", "180433.161000", "180433.164000", "180433.166000", "180513.079000", "180513.081000", "180513.084000", "180513.087000", "180513.089000", "180513.092000", "180513.094000", "180513.097000", "180513.099000", "180513.102000", "180513.105000", "180513.107000", "180513.110000", "180513.112000", "180513.115000", "180513.117000", "180513.120000", "180513.122000", "180513.125000", "180513.128000", "180513.130000", "180513.133000", "180513.135000", "180513.138000", "180513.141000", "180513.143000", "180513.146000", "180513.148000", "180513.151000", "180513.153000", "180513.156000", "180513.158000", "180513.161000", "180513.163000", "180553.078000", "180553.081000", "180553.084000", "180553.087000", "180553.089000", "180553.092000", "180553.094000", "180553.097000", "180553.099000", "180553.102000", "180553.104000", "180553.107000", "180553.109000", "180553.112000", "180553.114000", "180553.117000", "180553.120000", "180553.122000", "180553.125000", "180553.127000", "180553.130000", "180553.132000", "180553.135000", "180553.138000", "180553.146000", "180553.149000", "180553.151000", "180553.154000", "180553.157000", "180553.159000", "180553.162000", "180553.164000", "180553.167000", "180633.079000", "180633.081000", "180633.084000", "180633.087000", "180633.089000", "180633.092000", "180633.094000", "180633.097000", "180633.115000", "180633.118000", "180633.120000", "180633.123000", "180633.126000", "180633.128000", "180633.131000", "180633.133000", "180633.136000", "180633.138000", "180633.144000", "180633.147000", "180633.149000", "180633.152000", "180633.155000", "180633.157000", "180633.160000", "180633.162000", "180633.165000", "180633.168000", "180633.170000", "180633.173000", "180633.175000", "180633.178000", "180633.181000", "180713.080000", "180713.083000", "180713.085000", "180713.088000", "180713.090000", "180713.093000", "180713.096000", "180713.098000", "180713.101000", "180713.103000", "180713.106000", "180713.113000", "180713.115000", "180713.118000", "180713.120000", "180713.123000", "180713.126000", "180713.128000", "180713.131000", "180713.134000", "180713.136000", "180713.139000", "180713.141000", "180713.144000", "180713.147000", "180713.150000", "180713.152000", "180713.155000", "180713.158000", "180713.160000", "180713.163000", "180713.165000", "180713.168000", "180713.171000", "180753.079000", "180753.081000", "180753.084000", "180753.087000", "180753.089000", "180753.092000", "180753.094000", "180753.097000", "180753.100000", "180753.102000", "180753.105000", "180753.107000", "180753.110000", "180753.113000", "180753.115000", "180753.118000", "180753.121000", "180753.123000", "180753.126000", "180753.128000", "180753.131000", "180753.134000", "180753.136000", "180753.139000", "180753.141000", "180753.144000", "180753.146000", "180753.149000", "180753.152000", "180753.154000", "180753.157000", "180753.159000", "180753.162000", "180833.079000", "180833.082000", "180833.084000", "180833.087000", "180833.089000", "180833.092000", "180833.095000", "180833.097000", "180833.100000", "180833.102000", "180833.105000", "180833.107000", "180833.114000", "180833.116000", "180833.119000", "180833.122000", "180833.124000", "180833.127000", "180833.129000", "180833.132000", "180833.134000", "180833.137000", "180833.140000", "180833.142000", "180833.149000", "180833.151000", "180833.154000", "180833.157000", "180833.159000", "180833.162000", "180833.165000", "180833.167000", "180833.170000", "180913.079000", "180913.082000", "180913.085000", "180913.088000", "180913.090000", "180913.097000", "180913.100000", "180913.103000", "180913.106000", "180913.108000", "180913.111000", "180913.114000", "180913.116000", "180913.119000", "180913.121000", "180913.124000", "180913.127000", "180913.129000", "180913.132000", "180913.135000", "180913.138000", "180913.141000", "180913.143000", "180913.146000", "180913.148000", "180913.151000", "180913.153000", "180913.156000", "180913.159000", "180913.161000", "180913.164000", "180913.166000", "180913.169000", "180913.172000", "180953.079000", "180953.081000", "180953.084000", "180953.087000", "180953.089000", "180953.092000", "180953.094000", "180953.097000", "180953.099000", "180953.102000", "180953.104000", "180953.107000", "180953.110000", "180953.112000", "180953.115000", "180953.117000", "180953.120000", "180953.123000", "180953.125000", "180953.128000", "180953.130000", "180953.154000", "180953.157000", "180953.159000", "180953.162000", "180953.184000", "180953.187000", "180953.189000", "180953.192000", "180953.194000", "180953.197000", "180953.199000", "180953.202000", "180957.433000", "180957.436000", "180957.438000", "180957.441000"],
      "InstanceCreationTime": ["180233.084000", "180233.087000", "180233.090000", "180233.092000", "180233.095000", "180233.097000", "180233.100000", "180233.102000", "180233.116000", "180233.119000", "180233.122000", "180233.124000", "180233.131000", "180233.134000", "180233.136000", "180233.139000", "180233.142000", "180233.144000", "180233.147000", "180233.149000", "180233.152000", "180313.079000", "180313.081000", "180313.084000", "180313.086000", "180313.089000", "180313.092000", "180313.094000", "180313.097000", "180313.099000", "180313.102000", "180313.104000", "180313.107000", "180313.109000", "180313.112000", "180313.114000", "180313.117000", "180313.119000", "180313.122000", "180313.125000", "180313.127000", "180313.130000", "180313.132000", "180313.135000", "180313.137000", "180313.140000", "180313.143000", "180313.146000", "180313.148000", "180313.151000", "180313.153000", "180313.156000", "180313.159000", "180313.161000", "180313.164000", "180353.078000", "180353.081000", "180353.084000", "180353.086000", "180353.089000", "180353.091000", "180353.094000", "180353.097000", "180353.099000", "180353.102000", "180353.105000", "180353.107000", "180353.110000", "180353.112000", "180353.115000", "180353.118000", "180353.120000", "180353.123000", "180353.125000", "180353.128000", "180353.130000", "180353.136000", "180353.139000", "180353.142000", "180353.144000", "180353.147000", "180353.149000", "180353.152000", "180353.155000", "180353.157000", "180353.160000", "180353.162000", "180353.165000", "180433.080000", "180433.082000", "180433.085000", "180433.087000", "180433.090000", "180433.093000", "180433.095000", "180433.098000", "180433.100000", "180433.103000", "180433.105000", "180433.112000", "180433.115000", "180433.118000", "180433.120000", "180433.123000", "180433.125000", "180433.128000", "180433.130000", "180433.133000", "180433.136000", "180433.138000", "180433.141000", "180433.143000", "180433.146000", "180433.148000", "180433.151000", "180433.153000", "180433.156000", "180433.158000", "180433.161000", "180433.164000", "180433.166000", "180513.079000", "180513.081000", "180513.084000", "180513.087000", "180513.089000", "180513.092000", "180513.094000", "180513.097000", "180513.099000", "180513.102000", "180513.105000", "180513.107000", "180513.110000", "180513.112000", "180513.115000", "180513.117000", "180513.120000", "180513.122000", "180513.125000", "180513.128000", "180513.130000", "180513.133000", "180513.135000", "180513.138000", "180513.141000", "180513.143000", "180513.146000", "180513.148000", "180513.151000", "180513.153000", "180513.156000", "180513.158000", "180513.161000", "180513.163000", "180553.078000", "180553.081000", "180553.084000", "180553.087000", "180553.089000", "180553.092000", "180553.094000", "180553.097000", "180553.099000", "180553.102000", "180553.104000", "180553.107000", "180553.109000", "180553.112000", "180553.114000", "180553.117000", "180553.120000", "180553.122000", "180553.125000", "180553.127000", "180553.130000", "180553.132000", "180553.135000", "180553.138000", "180553.146000", "180553.149000", "180553.151000", "180553.154000", "180553.157000", "180553.159000", "180553.162000", "180553.164000", "180553.167000", "180633.079000", "180633.081000", "180633.084000", "180633.087000", "180633.089000", "180633.092000", "180633.094000", "180633.097000", "180633.115000", "180633.118000", "180633.120000", "180633.123000", "180633.126000", "180633.128000", "180633.131000", "180633.133000", "180633.136000", "180633.138000", "180633.144000", "180633.147000", "180633.149000", "180633.152000", "180633.155000", "180633.157000", "180633.160000", "180633.162000", "180633.165000", "180633.168000", "180633.170000", "180633.173000", "180633.175000", "180633.178000", "180633.181000", "180713.080000", "180713.083000", "180713.085000", "180713.088000", "180713.090000", "180713.093000", "180713.096000", "180713.098000", "180713.101000", "180713.103000", "180713.106000", "180713.113000", "180713.115000", "180713.118000", "180713.120000", "180713.123000", "180713.126000", "180713.128000", "180713.131000", "180713.134000", "180713.136000", "180713.139000", "180713.141000", "180713.144000", "180713.147000", "180713.150000", "180713.152000", "180713.155000", "180713.158000", "180713.160000", "180713.163000", "180713.165000", "180713.168000", "180713.171000", "180753.079000", "180753.081000", "180753.084000", "180753.087000", "180753.089000", "180753.092000", "180753.094000", "180753.097000", "180753.100000", "180753.102000", "180753.105000", "180753.107000", "180753.110000", "180753.113000", "180753.115000", "180753.118000", "180753.121000", "180753.123000", "180753.126000", "180753.128000", "180753.131000", "180753.134000", "180753.136000", "180753.139000", "180753.141000", "180753.144000", "180753.146000", "180753.149000", "180753.152000", "180753.154000", "180753.157000", "180753.159000", "180753.162000", "180833.079000", "180833.082000", "180833.084000", "180833.087000", "180833.089000", "180833.092000", "180833.095000", "180833.097000", "180833.100000", "180833.102000", "180833.105000", "180833.107000", "180833.114000", "180833.116000", "180833.119000", "180833.122000", "180833.124000", "180833.127000", "180833.129000", "180833.132000", "180833.134000", "180833.137000", "180833.140000", "180833.142000", "180833.149000", "180833.151000", "180833.154000", "180833.157000", "180833.159000", "180833.162000", "180833.165000", "180833.167000", "180833.170000", "180913.079000", "180913.082000", "180913.085000", "180913.088000", "180913.090000", "180913.097000", "180913.100000", "180913.103000", "180913.106000", "180913.108000", "180913.111000", "180913.114000", "180913.116000", "180913.119000", "180913.121000", "180913.124000", "180913.127000", "180913.129000", "180913.132000", "180913.135000", "180913.138000", "180913.141000", "180913.143000", "180913.146000", "180913.148000", "180913.151000", "180913.153000", "180913.156000", "180913.159000", "180913.161000", "180913.164000", "180913.166000", "180913.169000", "180913.172000", "180953.079000", "180953.081000", "180953.084000", "180953.087000", "180953.089000", "180953.092000", "180953.094000", "180953.097000", "180953.099000", "180953.102000", "180953.104000", "180953.107000", "180953.110000", "180953.112000", "180953.115000", "180953.117000", "180953.120000", "180953.123000", "180953.125000", "180953.128000", "180953.130000", "180953.154000", "180953.157000", "180953.159000", "180953.162000", "180953.184000", "180953.187000", "180953.189000", "180953.192000", "180953.194000", "180953.197000", "180953.199000", "180953.202000", "180957.433000", "180957.436000", "180957.438000", "180957.441000"],
      "InstanceNumber": [1, 2, 3, 4, 5, 6, 7, 8, 9, 10, 11, 12, 13, 14, 15, 16, 17, 18, 19, 20, 21, 22, 23, 24, 25, 26, 27, 28, 29, 30, 31, 32, 33, 34, 35, 36, 37, 38, 39, 40, 41, 42, 43, 44, 45, 46, 47, 48, 49, 50, 51, 52, 53, 54, 55, 56, 57, 58, 59, 60, 61, 62, 63, 64, 65, 66, 67, 68, 69, 70, 71, 72, 73, 74, 75, 76, 77, 78, 79, 80, 81, 82, 83, 84, 85, 86, 87, 88, 89, 90, 91, 92, 93, 94, 95, 96, 97, 98, 99, 100, 101, 102, 103, 104, 105, 106, 107, 108, 109, 110, 111, 112, 113, 114, 115, 116, 117, 118, 119, 120, 121, 122, 123, 124, 125, 126, 127, 128, 129, 130, 131, 132, 133, 134, 135, 136, 137, 138, 139, 140, 141, 142, 143, 144, 145, 146, 147, 148, 149, 150, 151, 152, 153, 154, 155, 156, 157, 158, 159, 160, 161, 162, 163, 164, 165, 166, 167, 168, 169, 170, 171, 172, 173, 174, 175, 176, 177, 178, 179, 180, 181, 182, 183, 184, 185, 186, 187, 188, 189, 190, 191, 192, 193, 194, 195, 196, 197, 198, 199, 200, 201, 202, 203, 204, 205, 206, 207, 208, 209, 210, 211, 212, 213, 214, 215, 216, 217, 218, 219, 220, 221, 222, 223, 224, 225, 226, 227, 228, 229, 230, 231, 232, 233, 234, 235, 236, 237, 238, 239, 240, 241, 242, 243, 244, 245, 246, 247, 248, 249, 250, 251, 252, 253, 254, 255, 256, 257, 258, 259, 260, 261, 262, 263, 264, 265, 266, 267, 268, 269, 270, 271, 272, 273, 274, 275, 276, 277, 278, 279, 280, 281, 282, 283, 284, 285, 286, 287, 288, 289, 290, 291, 292, 293, 294, 295, 296, 297, 298, 299, 300, 301, 302, 303, 304, 305, 306, 307, 308, 309, 310, 311, 312, 313, 314, 315, 316, 317, 318, 319, 320, 321, 322, 323, 324, 325, 326, 327, 328, 329, 330, 331, 332, 333, 334, 335, 336, 337, 338, 339, 340, 341, 342, 343, 344, 345, 346, 347, 348, 349, 350, 351, 352, 353, 354, 355, 356, 357, 358, 359, 360, 361, 362, 363, 364, 365, 366, 367, 368, 369, 370, 371, 372, 373, 374, 375, 376, 377, 378, 379, 380, 381, 382, 383, 384, 385, 386, 387, 388, 389, 390, 391, 392],
