{
  "AcquisitionMatrixPE": 88,
  "AcquisitionNumber": 1,
  "AcquisitionTime": "17:46:39.485000",
  "BandwidthPerPixelPhaseEncode": 19.592,
  "BaseResolution": 88,
  "BodyPartExamined": "BRAIN",
  "ConsistencyInfo": "N4_VE11C_LATEST_20160120",
  "ConversionSoftware": "dcm2niix",
  "ConversionSoftwareVersion": "v1.0.20190902",
  "DerivedVendorReportedEchoSpacing": 0.000580014,
  "DeviceSerialNumber": "67050",
  "DwellTime": 2.6e-06,
  "EchoTime": 0.033,
  "EchoTrainLength": 88,
  "EffectiveEchoSpacing": 0.000580014,
  "FlipAngle": 62,
  "ImageOrientationPatientDICOM": [0.9985, 0.0543661, 0.00641502, -0.0546012, 0.997484, 0.0452209],
  "ImageType": [
    "ORIGINAL",
    "PRIMARY",
    "M",
    "ND",
    "MOSAIC"
],
  "ImagingFrequency": 123.251,
  "InPlanePhaseEncodingDirectionDICOM": "COL",
  "InstitutionAddress": "Olive_Street_60_Providence_RI_US_02912",
  "InstitutionName": "BROWN_UNIVERSITY_MRF",
  "InstitutionalDepartmentName": "Department",
  "MRAcquisitionType": "2D",
  "MagneticFieldStrength": 3,
  "Manufacturer": "Siemens",
  "ManufacturersModelName": "Prisma_fit",
  "Modality": "MR",
  "MultibandAccelerationFactor": 4,
  "PartialFourier": 1,
  "PatientPosition": "HFS",
  "PercentPhaseFOV": 100,
  "PhaseEncodingDirection": "j-",
  "PhaseEncodingSteps": 88,
  "PhaseResolution": 1,
  "PixelBandwidth": 2185,
  "ProcedureStepDescription": "ASHENHAV_1222",
  "ProtocolName": "func-bold_task-RDMmotion_run-01",
  "PulseSequenceDetails": "%SiemensSeq%_ep2d_bold",
  "ReceiveCoilActiveElements": "HC3-7;NC1",
  "ReceiveCoilName": "HeadNeck_64",
  "ReconMatrixPE": 88,
  "RefLinesPE": 8,
  "RepetitionTime": 1.2,
  "SAR": 0.0452555,
  "ScanOptions": "FS",
  "ScanningSequence": "EP",
  "SequenceName": "_epfid2d1_88",
  "SequenceVariant": "SK",
  "SeriesDescription": "func-bold_task-RDMmotion_run-01",
  "SeriesNumber": 7,
  "ShimSetting": [1757, -9231, 4402, 858, -28, -297, 415, -38],
  "SliceThickness": 2.4,
  "SliceTiming": [0.5525, 0, 0.63, 0.08, 0.7075, 0.1575, 0.7875, 0.2375, 0.865, 0.315, 0.945, 0.395, 1.0225, 0.4725, 1.1025, 0.5525, 0, 0.63, 0.08, 0.7075, 0.1575, 0.7875, 0.2375, 0.865, 0.315, 0.945, 0.395, 1.0225, 0.4725, 1.1025, 0.5525, 0, 0.63, 0.08, 0.7075, 0.1575, 0.7875, 0.2375, 0.865, 0.315, 0.945, 0.395, 1.0225, 0.4725, 1.1025, 0.5525, 0, 0.63, 0.08, 0.7075, 0.1575, 0.7875, 0.2375, 0.865, 0.315, 0.945, 0.395, 1.0225, 0.4725, 1.1025],
  "SoftwareVersions": "syngo_MR_E11",
  "SpacingBetweenSlices": 2.4,
  "StationName": "AWP67050",
  "TaskName": "RDMmotion",
  "TotalReadoutTime": 0.0504612,
  "TxRefAmp": 220.458,
  "dcmmeta_affine": [
    [-2.394131660461426, -0.13091884553432465, 0.009456954896450043, 113.38870239257812],
    [-0.13035497069358826, 2.3916938304901123, 0.10920804738998413, -99.42579650878906],
    [0.015381471253931522, -0.10842736810445786, 2.3974955081939697, -69.23463439941406],
    [0.0, 0.0, 0.0, 1.0]
],
  "dcmmeta_reorient_transform": [
    [0.0, -1.0, 0.0, 87.0],
    [1.0, 0.0, 0.0, 0.0],
    [0.0, 0.0, 1.0, 0.0],
    [0.0, 0.0, 0.0, 1.0]
],
  "dcmmeta_shape": [88, 88, 60, 125],
  "dcmmeta_slice_dim": 2,
  "dcmmeta_version": 0.6,
  "global": {
    "const": {
      "AcquisitionMatrix": [88, 0, 0, 88],
      "AngioFlag": "N",
      "BitsAllocated": 16,
      "BitsStored": 12,
      "BodyPartExamined": "BRAIN",
      "Columns": 704,
      "DeidentificationMethodCodeSequence": [
        {
          "CodeMeaning": "XNAT DicomEdit 6 Script",
          "CodeValue": "3",
          "CodingSchemeDesignator": "XNAT",
          "CodingSchemeVersion": "1.0"}
],
      "EchoNumbers": 1,
      "EchoTime": 33.0,
      "EchoTrainLength": 88,
      "FlipAngle": 62.0,
      "HighBit": 11,
      "ImageOrientationPatient": [0.99850046546106, 0.05436605537179, 0.00641502122779, -0.0546012247166, 0.9974837226786, 0.04522089396158],
      "ImagePositionPatient": [-799.06834590972, -885.44262855206, -116.80094212842],
      "ImageType": [
        "ORIGINAL",
        "PRIMARY",
        "M",
        "ND",
        "MOSAIC"
],
      "ImagedNucleus": "1H",
      "ImagingFrequency": 123.250782,
      "InPlanePhaseEncodingDirection": "COL",
      "MRAcquisitionType": "2D",
      "MagneticFieldStrength": 3.0,
      "Manufacturer": "SIEMENS",
      "ManufacturerModelName": "Prisma_fit",
      "Modality": "MR",
      "NumberOfAverages": 1.0,
      "NumberOfPhaseEncodingSteps": 88,
      "PercentPhaseFieldOfView": 100.0,
      "PercentSampling": 100.0,
      "PerformedProcedureStepStartTime": "172520.650000",
      "PhotometricInterpretation": "MONOCHROME2",
      "PixelBandwidth": 2185.0,
      "PixelRepresentation": 0,
      "PixelSpacing": [2.3977272510529, 2.3977272510529],
      "ProtocolName": "func-bold_task-RDMmotion_run-01",
      "RepetitionTime": 1200.0,
      "Rows": 704,
      "SAR": 0.04525553757627,
      "SamplesPerPixel": 1,
      "ScanOptions": "FS",
      "ScanningSequence": "EP",
      "SequenceName": "*epfid2d1_88",
      "SequenceVariant": "SK",
      "SeriesDescription": "func-bold_task-RDMmotion_run-01",
      "SeriesNumber": 7,
      "SeriesTime": "174713.079000",
      "SliceLocation": -73.239796029028,
      "SliceThickness": 2.4000000953674,
      "SmallestImagePixelValue": 0,
      "SoftwareVersions": "syngo MR E11",
      "SpacingBetweenSlices": 2.4000000683899,
      "SpecificCharacterSet": "ISO_IR 100",
      "StudyID": "1",
      "StudyTime": "172520.512000",
      "TransmitCoilName": "Body",
      "VariableFlipAngleFlag": "N",
      "WindowCenterWidthExplanation": "Algo1",
      "dBdt": 0.0},
    "slices": {}
  },
  "time": {
    "samples": {
      "AcquisitionNumber": [1, 2, 3, 4, 5, 6, 7, 8, 9, 10, 11, 12, 13, 14, 15, 16, 17, 18, 19, 20, 21, 22, 23, 24, 25, 26, 27, 28, 29, 30, 31, 32, 33, 34, 35, 36, 37, 38, 39, 40, 41, 42, 43, 44, 45, 46, 47, 48, 49, 50, 51, 52, 53, 54, 55, 56, 57, 58, 59, 60, 61, 62, 63, 64, 65, 66, 67, 68, 69, 70, 71, 72, 73, 74, 75, 76, 77, 78, 79, 80, 81, 82, 83, 84, 85, 86, 87, 88, 89, 90, 91, 92, 93, 94, 95, 96, 97, 98, 99, 100, 101, 102, 103, 104, 105, 106, 107, 108, 109, 110, 111, 112, 113, 114, 115, 116, 117, 118, 119, 120, 121, 122, 123, 124, 125],
      "AcquisitionTime": ["174639.485000", "174640.685000", "174641.885000", "174643.085000", "174644.285000", "174645.485000", "174646.685000", "174647.885000", "174649.085000", "174650.285000", "174651.485000", "174652.685000", "174653.885000", "174655.085000", "174656.285000", "174657.485000", "174658.685000", "174659.885000", "174701.085000", "174702.285000", "174703.485000", "174704.685000", "174705.885000", "174707.085000", "174708.285000", "174709.485000", "174710.685000", "174711.885000", "174713.085000", "174714.285000", "174715.485000", "174716.685000", "174717.885000", "174719.085000", "174720.285000", "174721.485000", "174722.685000", "174723.885000", "174725.085000", "174726.285000", "174727.485000", "174728.685000", "174729.885000", "174731.085000", "174732.285000", "174733.485000", "174734.685000", "174735.885000", "174737.085000", "174738.285000", "174739.485000", "174740.685000", "174741.885000", "174743.085000", "174744.285000", "174745.485000", "174746.685000", "174747.885000", "174749.085000", "174750.285000", "174751.485000", "174752.685000", "174753.885000", "174755.085000", "174756.285000", "174757.485000", "174758.685000", "174759.885000", "174801.085000", "174802.285000", "174803.485000", "174804.685000", "174805.885000", "174807.085000", "174808.285000", "174809.485000", "174810.685000", "174811.885000", "174813.085000", "174814.285000", "174815.485000", "174816.685000", "174817.885000", "174819.085000", "174820.285000", "174821.485000", "174822.685000", "174823.885000", "174825.085000", "174826.285000", "174827.485000", "174828.685000", "174829.885000", "174831.085000", "174832.285000", "174833.485000", "174834.685000", "174835.885000", "174837.085000", "174838.285000", "174839.485000", "174840.685000", "174841.885000", "174843.085000", "174844.285000", "174845.485000", "174846.685000", "174847.885000", "174849.085000", "174850.285000", "174851.485000", "174852.685000", "174853.885000", "174855.085000", "174856.285000", "174857.485000", "174858.685000", "174859.885000", "174901.085000", "174902.285000", "174903.485000", "174904.685000", "174905.885000", "174907.085000", "174908.285000"],
      "ContentTime": ["174713.083000", "174713.099000", "174713.101000", "174713.104000", "174713.107000", "174713.110000", "174713.112000", "174713.118000", "174713.121000", "174713.123000", "174713.126000", "174713.128000", "174713.131000", "174713.134000", "174713.136000", "174713.139000", "174713.141000", "174713.144000", "174713.148000", "174713.150000", "174713.153000", "174713.156000", "174713.158000", "174713.161000", "174713.163000", "174713.166000", "174713.168000", "174733.078000", "174733.081000", "174733.084000", "174733.086000", "174733.089000", "174733.092000", "174733.094000", "174733.097000", "174733.099000", "174733.102000", "174733.105000", "174733.107000", "174733.110000", "174733.112000", "174733.115000", "174733.117000", "174733.120000", "174813.079000", "174813.081000", "174813.084000", "174813.086000", "174813.089000", "174813.092000", "174813.094000", "174813.097000", "174813.107000", "174813.109000", "174813.112000", "174813.114000", "174813.117000", "174813.119000", "174813.122000", "174813.124000", "174813.127000", "174813.130000", "174813.132000", "174813.135000", "174813.137000", "174813.140000", "174813.142000", "174813.145000", "174813.148000", "174813.151000", "174813.153000", "174813.156000", "174813.158000", "174813.161000", "174813.170000", "174813.172000", "174813.175000", "174853.078000", "174853.081000", "174853.084000", "174853.086000", "174853.089000", "174853.092000", "174853.094000", "174853.097000", "174853.100000", "174853.102000", "174853.105000", "174853.108000", "174853.110000", "174853.113000", "174853.115000", "174853.126000", "174853.129000", "174853.132000", "174853.135000", "174853.137000", "174853.140000", "174853.143000", "174853.145000", "174853.148000", "174853.151000", "174853.154000", "174853.157000", "174853.181000", "174853.183000", "174853.186000", "174853.188000", "174853.191000", "174853.201000", "174909.959000", "174909.962000", "174909.972000", "174909.975000", "174909.977000", "174909.980000", "174909.982000", "174909.985000", "174909.988000", "174909.990000", "174909.993000", "174909.996000", "174909.998000", "174910.002000", "174910.005000"],
      "InstanceCreationTime": ["174713.083000", "174713.099000", "174713.101000", "174713.104000", "174713.107000", "174713.110000", "174713.112000", "174713.118000", "174713.121000", "174713.123000", "174713.126000", "174713.128000", "174713.131000", "174713.134000", "174713.136000", "174713.139000", "174713.141000", "174713.144000", "174713.148000", "174713.150000", "174713.153000", "174713.156000", "174713.158000", "174713.161000", "174713.163000", "174713.166000", "174713.168000", "174733.078000", "174733.081000", "174733.084000", "174733.086000", "174733.089000", "174733.092000", "174733.094000", "174733.097000", "174733.099000", "174733.102000", "174733.105000", "174733.107000", "174733.110000", "174733.112000", "174733.115000", "174733.117000", "174733.120000", "174813.079000", "174813.081000", "174813.084000", "174813.086000", "174813.089000", "174813.092000", "174813.094000", "174813.097000", "174813.107000", "174813.109000", "174813.112000", "174813.114000", "174813.117000", "174813.119000", "174813.122000", "174813.124000", "174813.127000", "174813.130000", "174813.132000", "174813.135000", "174813.137000", "174813.140000", "174813.142000", "174813.145000", "174813.148000", "174813.151000", "174813.153000", "174813.156000", "174813.158000", "174813.161000", "174813.170000", "174813.172000", "174813.175000", "174853.078000", "174853.081000", "174853.084000", "174853.086000", "174853.089000", "174853.092000", "174853.094000", "174853.097000", "174853.100000", "174853.102000", "174853.105000", "174853.108000", "174853.110000", "174853.113000", "174853.115000", "174853.126000", "174853.129000", "174853.132000", "174853.135000", "174853.137000", "174853.140000", "174853.143000", "174853.145000", "174853.148000", "174853.151000", "174853.154000", "174853.157000", "174853.181000", "174853.183000", "174853.186000", "174853.188000", "174853.191000", "174853.201000", "174909.959000", "174909.962000", "174909.972000", "174909.975000", "174909.977000", "174909.980000", "174909.982000", "174909.985000", "174909.988000", "174909.990000", "174909.993000", "174909.996000", "174909.998000", "174910.002000", "174910.005000"],
      "InstanceNumber": [1, 2, 3, 4, 5, 6, 7, 8, 9, 10, 11, 12, 13, 14, 15, 16, 17, 18, 19, 20, 21, 22, 23, 24, 25, 26, 27, 28, 29, 30, 31, 32, 33, 34, 35, 36, 37, 38, 39, 40, 41, 42, 43, 44, 45, 46, 47, 48, 49, 50, 51, 52, 53, 54, 55, 56, 57, 58, 59, 60, 61, 62, 63, 64, 65, 66, 67, 68, 69, 70, 71, 72, 73, 74, 75, 76, 77, 78, 79, 80, 81, 82, 83, 84, 85, 86, 87, 88, 89, 90, 91, 92, 93, 94, 95, 96, 97, 98, 99, 100, 101, 102, 103, 104, 105, 106, 107, 108, 109, 110, 111, 112, 113, 114, 115, 116, 117, 118, 119, 120, 121, 122, 123, 124, 125],
      "LargestImagePixelValue": [2050, 2041, 2043, 2074, 2058, 2068, 2058, 2092, 2060, 2056, 2118, 2039, 2092, 2090, 2078, 2092, 2070, 2083, 2037, 2063, 2064, 2004, 2088, 2039, 2062, 2075, 2079, 2068, 2039, 2075, 2041, 2048, 2079, 2061, 2075, 2045, 2087, 2047, 2047, 2057, 2065, 2050, 2058, 2035, 2069, 2067, 2071, 2074, 2055, 2050, 2101, 2025, 2072, 2118, 2071, 2092, 2065, 2105, 2082, 2041, 2076, 2058, 2094, 2045, 2041, 2057, 2062, 2103, 2046, 2041, 2093, 2062, 2066, 2034, 2075, 2092, 2026, 2074, 2028, 2088, 2040, 2043, 2079, 2048, 2081, 2019, 2082, 2031, 2024, 2075, 2052, 2072, 2032, 2078, 2048, 2035, 2062, 2072, 2066, 2068, 2038, 2087, 2033, 2056, 2062, 2077, 2071, 2036, 2043, 2070, 2010, 2062, 2056, 2053, 2076, 2016, 2080, 2027, 2033, 2022, 2019, 2062, 2010, 2027, 2040],
      "WindowCenter": [582.0, 580.0, 579.0, 579.0, 579.0, 580.0, 579.0, 580.0, 579.0, 579.0, 580.0, 579.0, 580.0, 579.0, 579.0, 579.0, 578.0, 578.0, 577.0, 578.0, 578.0, 577.0, 579.0, 578.0, 579.0, 579.0, 578.0, 578.0, 577.0, 579.0, 578.0, 578.0, 579.0, 578.0, 579.0, 578.0, 578.0, 578.0, 578.0, 578.0, 578.0, 578.0, 579.0, 578.0, 578.0, 578.0, 578.0, 578.0, 577.0, 578.0, 580.0, 579.0, 579.0, 580.0, 579.0, 580.0, 578.0, 579.0, 578.0, 578.0, 579.0, 579.0, 579.0, 578.0, 577.0, 578.0, 578.0, 579.0, 578.0, 578.0, 579.0, 578.0, 578.0, 578.0, 578.0, 578.0, 577.0, 578.0, 578.0, 579.0, 578.0, 578.0, 578.0, 577.0, 578.0, 577.0, 578.0, 577.0, 577.0, 578.0, 578.0, 578.0, 576.0, 578.0, 576.0, 577.0, 578.0, 579.0, 579.0, 578.0, 577.0, 578.0, 577.0, 578.0, 578.0, 578.0, 578.0, 577.0, 577.0, 577.0, 577.0, 578.0, 578.0, 578.0, 578.0, 577.0, 578.0, 577.0, 577.0, 577.0, 578.0, 579.0, 577.0, 578.0, 578.0],
      "WindowWidth": [1246.0, 1242.0, 1239.0, 1241.0, 1239.0, 1241.0, 1241.0, 1241.0, 1240.0, 1240.0, 1241.0, 1239.0, 1241.0, 1241.0, 1241.0, 1240.0, 1238.0, 1238.0, 1235.0, 1237.0, 1238.0, 1236.0, 1240.0, 1239.0, 1240.0, 1239.0, 1238.0, 1238.0, 1237.0, 1239.0, 1237.0, 1238.0, 1239.0, 1239.0, 1240.0, 1238.0, 1238.0, 1237.0, 1237.0, 1238.0, 1237.0, 1239.0, 1240.0, 1238.0, 1237.0, 1237.0, 1237.0, 1238.0, 1236.0, 1238.0, 1241.0, 1240.0, 1241.0, 1241.0, 1240.0, 1241.0, 1239.0, 1240.0, 1238.0, 1238.0, 1240.0, 1239.0, 1239.0, 1237.0, 1237.0, 1238.0, 1238.0, 1240.0, 1238.0, 1238.0, 1239.0, 1238.0, 1238.0, 1237.0, 1239.0, 1238.0, 1236.0, 1238.0, 1237.0, 1239.0, 1237.0, 1238.0, 1238.0, 1235.0, 1237.0, 1235.0, 1238.0, 1236.0, 1236.0, 1238.0, 1237.0, 1238.0, 1235.0, 1237.0, 1235.0, 1236.0, 1239.0, 1240.0, 1239.0, 1237.0, 1236.0, 1237.0, 1236.0, 1237.0, 1238.0, 1238.0, 1238.0, 1235.0, 1236.0, 1236.0, 1235.0, 1237.0, 1238.0, 1238.0, 1237.0, 1236.0, 1237.0, 1235.0, 1235.0, 1235.0, 1237.0, 1240.0, 1237.0, 1237.0, 1237.0]
    },
    "slices": {}
  }
}