{
  "AcquisitionMatrixPE": 88,
  "AcquisitionNumber": 1,
  "AcquisitionTime": "18:51:48.902500",
  "BandwidthPerPixelPhaseEncode": 19.592,
  "BaseResolution": 88,
  "BodyPartExamined": "BRAIN",
  "ConsistencyInfo": "N4_VE11C_LATEST_20160120",
  "ConversionSoftware": "dcm2niix",
  "ConversionSoftwareVersion": "v1.0.20190902",
  "DerivedVendorReportedEchoSpacing": 0.000580014,
  "DeviceSerialNumber": "67050",
  "DwellTime": 2.6e-06,
  "EchoTime": 0.033,
  "EchoTrainLength": 88,
  "EffectiveEchoSpacing": 0.000580014,
  "FlipAngle": 62,
  "ImageOrientationPatientDICOM": [0.996382, 0.024145, 0.0814807, -0.025047, 0.999636, 0.0100668],
  "ImageType": [
    "ORIGINAL",
    "PRIMARY",
    "M",
    "ND",
    "MOSAIC"
],
  "ImagingFrequency": 123.251,
  "InPlanePhaseEncodingDirectionDICOM": "COL",
  "InstitutionAddress": "Olive_Street_60_Providence_RI_US_02912",
  "InstitutionName": "BROWN_UNIVERSITY_MRF",
  "InstitutionalDepartmentName": "Department",
  "MRAcquisitionType": "2D",
  "MagneticFieldStrength": 3,
  "Manufacturer": "Siemens",
  "ManufacturersModelName": "Prisma_fit",
  "Modality": "MR",
  "MultibandAccelerationFactor": 4,
  "PartialFourier": 1,
  "PatientPosition": "HFS",
  "PercentPhaseFOV": 100,
  "PhaseEncodingDirection": "j-",
  "PhaseEncodingSteps": 88,
  "PhaseResolution": 1,
  "PixelBandwidth": 2185,
  "ProcedureStepDescription": "ASHENHAV_1222",
  "ProtocolName": "func-bold_task-RDMmotion_run-06",
  "PulseSequenceDetails": "%SiemensSeq%_ep2d_bold",
  "ReceiveCoilActiveElements": "HC1-7",
  "ReceiveCoilName": "HeadNeck_64",
  "ReconMatrixPE": 88,
  "RefLinesPE": 8,
  "RepetitionTime": 1.2,
  "SAR": 0.0506113,
  "ScanOptions": "FS",
  "ScanningSequence": "EP",
  "SequenceName": "_epfid2d1_88",
  "SequenceVariant": "SK",
  "SeriesDescription": "func-bold_task-RDMmotion_run-06",
  "SeriesNumber": 21,
  "ShimSetting": [1774, -9240, 4498, 838, -31, -212, 397, -16],
  "SliceThickness": 2.4,
  "SliceTiming": [0.5525, 0, 0.63, 0.08, 0.7075, 0.1575, 0.7875, 0.2375, 0.865, 0.315, 0.945, 0.395, 1.0225, 0.4725, 1.1025, 0.5525, 0, 0.63, 0.08, 0.7075, 0.1575, 0.7875, 0.2375, 0.865, 0.315, 0.945, 0.395, 1.0225, 0.4725, 1.1025, 0.5525, 0, 0.63, 0.08, 0.7075, 0.1575, 0.7875, 0.2375, 0.865, 0.315, 0.945, 0.395, 1.0225, 0.4725, 1.1025, 0.5525, 0, 0.63, 0.08, 0.7075, 0.1575, 0.7875, 0.2375, 0.865, 0.315, 0.945, 0.395, 1.0225, 0.4725, 1.1025],
  "SoftwareVersions": "syngo_MR_E11",
  "SpacingBetweenSlices": 2.4,
  "StationName": "AWP67050",
  "TaskName": "RDMmotion",
  "TotalReadoutTime": 0.0504612,
  "TxRefAmp": 226.3,
  "dcmmeta_affine": [
    [-2.3890533447265625, -0.0600559338927269, 0.19489902257919312, 105.02003479003906],
    [-0.057893045246601105, 2.396853446960449, 0.028970886021852493, -102.66082763671875],
    [0.1953684538602829, -0.02413737215101719, 2.3918979167938232, -58.215431213378906],
    [0.0, 0.0, 0.0, 1.0]
],
  "dcmmeta_reorient_transform": [
    [0.0, -1.0, 0.0, 87.0],
    [1.0, 0.0, 0.0, 0.0],
    [0.0, 0.0, 1.0, 0.0],
    [0.0, 0.0, 0.0, 1.0]
],
  "dcmmeta_shape": [88, 88, 60, 125],
  "dcmmeta_slice_dim": 2,
  "dcmmeta_version": 0.6,
  "global": {
    "const": {
      "AcquisitionMatrix": [88, 0, 0, 88],
      "AngioFlag": "N",
      "BitsAllocated": 16,
      "BitsStored": 12,
      "BodyPartExamined": "BRAIN",
      "Columns": 704,
      "DeidentificationMethodCodeSequence": [
        {
          "CodeMeaning": "XNAT DicomEdit 6 Script",
          "CodeValue": "3",
          "CodingSchemeDesignator": "XNAT",
          "CodingSchemeVersion": "1.0"}
],
      "EchoNumbers": 1,
      "EchoTime": 33.0,
      "EchoTrainLength": 88,
      "FlipAngle": 62.0,
      "HighBit": 11,
      "ImageOrientationPatient": [0.99638241623635, 0.02414496633243, 0.08148068001568, -0.0250470246779, 0.99963558693605, 0.01006677136999],
      "ImagePositionPatient": [-817.12634774217, -861.92735678258, -127.92317565142],
      "ImageType": [
        "ORIGINAL",
        "PRIMARY",
        "M",
        "ND",
        "MOSAIC"
],
      "ImagedNucleus": "1H",
      "ImagingFrequency": 123.250756,
      "InPlanePhaseEncodingDirection": "COL",
      "MRAcquisitionType": "2D",
      "MagneticFieldStrength": 3.0,
      "Manufacturer": "SIEMENS",
      "ManufacturerModelName": "Prisma_fit",
      "Modality": "MR",
      "NumberOfAverages": 1.0,
      "NumberOfPhaseEncodingSteps": 88,
      "PercentPhaseFieldOfView": 100.0,
      "PercentSampling": 100.0,
      "PerformedProcedureStepStartTime": "172520.650000",
      "PhotometricInterpretation": "MONOCHROME2",
      "PixelBandwidth": 2185.0,
      "PixelRepresentation": 0,
      "PixelSpacing": [2.3977272510529, 2.3977272510529],
      "ProtocolName": "func-bold_task-RDMmotion_run-06",
      "RepetitionTime": 1200.0,
      "Rows": 704,
      "SAR": 0.05061127805868,
      "SamplesPerPixel": 1,
      "ScanOptions": "FS",
      "ScanningSequence": "EP",
      "SequenceName": "*epfid2d1_88",
      "SequenceVariant": "SK",
      "SeriesDescription": "func-bold_task-RDMmotion_run-06",
      "SeriesNumber": 21,
      "SeriesTime": "185221.536000",
      "SliceLocation": -50.729682039208,
      "SliceThickness": 2.4000000953674,
      "SmallestImagePixelValue": 0,
      "SoftwareVersions": "syngo MR E11",
      "SpacingBetweenSlices": 2.4000000213756,
      "SpecificCharacterSet": "ISO_IR 100",
      "StudyID": "1",
      "StudyTime": "172520.512000",
      "TransmitCoilName": "Body",
      "VariableFlipAngleFlag": "N",
      "WindowCenterWidthExplanation": "Algo1",
      "dBdt": 0.0},
    "slices": {}
  },
  "time": {
    "samples": {
      "AcquisitionNumber": [1, 2, 3, 4, 5, 6, 7, 8, 9, 10, 11, 12, 13, 14, 15, 16, 17, 18, 19, 20, 21, 22, 23, 24, 25, 26, 27, 28, 29, 30, 31, 32, 33, 34, 35, 36, 37, 38, 39, 40, 41, 42, 43, 44, 45, 46, 47, 48, 49, 50, 51, 52, 53, 54, 55, 56, 57, 58, 59, 60, 61, 62, 63, 64, 65, 66, 67, 68, 69, 70, 71, 72, 73, 74, 75, 76, 77, 78, 79, 80, 81, 82, 83, 84, 85, 86, 87, 88, 89, 90, 91, 92, 93, 94, 95, 96, 97, 98, 99, 100, 101, 102, 103, 104, 105, 106, 107, 108, 109, 110, 111, 112, 113, 114, 115, 116, 117, 118, 119, 120, 121, 122, 123, 124, 125],
      "AcquisitionTime": ["185148.902500", "185150.102500", "185151.302500", "185152.502500", "185153.702500", "185154.902500", "185156.102500", "185157.302500", "185158.502500", "185159.702500", "185200.902500", "185202.102500", "185203.302500", "185204.502500", "185205.702500", "185206.902500", "185208.102500", "185209.302500", "185210.502500", "185211.702500", "185212.902500", "185214.102500", "185215.302500", "185216.502500", "185217.702500", "185218.902500", "185220.102500", "185221.302500", "185222.502500", "185223.702500", "185224.902500", "185226.102500", "185227.302500", "185228.502500", "185229.702500", "185230.902500", "185232.102500", "185233.302500", "185234.502500", "185235.702500", "185236.902500", "185238.102500", "185239.302500", "185240.502500", "185241.702500", "185242.902500", "185244.102500", "185245.302500", "185246.502500", "185247.702500", "185248.902500", "185250.102500", "185251.302500", "185252.502500", "185253.702500", "185254.902500", "185256.102500", "185257.302500", "185258.502500", "185259.702500", "185300.902500", "185302.102500", "185303.302500", "185304.502500", "185305.702500", "185306.902500", "185308.102500", "185309.302500", "185310.502500", "185311.702500", "185312.902500", "185314.102500", "185315.302500", "185316.502500", "185317.702500", "185318.902500", "185320.102500", "185321.302500", "185322.502500", "185323.702500", "185324.902500", "185326.102500", "185327.302500", "185328.502500", "185329.702500", "185330.902500", "185332.102500", "185333.302500", "185334.502500", "185335.702500", "185336.902500", "185338.102500", "185339.302500", "185340.502500", "185341.702500", "185342.902500", "185344.102500", "185345.302500", "185346.502500", "185347.702500", "185348.902500", "185350.102500", "185351.302500", "185352.502500", "185353.702500", "185354.902500", "185356.102500", "185357.302500", "185358.502500", "185359.702500", "185400.902500", "185402.102500", "185403.302500", "185404.502500", "185405.702500", "185406.902500", "185408.102500", "185409.302500", "185410.502500", "185411.702500", "185412.902500", "185414.102500", "185415.302500", "185416.502500", "185417.702500"],
      "ContentTime": ["185221.539000", "185221.542000", "185221.545000", "185221.547000", "185221.550000", "185221.563000", "185221.566000", "185221.569000", "185221.571000", "185221.574000", "185221.577000", "185221.579000", "185221.582000", "185221.584000", "185221.595000", "185221.598000", "185221.600000", "185221.603000", "185221.605000", "185221.608000", "185221.610000", "185221.613000", "185221.616000", "185221.618000", "185221.621000", "185221.623000", "185301.534000", "185301.537000", "185301.540000", "185301.542000", "185301.545000", "185301.548000", "185301.551000", "185301.554000", "185301.556000", "185301.559000", "185301.561000", "185301.564000", "185301.567000", "185301.569000", "185301.576000", "185301.579000", "185301.581000", "185301.584000", "185301.587000", "185301.589000", "185301.596000", "185301.598000", "185301.601000", "185301.603000", "185301.606000", "185301.608000", "185301.611000", "185301.614000", "185301.616000", "185301.619000", "185301.621000", "185301.624000", "185301.626000", "185301.629000", "185341.534000", "185341.537000", "185341.540000", "185341.542000", "185341.545000", "185341.547000", "185341.550000", "185341.552000", "185341.555000", "185341.558000", "185341.560000", "185341.563000", "185341.565000", "185341.568000", "185341.570000", "185341.573000", "185341.582000", "185341.585000", "185341.587000", "185341.590000", "185341.593000", "185341.595000", "185341.598000", "185341.600000", "185341.603000", "185341.605000", "185341.608000", "185341.610000", "185341.613000", "185341.616000", "185341.619000", "185341.633000", "185341.636000", "185419.245000", "185419.247000", "185419.250000", "185419.253000", "185419.255000", "185419.258000", "185419.261000", "185419.263000", "185419.266000", "185419.268000", "185419.271000", "185419.274000", "185419.276000", "185419.279000", "185419.281000", "185419.284000", "185419.286000", "185419.289000", "185419.292000", "185419.304000", "185419.306000", "185419.309000", "185419.311000", "185419.314000", "185419.317000", "185419.319000", "185419.322000", "185419.325000", "185419.327000", "185419.330000", "185419.332000", "185419.335000"],
      "InstanceCreationTime": ["185221.539000", "185221.542000", "185221.545000", "185221.547000", "185221.550000", "185221.563000", "185221.566000", "185221.569000", "185221.571000", "185221.574000", "185221.577000", "185221.579000", "185221.582000", "185221.584000", "185221.595000", "185221.598000", "185221.600000", "185221.603000", "185221.605000", "185221.608000", "185221.610000", "185221.613000", "185221.616000", "185221.618000", "185221.621000", "185221.623000", "185301.534000", "185301.537000", "185301.540000", "185301.542000", "185301.545000", "185301.548000", "185301.551000", "185301.554000", "185301.556000", "185301.559000", "185301.561000", "185301.564000", "185301.567000", "185301.569000", "185301.576000", "185301.579000", "185301.581000", "185301.584000", "185301.587000", "185301.589000", "185301.596000", "185301.598000", "185301.601000", "185301.603000", "185301.606000", "185301.608000", "185301.611000", "185301.614000", "185301.616000", "185301.619000", "185301.621000", "185301.624000", "185301.626000", "185301.629000", "185341.534000", "185341.537000", "185341.540000", "185341.542000", "185341.545000", "185341.547000", "185341.550000", "185341.552000", "185341.555000", "185341.558000", "185341.560000", "185341.563000", "185341.565000", "185341.568000", "185341.570000", "185341.573000", "185341.582000", "185341.585000", "185341.587000", "185341.590000", "185341.593000", "185341.595000", "185341.598000", "185341.600000", "185341.603000", "185341.605000", "185341.608000", "185341.610000", "185341.613000", "185341.616000", "185341.619000", "185341.633000", "185341.636000", "185419.245000", "185419.247000", "185419.250000", "185419.253000", "185419.255000", "185419.258000", "185419.261000", "185419.263000", "185419.266000", "185419.268000", "185419.271000", "185419.274000", "185419.276000", "185419.279000", "185419.281000", "185419.284000", "185419.286000", "185419.289000", "185419.292000", "185419.304000", "185419.306000", "185419.309000", "185419.311000", "185419.314000", "185419.317000", "185419.319000", "185419.322000", "185419.325000", "185419.327000", "185419.330000", "185419.332000", "185419.335000"],
      "InstanceNumber": [1, 2, 3, 4, 5, 6, 7, 8, 9, 10, 11, 12, 13, 14, 15, 16, 17, 18, 19, 20, 21, 22, 23, 24, 25, 26, 27, 28, 29, 30, 31, 32, 33, 34, 35, 36, 37, 38, 39, 40, 41, 42, 43, 44, 45, 46, 47, 48, 49, 50, 51, 52, 53, 54, 55, 56, 57, 58, 59, 60, 61, 62, 63, 64, 65, 66, 67, 68, 69, 70, 71, 72, 73, 74, 75, 76, 77, 78, 79, 80, 81, 82, 83, 84, 85, 86, 87, 88, 89, 90, 91, 92, 93, 94, 95, 96, 97, 98, 99, 100, 101, 102, 103, 104, 105, 106, 107, 108, 109, 110, 111, 112, 113, 114, 115, 116, 117, 118, 119, 120, 121, 122, 123, 124, 125],
      "LargestImagePixelValue": [2152, 2150, 2180, 2140, 2200, 2156, 2188, 2203, 2192, 2220, 2177, 2225, 2184, 2185, 2197, 2153, 2199, 2166, 2190, 2191, 2188, 2204, 2168, 2177, 2187, 2191, 2193, 2163, 2171, 2182, 2169, 2194, 2177, 2218, 2165, 2197, 2204, 2193, 2210, 2181, 2212, 2197, 2180, 2205, 2187, 2199, 2166, 2191, 2201, 2173, 2212, 2196, 2191, 2215, 2171, 2204, 2210, 2189, 2220, 2173, 2203, 2183, 2191, 2207, 2170, 2214, 2204, 2188, 2207, 2161, 2199, 2183, 2197, 2192, 2197, 2221, 2172, 2194, 2177, 2158, 2186, 2185, 2193, 2207, 2178, 2210, 2170, 2189, 2182, 2154, 2198, 2191, 2160, 2192, 2174, 2214, 2205, 2190, 2225, 2182, 2202, 2199, 2210, 2209, 2174, 2226, 2187, 2196, 2204, 2167, 2200, 2203, 2200, 2240, 2202, 2197, 2184, 2142, 2172, 2171, 2177, 2179, 2147, 2178, 2191],
      "WindowCenter": [603.0, 601.0, 600.0, 599.0, 599.0, 599.0, 600.0, 601.0, 601.0, 600.0, 600.0, 600.0, 599.0, 599.0, 598.0, 598.0, 598.0, 598.0, 599.0, 599.0, 599.0, 599.0, 599.0, 599.0, 598.0, 599.0, 598.0, 598.0, 599.0, 599.0, 599.0, 600.0, 600.0, 600.0, 600.0, 600.0, 600.0, 600.0, 599.0, 599.0, 599.0, 599.0, 599.0, 599.0, 599.0, 599.0, 599.0, 599.0, 599.0, 599.0, 599.0, 599.0, 600.0, 599.0, 600.0, 600.0, 600.0, 600.0, 600.0, 600.0, 600.0, 599.0, 600.0, 600.0, 601.0, 601.0, 601.0, 600.0, 600.0, 599.0, 600.0, 600.0, 601.0, 601.0, 600.0, 599.0, 599.0, 599.0, 598.0, 599.0, 599.0, 599.0, 599.0, 599.0, 599.0, 599.0, 599.0, 599.0, 599.0, 599.0, 599.0, 599.0, 599.0, 599.0, 600.0, 600.0, 600.0, 600.0, 599.0, 599.0, 599.0, 599.0, 600.0, 599.0, 599.0, 600.0, 599.0, 599.0, 599.0, 599.0, 599.0, 600.0, 600.0, 600.0, 599.0, 600.0, 599.0, 599.0, 600.0, 600.0, 600.0, 600.0, 599.0, 599.0, 599.0],
      "WindowWidth": [1296.0, 1290.0, 1287.0, 1285.0, 1286.0, 1286.0, 1287.0, 1289.0, 1289.0, 1288.0, 1287.0, 1286.0, 1285.0, 1284.0, 1284.0, 1283.0, 1284.0, 1283.0, 1284.0, 1285.0, 1285.0, 1285.0, 1284.0, 1284.0, 1283.0, 1284.0, 1283.0, 1283.0, 1284.0, 1285.0, 1286.0, 1286.0, 1287.0, 1287.0, 1287.0, 1287.0, 1287.0, 1287.0, 1286.0, 1285.0, 1285.0, 1285.0, 1285.0, 1285.0, 1285.0, 1286.0, 1285.0, 1285.0, 1284.0, 1284.0, 1285.0, 1286.0, 1286.0, 1286.0, 1287.0, 1287.0, 1288.0, 1287.0, 1287.0, 1287.0, 1286.0, 1286.0, 1287.0, 1288.0, 1289.0, 1290.0, 1289.0, 1287.0, 1286.0, 1286.0, 1286.0, 1287.0, 1288.0, 1289.0, 1288.0, 1286.0, 1285.0, 1284.0, 1284.0, 1284.0, 1284.0, 1285.0, 1285.0, 1285.0, 1285.0, 1285.0, 1285.0, 1285.0, 1284.0, 1284.0, 1284.0, 1285.0, 1284.0, 1285.0, 1287.0, 1287.0, 1287.0, 1287.0, 1286.0, 1285.0, 1286.0, 1285.0, 1286.0, 1284.0, 1285.0, 1287.0, 1285.0, 1285.0, 1284.0, 1284.0, 1285.0, 1287.0, 1286.0, 1286.0, 1286.0, 1286.0, 1285.0, 1285.0, 1287.0, 1288.0, 1288.0, 1287.0, 1286.0, 1285.0, 1285.0]
    },
    "slices": {}
  }
}