{
  "AcquisitionMatrixPE": 88,
  "AcquisitionNumber": 1,
  "AcquisitionTime": "18:11:1.055000",
  "BandwidthPerPixelPhaseEncode": 19.592,
  "BaseResolution": 88,
  "BodyPartExamined": "BRAIN",
  "ConsistencyInfo": "N4_VE11C_LATEST_20160120",
  "ConversionSoftware": "dcm2niix",
  "ConversionSoftwareVersion": "v1.0.20190902",
  "DerivedVendorReportedEchoSpacing": 0.000580014,
  "DeviceSerialNumber": "67050",
  "DwellTime": 2.6e-06,
  "EchoTime": 0.033,
  "EchoTrainLength": 88,
  "EffectiveEchoSpacing": 0.000580014,
  "FlipAngle": 62,
  "ImageOrientationPatientDICOM": [0.9985, 0.0543661, 0.00641502, -0.0546012, 0.997484, 0.0452209],
  "ImageType": [
    "ORIGINAL",
    "PRIMARY",
    "M",
    "ND",
    "MOSAIC"
],
  "ImagingFrequency": 123.251,
  "InPlanePhaseEncodingDirectionDICOM": "COL",
  "InstitutionAddress": "Olive_Street_60_Providence_RI_US_02912",
  "InstitutionName": "BROWN_UNIVERSITY_MRF",
  "InstitutionalDepartmentName": "Department",
  "MRAcquisitionType": "2D",
  "MagneticFieldStrength": 3,
  "Manufacturer": "Siemens",
  "ManufacturersModelName": "Prisma_fit",
  "Modality": "MR",
  "MultibandAccelerationFactor": 4,
  "PartialFourier": 1,
  "PatientPosition": "HFS",
  "PercentPhaseFOV": 100,
  "PhaseEncodingDirection": "j-",
  "PhaseEncodingSteps": 88,
  "PhaseResolution": 1,
  "PixelBandwidth": 2185,
  "ProcedureStepDescription": "ASHENHAV_1222",
  "ProtocolName": "func-bold_task-RDMmotion_run-03",
  "PulseSequenceDetails": "%SiemensSeq%_ep2d_bold",
  "ReceiveCoilActiveElements": "HC3-7;NC1",
  "ReceiveCoilName": "HeadNeck_64",
  "ReconMatrixPE": 88,
  "RefLinesPE": 8,
  "RepetitionTime": 1.2,
  "SAR": 0.0452555,
  "ScanOptions": "FS",
  "ScanningSequence": "EP",
  "SequenceName": "_epfid2d1_88",
  "SequenceVariant": "SK",
  "SeriesDescription": "func-bold_task-RDMmotion_run-03",
  "SeriesNumber": 11,
  "ShimSetting": [1757, -9231, 4402, 858, -28, -297, 415, -38],
  "SliceThickness": 2.4,
  "SliceTiming": [0.55, 0, 0.63, 0.0775, 0.7075, 0.1575, 0.7875, 0.235, 0.865, 0.315, 0.945, 0.3925, 1.0225, 0.4725, 1.1, 0.55, 0, 0.63, 0.0775, 0.7075, 0.1575, 0.7875, 0.235, 0.865, 0.315, 0.945, 0.3925, 1.0225, 0.4725, 1.1, 0.55, 0, 0.63, 0.0775, 0.7075, 0.1575, 0.7875, 0.235, 0.865, 0.315, 0.945, 0.3925, 1.0225, 0.4725, 1.1, 0.55, 0, 0.63, 0.0775, 0.7075, 0.1575, 0.7875, 0.235, 0.865, 0.315, 0.945, 0.3925, 1.0225, 0.4725, 1.1],
  "SoftwareVersions": "syngo_MR_E11",
  "SpacingBetweenSlices": 2.4,
  "StationName": "AWP67050",
  "TaskName": "RDMmotion",
  "TotalReadoutTime": 0.0504612,
  "TxRefAmp": 220.458,
  "dcmmeta_affine": [
    [-2.394131660461426, -0.13091884553432465, 0.009456954896450043, 113.38870239257812],
    [-0.13035497069358826, 2.3916938304901123, 0.10920804738998413, -99.42579650878906],
    [0.015381471253931522, -0.10842736810445786, 2.3974955081939697, -69.23463439941406],
    [0.0, 0.0, 0.0, 1.0]
],
  "dcmmeta_reorient_transform": [
    [0.0, -1.0, 0.0, 87.0],
    [1.0, 0.0, 0.0, 0.0],
    [0.0, 0.0, 1.0, 0.0],
    [0.0, 0.0, 0.0, 1.0]
],
  "dcmmeta_shape": [88, 88, 60, 125],
  "dcmmeta_slice_dim": 2,
  "dcmmeta_version": 0.6,
  "global": {
    "const": {
      "AcquisitionMatrix": [88, 0, 0, 88],
      "AngioFlag": "N",
      "BitsAllocated": 16,
      "BitsStored": 12,
      "BodyPartExamined": "BRAIN",
      "Columns": 704,
      "DeidentificationMethodCodeSequence": [
        {
          "CodeMeaning": "XNAT DicomEdit 6 Script",
          "CodeValue": "3",
          "CodingSchemeDesignator": "XNAT",
          "CodingSchemeVersion": "1.0"}
],
      "EchoNumbers": 1,
      "EchoTime": 33.0,
      "EchoTrainLength": 88,
      "FlipAngle": 62.0,
      "HighBit": 11,
      "ImageOrientationPatient": [0.99850046546106, 0.05436605537179, 0.00641502122779, -0.0546012247166, 0.9974837226786, 0.04522089396158],
      "ImagePositionPatient": [-799.06834590972, -885.44262855206, -116.80094212842],
      "ImageType": [
        "ORIGINAL",
        "PRIMARY",
        "M",
        "ND",
        "MOSAIC"
],
      "ImagedNucleus": "1H",
      "ImagingFrequency": 123.250799,
      "InPlanePhaseEncodingDirection": "COL",
      "MRAcquisitionType": "2D",
      "MagneticFieldStrength": 3.0,
      "Manufacturer": "SIEMENS",
      "ManufacturerModelName": "Prisma_fit",
      "Modality": "MR",
      "NumberOfAverages": 1.0,
      "NumberOfPhaseEncodingSteps": 88,
      "PercentPhaseFieldOfView": 100.0,
      "PercentSampling": 100.0,
      "PerformedProcedureStepStartTime": "172520.650000",
      "PhotometricInterpretation": "MONOCHROME2",
      "PixelBandwidth": 2185.0,
      "PixelRepresentation": 0,
      "PixelSpacing": [2.3977272510529, 2.3977272510529],
      "ProtocolName": "func-bold_task-RDMmotion_run-03",
      "RepetitionTime": 1200.0,
      "Rows": 704,
      "SAR": 0.04525553757627,
      "SamplesPerPixel": 1,
      "ScanOptions": "FS",
      "ScanningSequence": "EP",
      "SequenceName": "*epfid2d1_88",
      "SequenceVariant": "SK",
      "SeriesDescription": "func-bold_task-RDMmotion_run-03",
      "SeriesNumber": 11,
      "SeriesTime": "181133.146000",
      "SliceLocation": -73.239796029028,
      "SliceThickness": 2.4000000953674,
      "SmallestImagePixelValue": 0,
      "SoftwareVersions": "syngo MR E11",
      "SpacingBetweenSlices": 2.4000000683899,
      "SpecificCharacterSet": "ISO_IR 100",
      "StudyID": "1",
      "StudyTime": "172520.512000",
      "TransmitCoilName": "Body",
      "VariableFlipAngleFlag": "N",
      "WindowCenterWidthExplanation": "Algo1",
      "dBdt": 0.0},
    "slices": {}
  },
  "time": {
    "samples": {
      "AcquisitionNumber": [1, 2, 3, 4, 5, 6, 7, 8, 9, 10, 11, 12, 13, 14, 15, 16, 17, 18, 19, 20, 21, 22, 23, 24, 25, 26, 27, 28, 29, 30, 31, 32, 33, 34, 35, 36, 37, 38, 39, 40, 41, 42, 43, 44, 45, 46, 47, 48, 49, 50, 51, 52, 53, 54, 55, 56, 57, 58, 59, 60, 61, 62, 63, 64, 65, 66, 67, 68, 69, 70, 71, 72, 73, 74, 75, 76, 77, 78, 79, 80, 81, 82, 83, 84, 85, 86, 87, 88, 89, 90, 91, 92, 93, 94, 95, 96, 97, 98, 99, 100, 101, 102, 103, 104, 105, 106, 107, 108, 109, 110, 111, 112, 113, 114, 115, 116, 117, 118, 119, 120, 121, 122, 123, 124, 125],
      "AcquisitionTime": ["181101.055000", "181102.255000", "181103.455000", "181104.655000", "181105.855000", "181107.055000", "181108.255000", "181109.455000", "181110.655000", "181111.855000", "181113.055000", "181114.255000", "181115.455000", "181116.655000", "181117.855000", "181119.055000", "181120.255000", "181121.455000", "181122.655000", "181123.855000", "181125.055000", "181126.255000", "181127.455000", "181128.655000", "181129.855000", "181131.055000", "181132.255000", "181133.455000", "181134.655000", "181135.855000", "181137.055000", "181138.255000", "181139.455000", "181140.655000", "181141.855000", "181143.055000", "181144.255000", "181145.455000", "181146.655000", "181147.855000", "181149.055000", "181150.255000", "181151.455000", "181152.655000", "181153.855000", "181155.055000", "181156.255000", "181157.455000", "181158.655000", "181159.855000", "181201.055000", "181202.255000", "181203.455000", "181204.655000", "181205.855000", "181207.055000", "181208.255000", "181209.455000", "181210.655000", "181211.855000", "181213.055000", "181214.255000", "181215.455000", "181216.655000", "181217.855000", "181219.055000", "181220.255000", "181221.455000", "181222.655000", "181223.855000", "181225.055000", "181226.255000", "181227.455000", "181228.655000", "181229.855000", "181231.055000", "181232.255000", "181233.455000", "181234.655000", "181235.855000", "181237.055000", "181238.255000", "181239.455000", "181240.655000", "181241.855000", "181243.055000", "181244.255000", "181245.455000", "181246.655000", "181247.855000", "181249.055000", "181250.255000", "181251.455000", "181252.655000", "181253.855000", "181255.055000", "181256.255000", "181257.455000", "181258.655000", "181259.855000", "181301.055000", "181302.255000", "181303.455000", "181304.655000", "181305.855000", "181307.055000", "181308.255000", "181309.455000", "181310.655000", "181311.855000", "181313.055000", "181314.255000", "181315.455000", "181316.655000", "181317.855000", "181319.055000", "181320.255000", "181321.455000", "181322.655000", "181323.855000", "181325.055000", "181326.255000", "181327.455000", "181328.655000", "181329.855000"],
      "ContentTime": ["181133.150000", "181133.153000", "181133.156000", "181133.158000", "181133.161000", "181133.163000", "181133.166000", "181133.169000", "181133.171000", "181133.174000", "181133.176000", "181133.179000", "181133.181000", "181133.184000", "181133.193000", "181133.196000", "181133.198000", "181133.201000", "181133.203000", "181133.206000", "181133.209000", "181133.211000", "181133.223000", "181133.225000", "181133.228000", "181133.231000", "181213.145000", "181213.152000", "181213.155000", "181213.157000", "181213.160000", "181213.162000", "181213.165000", "181213.168000", "181213.170000", "181213.173000", "181213.175000", "181213.178000", "181213.180000", "181213.183000", "181213.185000", "181213.188000", "181213.191000", "181213.193000", "181213.196000", "181213.198000", "181213.206000", "181213.209000", "181213.211000", "181213.214000", "181213.216000", "181213.219000", "181213.222000", "181213.224000", "181213.227000", "181213.234000", "181213.237000", "181213.240000", "181213.242000", "181253.145000", "181253.147000", "181253.150000", "181253.153000", "181253.155000", "181253.158000", "181253.161000", "181253.163000", "181253.166000", "181253.168000", "181253.171000", "181253.173000", "181253.176000", "181253.178000", "181253.181000", "181253.184000", "181253.186000", "181253.189000", "181253.191000", "181253.194000", "181253.196000", "181253.199000", "181253.202000", "181253.204000", "181253.207000", "181253.209000", "181253.212000", "181253.214000", "181253.217000", "181253.219000", "181253.230000", "181253.232000", "181253.235000", "181331.726000", "181331.729000", "181331.732000", "181331.734000", "181331.737000", "181331.739000", "181331.742000", "181331.745000", "181331.747000", "181331.750000", "181331.752000", "181331.755000", "181331.764000", "181331.766000", "181331.769000", "181331.771000", "181331.774000", "181331.777000", "181331.779000", "181331.782000", "181331.785000", "181331.787000", "181331.790000", "181331.793000", "181331.795000", "181331.798000", "181331.801000", "181331.803000", "181331.806000", "181331.808000", "181331.811000", "181331.814000", "181331.816000"],
      "InstanceCreationTime": ["181133.150000", "181133.153000", "181133.156000", "181133.158000", "181133.161000", "181133.163000", "181133.166000", "181133.169000", "181133.171000", "181133.174000", "181133.176000", "181133.179000", "181133.181000", "181133.184000", "181133.193000", "181133.196000", "181133.198000", "181133.201000", "181133.203000", "181133.206000", "181133.209000", "181133.211000", "181133.223000", "181133.225000", "181133.228000", "181133.231000", "181213.145000", "181213.152000", "181213.155000", "181213.157000", "181213.160000", "181213.162000", "181213.165000", "181213.168000", "181213.170000", "181213.173000", "181213.175000", "181213.178000", "181213.180000", "181213.183000", "181213.185000", "181213.188000", "181213.191000", "181213.193000", "181213.196000", "181213.198000", "181213.206000", "181213.209000", "181213.211000", "181213.214000", "181213.216000", "181213.219000", "181213.222000", "181213.224000", "181213.227000", "181213.234000", "181213.237000", "181213.240000", "181213.242000", "181253.145000", "181253.147000", "181253.150000", "181253.153000", "181253.155000", "181253.158000", "181253.161000", "181253.163000", "181253.166000", "181253.168000", "181253.171000", "181253.173000", "181253.176000", "181253.178000", "181253.181000", "181253.184000", "181253.186000", "181253.189000", "181253.191000", "181253.194000", "181253.196000", "181253.199000", "181253.202000", "181253.204000", "181253.207000", "181253.209000", "181253.212000", "181253.214000", "181253.217000", "181253.219000", "181253.230000", "181253.232000", "181253.235000", "181331.726000", "181331.729000", "181331.732000", "181331.734000", "181331.737000", "181331.739000", "181331.742000", "181331.745000", "181331.747000", "181331.750000", "181331.752000", "181331.755000", "181331.764000", "181331.766000", "181331.769000", "181331.771000", "181331.774000", "181331.777000", "181331.779000", "181331.782000", "181331.785000", "181331.787000", "181331.790000", "181331.793000", "181331.795000", "181331.798000", "181331.801000", "181331.803000", "181331.806000", "181331.808000", "181331.811000", "181331.814000", "181331.816000"],
      "InstanceNumber": [1, 2, 3, 4, 5, 6, 7, 8, 9, 10, 11, 12, 13, 14, 15, 16, 17, 18, 19, 20, 21, 22, 23, 24, 25, 26, 27, 28, 29, 30, 31, 32, 33, 34, 35, 36, 37, 38, 39, 40, 41, 42, 43, 44, 45, 46, 47, 48, 49, 50, 51, 52, 53, 54, 55, 56, 57, 58, 59, 60, 61, 62, 63, 64, 65, 66, 67, 68, 69, 70, 71, 72, 73, 74, 75, 76, 77, 78, 79, 80, 81, 82, 83, 84, 85, 86, 87, 88, 89, 90, 91, 92, 93, 94, 95, 96, 97, 98, 99, 100, 101, 102, 103, 104, 105, 106, 107, 108, 109, 110, 111, 112, 113, 114, 115, 116, 117, 118, 119, 120, 121, 122, 123, 124, 125],
      "LargestImagePixelValue": [2021, 2039, 2021, 2055, 2040, 2054, 2105, 2075, 2120, 2042, 2066, 2060, 2037, 2077, 2036, 2062, 2028, 1996, 2035, 2017, 2034, 2026, 2017, 2029, 2015, 2046, 2020, 2010, 2061, 2034, 2047, 2038, 1997, 2035, 2019, 2046, 2050, 2028, 2062, 2050, 2025, 2051, 2026, 2028, 2047, 2020, 2050, 2038, 2036, 2029, 2016, 2047, 2020, 2002, 2046, 2015, 2063, 2054, 2030, 2063, 2027, 2069, 2045, 2006, 2045, 1992, 2011, 2041, 1993, 2065, 2012, 2050, 2038, 1995, 2024, 2010, 2035, 2015, 2005, 2040, 2037, 2018, 2047, 2018, 2003, 2032, 2005, 2007, 2041, 2015, 2065, 2050, 2025, 2054, 2035, 2033, 2045, 1994, 2033, 2037, 2042, 2072, 2020, 2069, 2026, 2051, 2050, 1988, 2043, 2037, 2048, 2051, 2026, 2065, 2038, 2031, 2038, 1976, 2012, 2040, 1999, 2027, 1989, 2004, 2038],
      "WindowCenter": [576.0, 576.0, 574.0, 575.0, 575.0, 576.0, 576.0, 575.0, 575.0, 573.0, 573.0, 573.0, 573.0, 573.0, 572.0, 573.0, 573.0, 573.0, 573.0, 572.0, 573.0, 573.0, 573.0, 573.0, 573.0, 573.0, 573.0, 573.0, 574.0, 573.0, 574.0, 574.0, 573.0, 573.0, 574.0, 574.0, 575.0, 574.0, 575.0, 574.0, 573.0, 574.0, 572.0, 573.0, 573.0, 573.0, 574.0, 573.0, 573.0, 573.0, 572.0, 573.0, 573.0, 573.0, 574.0, 573.0, 574.0, 574.0, 574.0, 573.0, 572.0, 574.0, 573.0, 573.0, 574.0, 572.0, 573.0, 573.0, 573.0, 574.0, 573.0, 573.0, 573.0, 572.0, 573.0, 573.0, 573.0, 573.0, 572.0, 574.0, 574.0, 573.0, 574.0, 573.0, 574.0, 574.0, 573.0, 573.0, 574.0, 574.0, 575.0, 575.0, 574.0, 574.0, 574.0, 574.0, 574.0, 573.0, 574.0, 573.0, 574.0, 575.0, 574.0, 575.0, 574.0, 574.0, 574.0, 573.0, 573.0, 574.0, 575.0, 575.0, 575.0, 575.0, 574.0, 574.0, 574.0, 572.0, 573.0, 574.0, 573.0, 574.0, 573.0, 574.0, 574.0],
      "WindowWidth": [1233.0, 1233.0, 1229.0, 1231.0, 1232.0, 1233.0, 1235.0, 1232.0, 1232.0, 1228.0, 1228.0, 1228.0, 1227.0, 1227.0, 1226.0, 1228.0, 1227.0, 1227.0, 1226.0, 1225.0, 1227.0, 1227.0, 1227.0, 1227.0, 1226.0, 1227.0, 1226.0, 1227.0, 1229.0, 1228.0, 1228.0, 1229.0, 1227.0, 1227.0, 1228.0, 1229.0, 1231.0, 1229.0, 1231.0, 1230.0, 1228.0, 1228.0, 1226.0, 1227.0, 1228.0, 1227.0, 1229.0, 1228.0, 1228.0, 1228.0, 1226.0, 1227.0, 1227.0, 1227.0, 1230.0, 1228.0, 1230.0, 1230.0, 1229.0, 1228.0, 1226.0, 1228.0, 1228.0, 1227.0, 1228.0, 1226.0, 1226.0, 1227.0, 1227.0, 1229.0, 1227.0, 1228.0, 1226.0, 1226.0, 1227.0, 1227.0, 1227.0, 1227.0, 1226.0, 1228.0, 1228.0, 1227.0, 1229.0, 1228.0, 1228.0, 1229.0, 1227.0, 1228.0, 1230.0, 1229.0, 1231.0, 1231.0, 1229.0, 1230.0, 1228.0, 1228.0, 1228.0, 1227.0, 1229.0, 1228.0, 1229.0, 1230.0, 1229.0, 1232.0, 1230.0, 1230.0, 1229.0, 1226.0, 1228.0, 1229.0, 1231.0, 1232.0, 1231.0, 1232.0, 1230.0, 1229.0, 1228.0, 1226.0, 1228.0, 1229.0, 1228.0, 1230.0, 1227.0, 1229.0, 1229.0]
    },
    "slices": {}
  }
}