{
  "AcquisitionMatrixPE": 88,
  "AcquisitionNumber": 1,
  "AcquisitionTime": "10:06:20.287500",
  "BandwidthPerPixelPhaseEncode": 19.592,
  "BaseResolution": 88,
  "BodyPartExamined": "BRAIN",
  "ConsistencyInfo": "N4_VE11C_LATEST_20160120",
  "ConversionSoftware": "dcm2niix",
  "ConversionSoftwareVersion": "v1.0.20190902",
  "DerivedVendorReportedEchoSpacing": 0.000580014,
  "DeviceSerialNumber": "67050",
  "DwellTime": 2.6e-06,
  "EchoTime": 0.033,
  "EchoTrainLength": 88,
  "EffectiveEchoSpacing": 0.000580014,
  "FlipAngle": 62,
  "ImageOrientationPatientDICOM": [0.998696, 0.00263815, 0.0509839, -0.00505487, 0.998866, 0.0473311],
  "ImageType": [
    "ORIGINAL",
    "PRIMARY",
    "M",
    "ND",
    "MOSAIC"
],
  "ImagingFrequency": 123.251,
  "InPlanePhaseEncodingDirectionDICOM": "COL",
  "InstitutionAddress": "Olive_Street_60_Providence_RI_US_02912",
  "InstitutionName": "BROWN_UNIVERSITY_MRF",
  "InstitutionalDepartmentName": "Department",
  "MRAcquisitionType": "2D",
  "MagneticFieldStrength": 3,
  "Manufacturer": "Siemens",
  "ManufacturersModelName": "Prisma_fit",
  "Modality": "MR",
  "MultibandAccelerationFactor": 4,
  "PartialFourier": 1,
  "PatientPosition": "HFS",
  "PercentPhaseFOV": 100,
  "PhaseEncodingDirection": "j-",
  "PhaseEncodingSteps": 88,
  "PhaseResolution": 1,
  "PixelBandwidth": 2185,
  "ProcedureStepDescription": "ASHENHAV_1222",
  "ProtocolName": "func-bold_task-RDMmotion_run-06",
  "PulseSequenceDetails": "%SiemensSeq%_ep2d_bold",
  "ReceiveCoilActiveElements": "HC1-7;NC1",
  "ReceiveCoilName": "HeadNeck_64",
  "ReconMatrixPE": 88,
  "RefLinesPE": 8,
  "RepetitionTime": 1.2,
  "SAR": 0.0557043,
  "ScanOptions": "FS",
  "ScanningSequence": "EP",
  "SequenceName": "_epfid2d1_88",
  "SequenceVariant": "SK",
  "SeriesDescription": "func-bold_task-RDMmotion_run-06",
  "SeriesNumber": 17,
  "ShimSetting": [1748, -9121, 4431, 338, -71, -222, 97, -19],
  "SliceThickness": 2.4,
  "SliceTiming": [0.55, 0, 0.63, 0.0775, 0.7075, 0.1575, 0.7875, 0.235, 0.865, 0.315, 0.945, 0.3925, 1.0225, 0.4725, 1.1, 0.55, 0, 0.63, 0.0775, 0.7075, 0.1575, 0.7875, 0.235, 0.865, 0.315, 0.945, 0.3925, 1.0225, 0.4725, 1.1, 0.55, 0, 0.63, 0.0775, 0.7075, 0.1575, 0.7875, 0.235, 0.865, 0.315, 0.945, 0.3925, 1.0225, 0.4725, 1.1, 0.55, 0, 0.63, 0.0775, 0.7075, 0.1575, 0.7875, 0.235, 0.865, 0.315, 0.945, 0.3925, 1.0225, 0.4725, 1.1],
  "SoftwareVersions": "syngo_MR_E11",
  "SpacingBetweenSlices": 2.4,
  "StationName": "AWP67050",
  "TaskName": "RDMmotion",
  "TotalReadoutTime": 0.0504612,
  "TxRefAmp": 237.206,
  "dcmmeta_affine": [
    [-2.3946006298065186, -0.012120209634304047, 0.12192308157682419, 104.74176025390625],
    [-0.006325559224933386, 2.3950092792510986, 0.11406498402357101, -97.3941421508789],
    [0.12224558740854263, -0.11348702013492584, 2.3941855430603027, -61.20684814453125],
    [0.0, 0.0, 0.0, 1.0]
],
  "dcmmeta_reorient_transform": [
    [0.0, -1.0, 0.0, 87.0],
    [1.0, 0.0, 0.0, 0.0],
    [0.0, 0.0, 1.0, 0.0],
    [0.0, 0.0, 0.0, 1.0]
],
  "dcmmeta_shape": [88, 88, 60, 125],
  "dcmmeta_slice_dim": 2,
  "dcmmeta_version": 0.6,
  "global": {
    "const": {
      "AcquisitionMatrix": [88, 0, 0, 88],
      "AngioFlag": "N",
      "BitsAllocated": 16,
      "BitsStored": 12,
      "BodyPartExamined": "BRAIN",
      "Columns": 704,
      "DeidentificationMethodCodeSequence": [
        {
          "CodeMeaning": "XNAT DicomEdit 6 Script",
          "CodeValue": "3",
          "CodingSchemeDesignator": "XNAT",
          "CodingSchemeVersion": "1.0"}
],
      "EchoNumbers": 1,
      "EchoTime": 33.0,
      "EchoTrainLength": 88,
      "FlipAngle": 62.0,
      "HighBit": 11,
      "ImageOrientationPatient": [0.99869598869741, 0.00263814799459, 0.05098394193141, -0.0050548741546, 0.99886646616035, 0.0473310788766],
      "ImagePositionPatient": [-837.49125907264, -850.58282015087, -143.68586173619],
      "ImageType": [
        "ORIGINAL",
        "PRIMARY",
        "M",
        "ND",
        "MOSAIC"
],
      "ImagedNucleus": "1H",
      "ImagingFrequency": 123.250701,
      "InPlanePhaseEncodingDirection": "COL",
      "MRAcquisitionType": "2D",
      "MagneticFieldStrength": 3.0,
      "Manufacturer": "SIEMENS",
      "ManufacturerModelName": "Prisma_fit",
      "Modality": "MR",
      "NumberOfAverages": 1.0,
      "NumberOfPhaseEncodingSteps": 88,
      "PercentPhaseFieldOfView": 100.0,
      "PercentSampling": 100.0,
      "PerformedProcedureStepStartTime": "084905.533000",
      "PhotometricInterpretation": "MONOCHROME2",
      "PixelBandwidth": 2185.0,
      "PixelRepresentation": 0,
      "PixelSpacing": [2.3977272510529, 2.3977272510529],
      "ProtocolName": "func-bold_task-RDMmotion_run-06",
      "RepetitionTime": 1200.0,
      "Rows": 704,
      "SAR": 0.05570429375917,
      "SamplesPerPixel": 1,
      "ScanOptions": "FS",
      "ScanningSequence": "EP",
      "SequenceName": "*epfid2d1_88",
      "SequenceVariant": "SK",
      "SeriesDescription": "func-bold_task-RDMmotion_run-06",
      "SeriesNumber": 17,
      "SeriesTime": "100650.760000",
      "SliceLocation": -60.366404219285,
      "SliceThickness": 2.4000000953674,
      "SmallestImagePixelValue": 0,
      "SoftwareVersions": "syngo MR E11",
      "SpacingBetweenSlices": 2.4000000258634,
      "SpecificCharacterSet": "ISO_IR 100",
      "StudyID": "1",
      "StudyTime": "084905.367000",
      "TransmitCoilName": "Body",
      "VariableFlipAngleFlag": "N",
      "WindowCenterWidthExplanation": "Algo1",
      "dBdt": 0.0},
    "slices": {}
  },
  "time": {
    "samples": {
      "AcquisitionNumber": [1, 2, 3, 4, 5, 6, 7, 8, 9, 10, 11, 12, 13, 14, 15, 16, 17, 18, 19, 20, 21, 22, 23, 24, 25, 26, 27, 28, 29, 30, 31, 32, 33, 34, 35, 36, 37, 38, 39, 40, 41, 42, 43, 44, 45, 46, 47, 48, 49, 50, 51, 52, 53, 54, 55, 56, 57, 58, 59, 60, 61, 62, 63, 64, 65, 66, 67, 68, 69, 70, 71, 72, 73, 74, 75, 76, 77, 78, 79, 80, 81, 82, 83, 84, 85, 86, 87, 88, 89, 90, 91, 92, 93, 94, 95, 96, 97, 98, 99, 100, 101, 102, 103, 104, 105, 106, 107, 108, 109, 110, 111, 112, 113, 114, 115, 116, 117, 118, 119, 120, 121, 122, 123, 124, 125],
      "AcquisitionTime": ["100620.287500", "100621.487500", "100622.687500", "100623.887500", "100625.087500", "100626.287500", "100627.487500", "100628.687500", "100629.887500", "100631.087500", "100632.287500", "100633.487500", "100634.687500", "100635.887500", "100637.087500", "100638.287500", "100639.487500", "100640.687500", "100641.887500", "100643.087500", "100644.287500", "100645.487500", "100646.687500", "100647.887500", "100649.087500", "100650.287500", "100651.487500", "100652.687500", "100653.887500", "100655.087500", "100656.287500", "100657.487500", "100658.687500", "100659.887500", "100701.087500", "100702.287500", "100703.487500", "100704.687500", "100705.887500", "100707.087500", "100708.287500", "100709.487500", "100710.687500", "100711.887500", "100713.087500", "100714.287500", "100715.487500", "100716.687500", "100717.887500", "100719.087500", "100720.287500", "100721.487500", "100722.687500", "100723.887500", "100725.087500", "100726.287500", "100727.487500", "100728.687500", "100729.887500", "100731.087500", "100732.287500", "100733.487500", "100734.687500", "100735.887500", "100737.087500", "100738.287500", "100739.487500", "100740.687500", "100741.887500", "100743.087500", "100744.287500", "100745.487500", "100746.687500", "100747.887500", "100749.087500", "100750.287500", "100751.487500", "100752.687500", "100753.887500", "100755.087500", "100756.287500", "100757.487500", "100758.687500", "100759.887500", "100801.087500", "100802.287500", "100803.487500", "100804.687500", "100805.887500", "100807.087500", "100808.287500", "100809.487500", "100810.687500", "100811.887500", "100813.087500", "100814.287500", "100815.487500", "100816.687500", "100817.887500", "100819.087500", "100820.287500", "100821.487500", "100822.687500", "100823.887500", "100825.087500", "100826.287500", "100827.487500", "100828.687500", "100829.887500", "100831.087500", "100832.287500", "100833.487500", "100834.687500", "100835.887500", "100837.087500", "100838.287500", "100839.487500", "100840.687500", "100841.887500", "100843.087500", "100844.287500", "100845.487500", "100846.687500", "100847.887500", "100849.087500"],
      "ContentTime": ["100650.763000", "100650.767000", "100650.769000", "100650.780000", "100650.782000", "100650.785000", "100650.788000", "100650.793000", "100650.796000", "100650.798000", "100650.801000", "100650.803000", "100650.806000", "100650.809000", "100650.811000", "100650.819000", "100650.822000", "100650.824000", "100650.827000", "100650.829000", "100650.832000", "100650.835000", "100650.837000", "100650.840000", "100650.842000", "100730.759000", "100730.762000", "100730.764000", "100730.767000", "100730.769000", "100730.772000", "100730.775000", "100730.777000", "100730.780000", "100730.783000", "100730.785000", "100730.788000", "100730.790000", "100730.793000", "100730.796000", "100730.799000", "100730.801000", "100730.804000", "100730.806000", "100730.809000", "100730.812000", "100730.814000", "100730.817000", "100730.819000", "100730.822000", "100730.824000", "100730.827000", "100730.842000", "100730.846000", "100730.848000", "100730.851000", "100730.853000", "100730.856000", "100810.759000", "100810.761000", "100810.764000", "100810.767000", "100810.769000", "100810.772000", "100810.775000", "100810.777000", "100810.780000", "100810.783000", "100810.786000", "100810.789000", "100810.792000", "100810.795000", "100810.797000", "100810.800000", "100810.803000", "100810.805000", "100810.808000", "100810.810000", "100810.813000", "100810.816000", "100810.821000", "100810.824000", "100810.826000", "100810.829000", "100810.832000", "100810.834000", "100810.837000", "100810.840000", "100810.842000", "100810.845000", "100810.848000", "100850.478000", "100850.481000", "100850.483000", "100850.486000", "100850.489000", "100850.491000", "100850.494000", "100850.496000", "100850.499000", "100850.502000", "100850.504000", "100850.507000", "100850.509000", "100850.512000", "100850.520000", "100850.522000", "100850.525000", "100850.527000", "100850.530000", "100850.533000", "100850.535000", "100850.538000", "100850.540000", "100850.543000", "100850.546000", "100850.548000", "100850.573000", "100850.576000", "100850.579000", "100850.581000", "100850.586000", "100850.589000", "100850.592000", "100850.594000"],
      "InstanceCreationTime": ["100650.763000", "100650.767000", "100650.769000", "100650.780000", "100650.782000", "100650.785000", "100650.788000", "100650.793000", "100650.796000", "100650.798000", "100650.801000", "100650.803000", "100650.806000", "100650.809000", "100650.811000", "100650.819000", "100650.822000", "100650.824000", "100650.827000", "100650.829000", "100650.832000", "100650.835000", "100650.837000", "100650.840000", "100650.842000", "100730.759000", "100730.762000", "100730.764000", "100730.767000", "100730.769000", "100730.772000", "100730.775000", "100730.777000", "100730.780000", "100730.783000", "100730.785000", "100730.788000", "100730.790000", "100730.793000", "100730.796000", "100730.799000", "100730.801000", "100730.804000", "100730.806000", "100730.809000", "100730.812000", "100730.814000", "100730.817000", "100730.819000", "100730.822000", "100730.824000", "100730.827000", "100730.842000", "100730.846000", "100730.848000", "100730.851000", "100730.853000", "100730.856000", "100810.759000", "100810.761000", "100810.764000", "100810.767000", "100810.769000", "100810.772000", "100810.775000", "100810.777000", "100810.780000", "100810.783000", "100810.786000", "100810.789000", "100810.792000", "100810.795000", "100810.797000", "100810.800000", "100810.803000", "100810.805000", "100810.808000", "100810.810000", "100810.813000", "100810.816000", "100810.821000", "100810.824000", "100810.826000", "100810.829000", "100810.832000", "100810.834000", "100810.837000", "100810.840000", "100810.842000", "100810.845000", "100810.848000", "100850.478000", "100850.481000", "100850.483000", "100850.486000", "100850.489000", "100850.491000", "100850.494000", "100850.496000", "100850.499000", "100850.502000", "100850.504000", "100850.507000", "100850.509000", "100850.512000", "100850.520000", "100850.522000", "100850.525000", "100850.527000", "100850.530000", "100850.533000", "100850.535000", "100850.538000", "100850.540000", "100850.543000", "100850.546000", "100850.548000", "100850.573000", "100850.576000", "100850.579000", "100850.581000", "100850.586000", "100850.589000", "100850.592000", "100850.594000"],
      "InstanceNumber": [1, 2, 3, 4, 5, 6, 7, 8, 9, 10, 11, 12, 13, 14, 15, 16, 17, 18, 19, 20, 21, 22, 23, 24, 25, 26, 27, 28, 29, 30, 31, 32, 33, 34, 35, 36, 37, 38, 39, 40, 41, 42, 43, 44, 45, 46, 47, 48, 49, 50, 51, 52, 53, 54, 55, 56, 57, 58, 59, 60, 61, 62, 63, 64, 65, 66, 67, 68, 69, 70, 71, 72, 73, 74, 75, 76, 77, 78, 79, 80, 81, 82, 83, 84, 85, 86, 87, 88, 89, 90, 91, 92, 93, 94, 95, 96, 97, 98, 99, 100, 101, 102, 103, 104, 105, 106, 107, 108, 109, 110, 111, 112, 113, 114, 115, 116, 117, 118, 119, 120, 121, 122, 123, 124, 125],
      "LargestImagePixelValue": [1771, 1729, 1737, 1677, 1666, 1680, 1700, 1703, 1688, 1678, 1677, 1675, 1680, 1685, 1675, 1676, 1684, 1688, 1673, 1682, 1665, 1662, 1677, 1682, 1679, 1678, 1686, 1694, 1673, 1678, 1682, 1695, 1698, 1682, 1696, 1686, 1659, 1662, 1662, 1646, 1630, 1651, 1631, 1621, 1625, 1635, 1646, 1647, 1647, 1649, 1642, 1647, 1651, 1644, 1637, 1645, 1633, 1627, 1636, 1637, 1647, 1648, 1640, 1652, 1640, 1633, 1623, 1641, 1635, 1612, 1596, 1597, 1600, 1597, 1617, 1607, 1615, 1620, 1601, 1624, 1631, 1616, 1635, 1616, 1611, 1627, 1628, 1624, 1624, 1640, 1641, 1640, 1633, 1626, 1627, 1624, 1628, 1616, 1634, 1626, 1623, 1640, 1635, 1621, 1631, 1650, 1627, 1630, 1627, 1620, 1610, 1608, 1610, 1608, 1611, 1602, 1595, 1623, 1653, 1687, 1688, 1621, 1636, 1633, 1629],
      "WindowCenter": [552.0, 548.0, 548.0, 546.0, 545.0, 546.0, 548.0, 548.0, 546.0, 546.0, 545.0, 546.0, 546.0, 546.0, 547.0, 547.0, 547.0, 547.0, 547.0, 546.0, 547.0, 547.0, 548.0, 548.0, 547.0, 548.0, 548.0, 548.0, 548.0, 549.0, 549.0, 549.0, 549.0, 548.0, 548.0, 547.0, 546.0, 545.0, 545.0, 546.0, 545.0, 545.0, 545.0, 544.0, 545.0, 545.0, 545.0, 545.0, 545.0, 546.0, 545.0, 545.0, 546.0, 545.0, 545.0, 545.0, 546.0, 546.0, 546.0, 546.0, 546.0, 546.0, 546.0, 546.0, 546.0, 546.0, 546.0, 546.0, 545.0, 544.0, 543.0, 544.0, 544.0, 545.0, 546.0, 546.0, 546.0, 546.0, 546.0, 548.0, 548.0, 547.0, 547.0, 546.0, 546.0, 545.0, 545.0, 546.0, 546.0, 547.0, 546.0, 546.0, 546.0, 545.0, 545.0, 546.0, 546.0, 545.0, 546.0, 545.0, 546.0, 547.0, 547.0, 546.0, 547.0, 546.0, 546.0, 546.0, 545.0, 545.0, 545.0, 545.0, 545.0, 545.0, 546.0, 545.0, 545.0, 546.0, 547.0, 546.0, 550.0, 544.0, 551.0, 549.0, 548.0],
      "WindowWidth": [1172.0, 1165.0, 1163.0, 1159.0, 1158.0, 1161.0, 1164.0, 1162.0, 1159.0, 1159.0, 1158.0, 1159.0, 1160.0, 1161.0, 1161.0, 1162.0, 1162.0, 1162.0, 1162.0, 1161.0, 1161.0, 1161.0, 1163.0, 1164.0, 1163.0, 1164.0, 1164.0, 1165.0, 1165.0, 1166.0, 1166.0, 1167.0, 1167.0, 1164.0, 1163.0, 1162.0, 1160.0, 1158.0, 1158.0, 1159.0, 1158.0, 1157.0, 1157.0, 1156.0, 1157.0, 1158.0, 1158.0, 1158.0, 1158.0, 1159.0, 1158.0, 1158.0, 1158.0, 1157.0, 1158.0, 1159.0, 1159.0, 1159.0, 1161.0, 1160.0, 1160.0, 1160.0, 1160.0, 1160.0, 1159.0, 1160.0, 1160.0, 1160.0, 1158.0, 1156.0, 1155.0, 1156.0, 1157.0, 1159.0, 1161.0, 1160.0, 1160.0, 1160.0, 1161.0, 1164.0, 1165.0, 1164.0, 1162.0, 1160.0, 1160.0, 1159.0, 1159.0, 1160.0, 1161.0, 1161.0, 1160.0, 1160.0, 1159.0, 1159.0, 1159.0, 1160.0, 1160.0, 1159.0, 1160.0, 1159.0, 1160.0, 1161.0, 1161.0, 1161.0, 1162.0, 1161.0, 1159.0, 1160.0, 1159.0, 1159.0, 1159.0, 1159.0, 1159.0, 1158.0, 1159.0, 1159.0, 1159.0, 1160.0, 1162.0, 1160.0, 1167.0, 1157.0, 1169.0, 1165.0, 1164.0]
    },
    "slices": {}
  }
}