{
  "AcquisitionMatrixPE": 88,
  "AcquisitionNumber": 1,
  "AcquisitionTime": "09:42:40.485000",
  "BandwidthPerPixelPhaseEncode": 19.592,
  "BaseResolution": 88,
  "BodyPartExamined": "BRAIN",
  "ConsistencyInfo": "N4_VE11C_LATEST_20160120",
  "ConversionSoftware": "dcm2niix",
  "ConversionSoftwareVersion": "v1.0.20190902",
  "DerivedVendorReportedEchoSpacing": 0.000580014,
  "DeviceSerialNumber": "67050",
  "DwellTime": 2.6e-06,
  "EchoTime": 0.033,
  "EchoTrainLength": 88,
  "EffectiveEchoSpacing": 0.000580014,
  "FlipAngle": 62,
  "ImageOrientationPatientDICOM": [0.998696, 0.00263815, 0.0509839, -0.00505487, 0.998866, 0.0473311],
  "ImageType": [
    "ORIGINAL",
    "PRIMARY",
    "M",
    "ND",
    "MOSAIC"
],
  "ImagingFrequency": 123.251,
  "InPlanePhaseEncodingDirectionDICOM": "COL",
  "InstitutionAddress": "Olive_Street_60_Providence_RI_US_02912",
  "InstitutionName": "BROWN_UNIVERSITY_MRF",
  "InstitutionalDepartmentName": "Department",
  "MRAcquisitionType": "2D",
  "MagneticFieldStrength": 3,
  "Manufacturer": "Siemens",
  "ManufacturersModelName": "Prisma_fit",
  "Modality": "MR",
  "MultibandAccelerationFactor": 4,
  "PartialFourier": 1,
  "PatientPosition": "HFS",
  "PercentPhaseFOV": 100,
  "PhaseEncodingDirection": "j-",
  "PhaseEncodingSteps": 88,
  "PhaseResolution": 1,
  "PixelBandwidth": 2185,
  "ProcedureStepDescription": "ASHENHAV_1222",
  "ProtocolName": "func-bold_task-RDMmotion_run-04",
  "PulseSequenceDetails": "%SiemensSeq%_ep2d_bold",
  "ReceiveCoilActiveElements": "HC1-7;NC1",
  "ReceiveCoilName": "HeadNeck_64",
  "ReconMatrixPE": 88,
  "RefLinesPE": 8,
  "RepetitionTime": 1.2,
  "SAR": 0.0557043,
  "ScanOptions": "FS",
  "ScanningSequence": "EP",
  "SequenceName": "_epfid2d1_88",
  "SequenceVariant": "SK",
  "SeriesDescription": "func-bold_task-RDMmotion_run-04",
  "SeriesNumber": 13,
  "ShimSetting": [1748, -9121, 4431, 338, -71, -222, 97, -19],
  "SliceThickness": 2.4,
  "SliceTiming": [0.55, 0, 0.6275, 0.0775, 0.7075, 0.155, 0.785, 0.235, 0.865, 0.3125, 0.9425, 0.3925, 1.0225, 0.47, 1.1, 0.55, 0, 0.6275, 0.0775, 0.7075, 0.155, 0.785, 0.235, 0.865, 0.3125, 0.9425, 0.3925, 1.0225, 0.47, 1.1, 0.55, 0, 0.6275, 0.0775, 0.7075, 0.155, 0.785, 0.235, 0.865, 0.3125, 0.9425, 0.3925, 1.0225, 0.47, 1.1, 0.55, 0, 0.6275, 0.0775, 0.7075, 0.155, 0.785, 0.235, 0.865, 0.3125, 0.9425, 0.3925, 1.0225, 0.47, 1.1],
  "SoftwareVersions": "syngo_MR_E11",
  "SpacingBetweenSlices": 2.4,
  "StationName": "AWP67050",
  "TaskName": "RDMmotion",
  "TotalReadoutTime": 0.0504612,
  "TxRefAmp": 237.206,
  "dcmmeta_affine": [
    [-2.3946006298065186, -0.012120209634304047, 0.12192308157682419, 104.74176025390625],
    [-0.006325559224933386, 2.3950092792510986, 0.11406498402357101, -97.3941421508789],
    [0.12224558740854263, -0.11348702013492584, 2.3941855430603027, -61.20684814453125],
    [0.0, 0.0, 0.0, 1.0]
],
  "dcmmeta_reorient_transform": [
    [0.0, -1.0, 0.0, 87.0],
    [1.0, 0.0, 0.0, 0.0],
    [0.0, 0.0, 1.0, 0.0],
    [0.0, 0.0, 0.0, 1.0]
],
  "dcmmeta_shape": [88, 88, 60, 125],
  "dcmmeta_slice_dim": 2,
  "dcmmeta_version": 0.6,
  "global": {
    "const": {
      "AcquisitionMatrix": [88, 0, 0, 88],
      "AngioFlag": "N",
      "BitsAllocated": 16,
      "BitsStored": 12,
      "BodyPartExamined": "BRAIN",
      "Columns": 704,
      "DeidentificationMethodCodeSequence": [
        {
          "CodeMeaning": "XNAT DicomEdit 6 Script",
          "CodeValue": "3",
          "CodingSchemeDesignator": "XNAT",
          "CodingSchemeVersion": "1.0"}
],
      "EchoNumbers": 1,
      "EchoTime": 33.0,
      "EchoTrainLength": 88,
      "FlipAngle": 62.0,
      "HighBit": 11,
      "ImageOrientationPatient": [0.99869598869741, 0.00263814799459, 0.05098394193141, -0.0050548741546, 0.99886646616035, 0.0473310788766],
      "ImagePositionPatient": [-837.49125907264, -850.58282015087, -143.68586173619],
      "ImageType": [
        "ORIGINAL",
        "PRIMARY",
        "M",
        "ND",
        "MOSAIC"
],
      "ImagedNucleus": "1H",
      "ImagingFrequency": 123.250693,
      "InPlanePhaseEncodingDirection": "COL",
      "MRAcquisitionType": "2D",
      "MagneticFieldStrength": 3.0,
      "Manufacturer": "SIEMENS",
      "ManufacturerModelName": "Prisma_fit",
      "Modality": "MR",
      "NumberOfAverages": 1.0,
      "NumberOfPhaseEncodingSteps": 88,
      "PercentPhaseFieldOfView": 100.0,
      "PercentSampling": 100.0,
      "PerformedProcedureStepStartTime": "084905.533000",
      "PhotometricInterpretation": "MONOCHROME2",
      "PixelBandwidth": 2185.0,
      "PixelRepresentation": 0,
      "PixelSpacing": [2.3977272510529, 2.3977272510529],
      "ProtocolName": "func-bold_task-RDMmotion_run-04",
      "RepetitionTime": 1200.0,
      "Rows": 704,
      "SAR": 0.05570429375917,
      "SamplesPerPixel": 1,
      "ScanOptions": "FS",
      "ScanningSequence": "EP",
      "SequenceName": "*epfid2d1_88",
      "SequenceVariant": "SK",
      "SeriesDescription": "func-bold_task-RDMmotion_run-04",
      "SeriesNumber": 13,
      "SeriesTime": "094323.799000",
      "SliceLocation": -60.366404219285,
      "SliceThickness": 2.4000000953674,
      "SmallestImagePixelValue": 0,
      "SoftwareVersions": "syngo MR E11",
      "SpacingBetweenSlices": 2.4000000258634,
      "SpecificCharacterSet": "ISO_IR 100",
      "StudyID": "1",
      "StudyTime": "084905.367000",
      "TransmitCoilName": "Body",
      "VariableFlipAngleFlag": "N",
      "WindowCenterWidthExplanation": "Algo1",
      "dBdt": 0.0},
    "slices": {}
  },
  "time": {
    "samples": {
      "AcquisitionNumber": [1, 2, 3, 4, 5, 6, 7, 8, 9, 10, 11, 12, 13, 14, 15, 16, 17, 18, 19, 20, 21, 22, 23, 24, 25, 26, 27, 28, 29, 30, 31, 32, 33, 34, 35, 36, 37, 38, 39, 40, 41, 42, 43, 44, 45, 46, 47, 48, 49, 50, 51, 52, 53, 54, 55, 56, 57, 58, 59, 60, 61, 62, 63, 64, 65, 66, 67, 68, 69, 70, 71, 72, 73, 74, 75, 76, 77, 78, 79, 80, 81, 82, 83, 84, 85, 86, 87, 88, 89, 90, 91, 92, 93, 94, 95, 96, 97, 98, 99, 100, 101, 102, 103, 104, 105, 106, 107, 108, 109, 110, 111, 112, 113, 114, 115, 116, 117, 118, 119, 120, 121, 122, 123, 124, 125],
      "AcquisitionTime": ["094240.485000", "094241.685000", "094242.885000", "094244.085000", "094245.285000", "094246.485000", "094247.685000", "094248.885000", "094250.085000", "094251.285000", "094252.485000", "094253.685000", "094254.885000", "094256.085000", "094257.285000", "094258.485000", "094259.685000", "094300.885000", "094302.085000", "094303.285000", "094304.485000", "094305.685000", "094306.885000", "094308.085000", "094309.285000", "094310.485000", "094311.685000", "094312.885000", "094314.085000", "094315.285000", "094316.485000", "094317.685000", "094318.885000", "094320.085000", "094321.285000", "094322.485000", "094323.685000", "094324.885000", "094326.085000", "094327.285000", "094328.485000", "094329.685000", "094330.885000", "094332.085000", "094333.285000", "094334.485000", "094335.685000", "094336.885000", "094338.085000", "094339.285000", "094340.485000", "094341.685000", "094342.885000", "094344.085000", "094345.285000", "094346.485000", "094347.685000", "094348.885000", "094350.085000", "094351.285000", "094352.485000", "094353.685000", "094354.885000", "094356.085000", "094357.285000", "094358.485000", "094359.685000", "094400.885000", "094402.085000", "094403.285000", "094404.485000", "094405.685000", "094406.885000", "094408.085000", "094409.285000", "094410.485000", "094411.685000", "094412.885000", "094414.085000", "094415.285000", "094416.485000", "094417.685000", "094418.885000", "094420.085000", "094421.285000", "094422.485000", "094423.685000", "094424.885000", "094426.085000", "094427.285000", "094428.485000", "094429.685000", "094430.885000", "094432.085000", "094433.285000", "094434.485000", "094435.685000", "094436.885000", "094438.085000", "094439.285000", "094440.485000", "094441.685000", "094442.885000", "094444.085000", "094445.285000", "094446.485000", "094447.685000", "094448.885000", "094450.085000", "094451.285000", "094452.485000", "094453.685000", "094454.885000", "094456.085000", "094457.285000", "094458.485000", "094459.685000", "094500.885000", "094502.085000", "094503.285000", "094504.485000", "094505.685000", "094506.885000", "094508.085000", "094509.285000"],
      "ContentTime": ["094323.802000", "094323.805000", "094323.808000", "094323.811000", "094323.813000", "094323.816000", "094323.819000", "094323.821000", "094323.824000", "094323.826000", "094323.829000", "094323.832000", "094323.834000", "094323.837000", "094323.840000", "094323.848000", "094323.851000", "094323.853000", "094323.856000", "094323.859000", "094323.861000", "094323.864000", "094323.867000", "094323.870000", "094323.873000", "094323.876000", "094323.879000", "094323.890000", "094323.892000", "094323.895000", "094323.898000", "094323.900000", "094323.903000", "094323.906000", "094323.908000", "094403.797000", "094403.800000", "094403.803000", "094403.806000", "094403.808000", "094403.811000", "094403.814000", "094403.816000", "094403.819000", "094403.821000", "094403.824000", "094403.827000", "094403.829000", "094403.832000", "094403.834000", "094403.837000", "094403.839000", "094403.863000", "094403.865000", "094403.868000", "094403.870000", "094403.873000", "094403.876000", "094403.878000", "094403.881000", "094403.883000", "094403.886000", "094403.888000", "094403.891000", "094403.894000", "094403.896000", "094403.899000", "094403.901000", "094403.904000", "094443.799000", "094443.802000", "094443.804000", "094443.807000", "094443.809000", "094443.812000", "094443.815000", "094443.817000", "094443.820000", "094443.823000", "094443.825000", "094443.828000", "094443.830000", "094443.833000", "094443.836000", "094443.839000", "094443.841000", "094443.844000", "094443.847000", "094443.862000", "094443.865000", "094443.868000", "094443.871000", "094443.873000", "094443.876000", "094443.878000", "094443.881000", "094443.883000", "094443.886000", "094443.888000", "094443.891000", "094443.894000", "094443.896000", "094510.699000", "094510.702000", "094510.704000", "094510.707000", "094510.710000", "094510.712000", "094510.715000", "094510.717000", "094510.720000", "094510.723000", "094510.725000", "094510.728000", "094510.730000", "094510.733000", "094510.736000", "094510.738000", "094510.741000", "094510.744000", "094510.746000", "094510.749000", "094510.751000", "094510.754000", "094510.757000"],
      "InstanceCreationTime": ["094323.802000", "094323.805000", "094323.808000", "094323.811000", "094323.813000", "094323.816000", "094323.819000", "094323.821000", "094323.824000", "094323.826000", "094323.829000", "094323.832000", "094323.834000", "094323.837000", "094323.840000", "094323.848000", "094323.851000", "094323.853000", "094323.856000", "094323.859000", "094323.861000", "094323.864000", "094323.867000", "094323.870000", "094323.873000", "094323.876000", "094323.879000", "094323.890000", "094323.892000", "094323.895000", "094323.898000", "094323.900000", "094323.903000", "094323.906000", "094323.908000", "094403.797000", "094403.800000", "094403.803000", "094403.806000", "094403.808000", "094403.811000", "094403.814000", "094403.816000", "094403.819000", "094403.821000", "094403.824000", "094403.827000", "094403.829000", "094403.832000", "094403.834000", "094403.837000", "094403.839000", "094403.863000", "094403.865000", "094403.868000", "094403.870000", "094403.873000", "094403.876000", "094403.878000", "094403.881000", "094403.883000", "094403.886000", "094403.888000", "094403.891000", "094403.894000", "094403.896000", "094403.899000", "094403.901000", "094403.904000", "094443.799000", "094443.802000", "094443.804000", "094443.807000", "094443.809000", "094443.812000", "094443.815000", "094443.817000", "094443.820000", "094443.823000", "094443.825000", "094443.828000", "094443.830000", "094443.833000", "094443.836000", "094443.839000", "094443.841000", "094443.844000", "094443.847000", "094443.862000", "094443.865000", "094443.868000", "094443.871000", "094443.873000", "094443.876000", "094443.878000", "094443.881000", "094443.883000", "094443.886000", "094443.888000", "094443.891000", "094443.894000", "094443.896000", "094510.699000", "094510.702000", "094510.704000", "094510.707000", "094510.710000", "094510.712000", "094510.715000", "094510.717000", "094510.720000", "094510.723000", "094510.725000", "094510.728000", "094510.730000", "094510.733000", "094510.736000", "094510.738000", "094510.741000", "094510.744000", "094510.746000", "094510.749000", "094510.751000", "094510.754000", "094510.757000"],
      "InstanceNumber": [1, 2, 3, 4, 5, 6, 7, 8, 9, 10, 11, 12, 13, 14, 15, 16, 17, 18, 19, 20, 21, 22, 23, 24, 25, 26, 27, 28, 29, 30, 31, 32, 33, 34, 35, 36, 37, 38, 39, 40, 41, 42, 43, 44, 45, 46, 47, 48, 49, 50, 51, 52, 53, 54, 55, 56, 57, 58, 59, 60, 61, 62, 63, 64, 65, 66, 67, 68, 69, 70, 71, 72, 73, 74, 75, 76, 77, 78, 79, 80, 81, 82, 83, 84, 85, 86, 87, 88, 89, 90, 91, 92, 93, 94, 95, 96, 97, 98, 99, 100, 101, 102, 103, 104, 105, 106, 107, 108, 109, 110, 111, 112, 113, 114, 115, 116, 117, 118, 119, 120, 121, 122, 123, 124, 125],
      "LargestImagePixelValue": [1811, 1738, 1701, 1688, 1683, 1684, 1678, 1677, 1694, 1684, 1686, 1698, 1693, 1722, 1681, 1686, 1677, 1676, 1684, 1681, 1677, 1671, 1670, 1691, 1689, 1684, 1669, 1674, 1665, 1676, 1665, 1669, 1671, 1669, 1669, 1662, 1652, 1656, 1667, 1647, 1659, 1670, 1660, 1684, 1669, 1661, 1663, 1667, 1663, 1684, 1664, 1684, 1669, 1664, 1669, 1659, 1661, 1647, 1661, 1661, 1670, 1669, 1679, 1670, 1681, 1660, 1669, 1681, 1669, 1663, 1681, 1682, 1669, 1691, 1695, 1686, 1680, 1689, 1703, 1689, 1674, 1674, 1662, 1665, 1664, 1662, 1657, 1671, 1672, 1660, 1661, 1675, 1677, 1648, 1668, 1658, 1655, 1667, 1670, 1659, 1658, 1677, 1663, 1672, 1660, 1659, 1674, 1663, 1673, 1664, 1666, 1681, 1664, 1675, 1657, 1655, 1687, 1684, 1672, 1690, 1698, 1675, 1660, 1645, 1657],
      "WindowCenter": [555.0, 551.0, 549.0, 549.0, 550.0, 550.0, 550.0, 549.0, 549.0, 549.0, 550.0, 550.0, 550.0, 549.0, 548.0, 549.0, 549.0, 549.0, 548.0, 548.0, 548.0, 548.0, 549.0, 550.0, 549.0, 549.0, 548.0, 548.0, 548.0, 549.0, 549.0, 549.0, 550.0, 549.0, 548.0, 548.0, 547.0, 548.0, 548.0, 548.0, 548.0, 548.0, 549.0, 548.0, 548.0, 549.0, 550.0, 551.0, 550.0, 550.0, 549.0, 549.0, 548.0, 549.0, 549.0, 549.0, 549.0, 548.0, 548.0, 548.0, 549.0, 549.0, 550.0, 550.0, 549.0, 548.0, 548.0, 548.0, 548.0, 549.0, 549.0, 550.0, 550.0, 551.0, 551.0, 551.0, 550.0, 551.0, 551.0, 551.0, 551.0, 550.0, 549.0, 548.0, 548.0, 547.0, 547.0, 548.0, 549.0, 549.0, 549.0, 549.0, 549.0, 548.0, 549.0, 550.0, 549.0, 549.0, 549.0, 549.0, 550.0, 550.0, 550.0, 551.0, 550.0, 551.0, 551.0, 551.0, 551.0, 551.0, 552.0, 552.0, 550.0, 550.0, 549.0, 549.0, 551.0, 551.0, 551.0, 551.0, 550.0, 548.0, 548.0, 547.0, 547.0],
      "WindowWidth": [1179.0, 1170.0, 1165.0, 1166.0, 1167.0, 1168.0, 1167.0, 1166.0, 1165.0, 1166.0, 1168.0, 1168.0, 1168.0, 1166.0, 1163.0, 1165.0, 1165.0, 1165.0, 1164.0, 1163.0, 1163.0, 1164.0, 1166.0, 1167.0, 1166.0, 1166.0, 1163.0, 1163.0, 1164.0, 1165.0, 1166.0, 1166.0, 1167.0, 1165.0, 1163.0, 1163.0, 1162.0, 1163.0, 1164.0, 1164.0, 1164.0, 1164.0, 1165.0, 1164.0, 1164.0, 1166.0, 1168.0, 1169.0, 1168.0, 1168.0, 1166.0, 1165.0, 1164.0, 1165.0, 1165.0, 1166.0, 1166.0, 1164.0, 1164.0, 1164.0, 1165.0, 1167.0, 1168.0, 1168.0, 1165.0, 1163.0, 1163.0, 1164.0, 1164.0, 1166.0, 1167.0, 1168.0, 1168.0, 1169.0, 1169.0, 1169.0, 1169.0, 1170.0, 1171.0, 1171.0, 1170.0, 1168.0, 1165.0, 1164.0, 1162.0, 1162.0, 1162.0, 1164.0, 1165.0, 1165.0, 1165.0, 1166.0, 1165.0, 1165.0, 1167.0, 1167.0, 1167.0, 1166.0, 1166.0, 1166.0, 1168.0, 1168.0, 1169.0, 1169.0, 1168.0, 1170.0, 1170.0, 1170.0, 1170.0, 1171.0, 1173.0, 1172.0, 1169.0, 1168.0, 1166.0, 1166.0, 1169.0, 1171.0, 1170.0, 1169.0, 1167.0, 1162.0, 1162.0, 1160.0, 1161.0]
    },
    "slices": {}
  }
}