{
  "AcquisitionMatrixPE": 88,
  "AcquisitionNumber": 1,
  "AcquisitionTime": "09:34:11.052500",
  "BandwidthPerPixelPhaseEncode": 19.592,
  "BaseResolution": 88,
  "BodyPartExamined": "BRAIN",
  "ConsistencyInfo": "N4_VE11C_LATEST_20160120",
  "ConversionSoftware": "dcm2niix",
  "ConversionSoftwareVersion": "v1.0.20190902",
  "DerivedVendorReportedEchoSpacing": 0.000580014,
  "DeviceSerialNumber": "67050",
  "DwellTime": 2.6e-06,
  "EchoTime": 0.033,
  "EchoTrainLength": 88,
  "EffectiveEchoSpacing": 0.000580014,
  "FlipAngle": 62,
  "ImageOrientationPatientDICOM": [0.998696, 0.00263815, 0.0509839, -0.00505487, 0.998866, 0.0473311],
  "ImageType": [
    "ORIGINAL",
    "PRIMARY",
    "M",
    "ND",
    "MOSAIC"
],
  "ImagingFrequency": 123.251,
  "InPlanePhaseEncodingDirectionDICOM": "COL",
  "InstitutionAddress": "Olive_Street_60_Providence_RI_US_02912",
  "InstitutionName": "BROWN_UNIVERSITY_MRF",
  "InstitutionalDepartmentName": "Department",
  "MRAcquisitionType": "2D",
  "MagneticFieldStrength": 3,
  "Manufacturer": "Siemens",
  "ManufacturersModelName": "Prisma_fit",
  "Modality": "MR",
  "MultibandAccelerationFactor": 4,
  "PartialFourier": 1,
  "PatientPosition": "HFS",
  "PercentPhaseFOV": 100,
  "PhaseEncodingDirection": "j-",
  "PhaseEncodingSteps": 88,
  "PhaseResolution": 1,
  "PixelBandwidth": 2185,
  "ProcedureStepDescription": "ASHENHAV_1222",
  "ProtocolName": "func-bold_task-RDMcolor_run-03",
  "PulseSequenceDetails": "%SiemensSeq%_ep2d_bold",
  "ReceiveCoilActiveElements": "HC1-7;NC1",
  "ReceiveCoilName": "HeadNeck_64",
  "ReconMatrixPE": 88,
  "RefLinesPE": 8,
  "RepetitionTime": 1.2,
  "SAR": 0.0562755,
  "ScanOptions": "FS",
  "ScanningSequence": "EP",
  "SequenceName": "_epfid2d1_88",
  "SequenceVariant": "SK",
  "SeriesDescription": "func-bold_task-RDMcolor_run-03",
  "SeriesNumber": 12,
  "ShimSetting": [1748, -9121, 4431, 338, -71, -222, 97, -19],
  "SliceThickness": 2.4,
  "SliceTiming": [0.55, 0, 0.63, 0.0775, 0.7075, 0.1575, 0.7875, 0.235, 0.865, 0.315, 0.9425, 0.3925, 1.0225, 0.4725, 1.1, 0.55, 0, 0.63, 0.0775, 0.7075, 0.1575, 0.7875, 0.235, 0.865, 0.315, 0.9425, 0.3925, 1.0225, 0.4725, 1.1, 0.55, 0, 0.63, 0.0775, 0.7075, 0.1575, 0.7875, 0.235, 0.865, 0.315, 0.9425, 0.3925, 1.0225, 0.4725, 1.1, 0.55, 0, 0.63, 0.0775, 0.7075, 0.1575, 0.7875, 0.235, 0.865, 0.315, 0.9425, 0.3925, 1.0225, 0.4725, 1.1],
  "SoftwareVersions": "syngo_MR_E11",
  "SpacingBetweenSlices": 2.4,
  "StationName": "AWP67050",
  "TaskName": "RDMcolor",
  "TotalReadoutTime": 0.0504612,
  "TxRefAmp": 237.206,
  "dcmmeta_affine": [
    [-2.3946006298065186, -0.012120209634304047, 0.12192308157682419, 104.74176025390625],
    [-0.006325559224933386, 2.3950092792510986, 0.11406498402357101, -97.3941421508789],
    [0.12224558740854263, -0.11348702013492584, 2.3941855430603027, -61.20684814453125],
    [0.0, 0.0, 0.0, 1.0]
],
  "dcmmeta_reorient_transform": [
    [0.0, -1.0, 0.0, 87.0],
    [1.0, 0.0, 0.0, 0.0],
    [0.0, 0.0, 1.0, 0.0],
    [0.0, 0.0, 0.0, 1.0]
],
  "dcmmeta_shape": [88, 88, 60, 392],
  "dcmmeta_slice_dim": 2,
  "dcmmeta_version": 0.6,
  "global": {
    "const": {
      "AcquisitionMatrix": [88, 0, 0, 88],
      "AngioFlag": "N",
      "BitsAllocated": 16,
      "BitsStored": 12,
      "BodyPartExamined": "BRAIN",
      "Columns": 704,
      "DeidentificationMethodCodeSequence": [
        {
          "CodeMeaning": "XNAT DicomEdit 6 Script",
          "CodeValue": "3",
          "CodingSchemeDesignator": "XNAT",
          "CodingSchemeVersion": "1.0"}
],
      "EchoNumbers": 1,
      "EchoTime": 33.0,
      "EchoTrainLength": 88,
      "FlipAngle": 62.0,
      "HighBit": 11,
      "ImageOrientationPatient": [0.99869598869741, 0.00263814799459, 0.05098394193141, -0.0050548741546, 0.99886646616035, 0.0473310788766],
      "ImagePositionPatient": [-837.49125907264, -850.58282015087, -143.68586173619],
      "ImageType": [
        "ORIGINAL",
        "PRIMARY",
        "M",
        "ND",
        "MOSAIC"
],
      "ImagedNucleus": "1H",
      "ImagingFrequency": 123.250691,
      "InPlanePhaseEncodingDirection": "COL",
      "MRAcquisitionType": "2D",
      "MagneticFieldStrength": 3.0,
      "Manufacturer": "SIEMENS",
      "ManufacturerModelName": "Prisma_fit",
      "Modality": "MR",
      "NumberOfAverages": 1.0,
      "NumberOfPhaseEncodingSteps": 88,
      "PercentPhaseFieldOfView": 100.0,
      "PercentSampling": 100.0,
      "PerformedProcedureStepStartTime": "084905.533000",
      "PhotometricInterpretation": "MONOCHROME2",
      "PixelBandwidth": 2185.0,
      "PixelRepresentation": 0,
      "PixelSpacing": [2.3977272510529, 2.3977272510529],
      "ProtocolName": "func-bold_task-RDMcolor_run-03",
      "RepetitionTime": 1200.0,
      "Rows": 704,
      "SAR": 0.0562755128823,
      "SamplesPerPixel": 1,
      "ScanOptions": "FS",
      "ScanningSequence": "EP",
      "SequenceName": "*epfid2d1_88",
      "SequenceVariant": "SK",
      "SeriesDescription": "func-bold_task-RDMcolor_run-03",
      "SeriesNumber": 12,
      "SeriesTime": "093452.112000",
      "SliceLocation": -60.366404219285,
      "SliceThickness": 2.4000000953674,
      "SmallestImagePixelValue": 0,
      "SoftwareVersions": "syngo MR E11",
      "SpacingBetweenSlices": 2.4000000258634,
      "SpecificCharacterSet": "ISO_IR 100",
      "StudyID": "1",
      "StudyTime": "084905.367000",
      "TransmitCoilName": "Body",
      "VariableFlipAngleFlag": "N",
      "WindowCenterWidthExplanation": "Algo1",
      "dBdt": 0.0},
    "slices": {}
  },
  "time": {
    "samples": {
      "AcquisitionNumber": [1, 2, 3, 4, 5, 6, 7, 8, 9, 10, 11, 12, 13, 14, 15, 16, 17, 18, 19, 20, 21, 22, 23, 24, 25, 26, 27, 28, 29, 30, 31, 32, 33, 34, 35, 36, 37, 38, 39, 40, 41, 42, 43, 44, 45, 46, 47, 48, 49, 50, 51, 52, 53, 54, 55, 56, 57, 58, 59, 60, 61, 62, 63, 64, 65, 66, 67, 68, 69, 70, 71, 72, 73, 74, 75, 76, 77, 78, 79, 80, 81, 82, 83, 84, 85, 86, 87, 88, 89, 90, 91, 92, 93, 94, 95, 96, 97, 98, 99, 100, 101, 102, 103, 104, 105, 106, 107, 108, 109, 110, 111, 112, 113, 114, 115, 116, 117, 118, 119, 120, 121, 122, 123, 124, 125, 126, 127, 128, 129, 130, 131, 132, 133, 134, 135, 136, 137, 138, 139, 140, 141, 142, 143, 144, 145, 146, 147, 148, 149, 150, 151, 152, 153, 154, 155, 156, 157, 158, 159, 160, 161, 162, 163, 164, 165, 166, 167, 168, 169, 170, 171, 172, 173, 174, 175, 176, 177, 178, 179, 180, 181, 182, 183, 184, 185, 186, 187, 188, 189, 190, 191, 192, 193, 194, 195, 196, 197, 198, 199, 200, 201, 202, 203, 204, 205, 206, 207, 208, 209, 210, 211, 212, 213, 214, 215, 216, 217, 218, 219, 220, 221, 222, 223, 224, 225, 226, 227, 228, 229, 230, 231, 232, 233, 234, 235, 236, 237, 238, 239, 240, 241, 242, 243, 244, 245, 246, 247, 248, 249, 250, 251, 252, 253, 254, 255, 256, 257, 258, 259, 260, 261, 262, 263, 264, 265, 266, 267, 268, 269, 270, 271, 272, 273, 274, 275, 276, 277, 278, 279, 280, 281, 282, 283, 284, 285, 286, 287, 288, 289, 290, 291, 292, 293, 294, 295, 296, 297, 298, 299, 300, 301, 302, 303, 304, 305, 306, 307, 308, 309, 310, 311, 312, 313, 314, 315, 316, 317, 318, 319, 320, 321, 322, 323, 324, 325, 326, 327, 328, 329, 330, 331, 332, 333, 334, 335, 336, 337, 338, 339, 340, 341, 342, 343, 344, 345, 346, 347, 348, 349, 350, 351, 352, 353, 354, 355, 356, 357, 358, 359, 360, 361, 362, 363, 364, 365, 366, 367, 368, 369, 370, 371, 372, 373, 374, 375, 376, 377, 378, 379, 380, 381, 382, 383, 384, 385, 386, 387, 388, 389, 390, 391, 392],
      "AcquisitionTime": ["093411.052500", "093412.252500", "093413.452500", "093414.652500", "093415.852500", "093417.052500", "093418.252500", "093419.452500", "093420.652500", "093421.852500", "093423.052500", "093424.252500", "093425.452500", "093426.652500", "093427.852500", "093429.052500", "093430.252500", "093431.452500", "093432.652500", "093433.852500", "093435.052500", "093436.252500", "093437.452500", "093438.652500", "093439.852500", "093441.052500", "093442.252500", "093443.452500", "093444.652500", "093445.852500", "093447.052500", "093448.252500", "093449.452500", "093450.652500", "093451.852500", "093453.052500", "093454.252500", "093455.452500", "093456.652500", "093457.852500", "093459.052500", "093500.252500", "093501.452500", "093502.652500", "093503.852500", "093505.052500", "093506.252500", "093507.452500", "093508.652500", "093509.852500", "093511.052500", "093512.252500", "093513.452500", "093514.652500", "093515.852500", "093517.052500", "093518.252500", "093519.452500", "093520.652500", "093521.852500", "093523.052500", "093524.252500", "093525.452500", "093526.652500", "093527.852500", "093529.052500", "093530.252500", "093531.452500", "093532.652500", "093533.852500", "093535.052500", "093536.252500", "093537.452500", "093538.652500", "093539.852500", "093541.052500", "093542.252500", "093543.452500", "093544.652500", "093545.852500", "093547.052500", "093548.252500", "093549.452500", "093550.652500", "093551.852500", "093553.052500", "093554.252500", "093555.452500", "093556.652500", "093557.852500", "093559.052500", "093600.252500", "093601.452500", "093602.652500", "093603.852500", "093605.052500", "093606.252500", "093607.452500", "093608.652500", "093609.852500", "093611.052500", "093612.252500", "093613.452500", "093614.652500", "093615.852500", "093617.052500", "093618.252500", "093619.452500", "093620.652500", "093621.852500", "093623.052500", "093624.252500", "093625.452500", "093626.652500", "093627.852500", "093629.052500", "093630.252500", "093631.452500", "093632.652500", "093633.852500", "093635.052500", "093636.252500", "093637.452500", "093638.652500", "093639.852500", "093641.052500", "093642.252500", "093643.452500", "093644.652500", "093645.852500", "093647.052500", "093648.252500", "093649.452500", "093650.652500", "093651.852500", "093653.052500", "093654.252500", "093655.452500", "093656.652500", "093657.852500", "093659.052500", "093700.252500", "093701.452500", "093702.652500", "093703.852500", "093705.052500", "093706.252500", "093707.452500", "093708.652500", "093709.852500", "093711.052500", "093712.252500", "093713.452500", "093714.652500", "093715.852500", "093717.052500", "093718.252500", "093719.452500", "093720.652500", "093721.852500", "093723.052500", "093724.252500", "093725.452500", "093726.652500", "093727.852500", "093729.052500", "093730.252500", "093731.452500", "093732.652500", "093733.852500", "093735.052500", "093736.252500", "093737.452500", "093738.652500", "093739.852500", "093741.052500", "093742.252500", "093743.452500", "093744.652500", "093745.852500", "093747.052500", "093748.252500", "093749.452500", "093750.652500", "093751.852500", "093753.052500", "093754.252500", "093755.452500", "093756.652500", "093757.852500", "093759.052500", "093800.252500", "093801.452500", "093802.652500", "093803.852500", "093805.052500", "093806.252500", "093807.452500", "093808.652500", "093809.852500", "093811.052500", "093812.252500", "093813.452500", "093814.652500", "093815.852500", "093817.052500", "093818.252500", "093819.452500", "093820.652500", "093821.852500", "093823.052500", "093824.252500", "093825.452500", "093826.652500", "093827.852500", "093829.052500", "093830.252500", "093831.452500", "093832.652500", "093833.852500", "093835.052500", "093836.252500", "093837.452500", "093838.652500", "093839.852500", "093841.052500", "093842.252500", "093843.452500", "093844.652500", "093845.852500", "093847.052500", "093848.252500", "093849.452500", "093850.652500", "093851.852500", "093853.052500", "093854.252500", "093855.452500", "093856.652500", "093857.852500", "093859.052500", "093900.252500", "093901.452500", "093902.652500", "093903.852500", "093905.052500", "093906.252500", "093907.452500", "093908.652500", "093909.852500", "093911.052500", "093912.252500", "093913.452500", "093914.652500", "093915.852500", "093917.052500", "093918.252500", "093919.452500", "093920.652500", "093921.852500", "093923.052500", "093924.252500", "093925.452500", "093926.652500", "093927.852500", "093929.052500", "093930.252500", "093931.452500", "093932.652500", "093933.852500", "093935.052500", "093936.252500", "093937.452500", "093938.652500", "093939.852500", "093941.052500", "093942.252500", "093943.452500", "093944.652500", "093945.852500", "093947.052500", "093948.252500", "093949.452500", "093950.652500", "093951.852500", "093953.052500", "093954.252500", "093955.452500", "093956.652500", "093957.852500", "093959.052500", "094000.252500", "094001.452500", "094002.652500", "094003.852500", "094005.052500", "094006.252500", "094007.452500", "094008.652500", "094009.852500", "094011.052500", "094012.252500", "094013.452500", "094014.652500", "094015.852500", "094017.052500", "094018.252500", "094019.452500", "094020.652500", "094021.852500", "094023.052500", "094024.252500", "094025.452500", "094026.652500", "094027.852500", "094029.052500", "094030.252500", "094031.452500", "094032.652500", "094033.852500", "094035.052500", "094036.252500", "094037.452500", "094038.652500", "094039.852500", "094041.052500", "094042.252500", "094043.452500", "094044.652500", "094045.852500", "094047.052500", "094048.252500", "094049.452500", "094050.652500", "094051.852500", "094053.052500", "094054.252500", "094055.452500", "094056.652500", "094057.852500", "094059.052500", "094100.252500", "094101.452500", "094102.652500", "094103.852500", "094105.052500", "094106.252500", "094107.452500", "094108.652500", "094109.852500", "094111.052500", "094112.252500", "094113.452500", "094114.652500", "094115.852500", "094117.052500", "094118.252500", "094119.452500", "094120.652500", "094121.852500", "094123.052500", "094124.252500", "094125.452500", "094126.652500", "094127.852500", "094129.052500", "094130.252500", "094131.452500", "094132.652500", "094133.852500", "094135.052500", "094136.252500", "094137.452500", "094138.652500", "094139.852500", "094141.052500", "094142.252500", "094143.452500", "094144.652500", "094145.852500", "094147.052500", "094148.252500", "094149.452500", "094150.652500", "094151.852500", "094153.052500", "094154.252500", "094155.452500", "094156.652500", "094157.852500", "094159.052500", "094200.252500"],
      "ContentTime": ["093452.116000", "093452.119000", "093452.122000", "093452.124000", "093452.127000", "093452.129000", "093452.132000", "093452.135000", "093452.137000", "093452.140000", "093452.148000", "093452.150000", "093452.153000", "093452.156000", "093452.158000", "093452.161000", "093452.163000", "093452.166000", "093452.169000", "093452.178000", "093452.180000", "093452.183000", "093452.186000", "093452.188000", "093452.191000", "093452.194000", "093452.196000", "093452.209000", "093452.212000", "093452.215000", "093452.218000", "093452.220000", "093452.223000", "093532.111000", "093532.114000", "093532.117000", "093532.119000", "093532.122000", "093532.125000", "093532.127000", "093532.138000", "093532.141000", "093532.144000", "093532.146000", "093532.149000", "093532.151000", "093532.154000", "093532.156000", "093532.159000", "093532.161000", "093532.164000", "093532.166000", "093532.169000", "093532.172000", "093532.174000", "093532.179000", "093532.182000", "093532.184000", "093532.187000", "093532.189000", "093532.192000", "093532.195000", "093532.197000", "093532.200000", "093532.202000", "093532.205000", "093532.208000", "093612.111000", "093612.114000", "093612.117000", "093612.119000", "093612.122000", "093612.125000", "093612.127000", "093612.130000", "093612.132000", "093612.135000", "093612.138000", "093612.173000", "093612.176000", "093612.178000", "093612.181000", "093612.184000", "093612.186000", "093612.189000", "093612.191000", "093612.194000", "093612.196000", "093612.199000", "093612.201000", "093612.204000", "093612.207000", "093612.209000", "093612.212000", "093612.214000", "093612.217000", "093612.219000", "093612.222000", "093612.224000", "093612.227000", "093652.111000", "093652.114000", "093652.117000", "093652.119000", "093652.122000", "093652.125000", "093652.127000", "093652.130000", "093652.132000", "093652.135000", "093652.138000", "093652.140000", "093652.143000", "093652.145000", "093652.148000", "093652.150000", "093652.153000", "093652.156000", "093652.158000", "093652.161000", "093652.163000", "093652.166000", "093652.169000", "093652.171000", "093652.174000", "093652.176000", "093652.179000", "093652.182000", "093652.184000", "093652.187000", "093652.189000", "093652.192000", "093652.206000", "093732.112000", "093732.115000", "093732.117000", "093732.120000", "093732.123000", "093732.125000", "093732.128000", "093732.130000", "093732.133000", "093732.136000", "093732.138000", "093732.141000", "093732.143000", "093732.146000", "093732.149000", "093732.151000", "093732.154000", "093732.156000", "093732.159000", "093732.161000", "093732.164000", "093732.167000", "093732.169000", "093732.172000", "093732.174000", "093732.177000", "093732.179000", "093732.182000", "093732.184000", "093732.187000", "093732.190000", "093732.192000", "093732.195000", "093732.197000", "093812.111000", "093812.114000", "093812.117000", "093812.119000", "093812.122000", "093812.125000", "093812.127000", "093812.130000", "093812.132000", "093812.135000", "093812.137000", "093812.140000", "093812.151000", "093812.154000", "093812.157000", "093812.164000", "093812.167000", "093812.169000", "093812.172000", "093812.174000", "093812.177000", "093812.179000", "093812.182000", "093812.185000", "093812.187000", "093812.190000", "093812.192000", "093812.195000", "093812.198000", "093812.200000", "093812.203000", "093812.205000", "093812.208000", "093852.111000", "093852.114000", "093852.117000", "093852.119000", "093852.122000", "093852.125000", "093852.127000", "093852.130000", "093852.132000", "093852.135000", "093852.138000", "093852.140000", "093852.143000", "093852.146000", "093852.148000", "093852.151000", "093852.153000", "093852.156000", "093852.158000", "093852.161000", "093852.164000", "093852.166000", "093852.169000", "093852.171000", "093852.174000", "093852.177000", "093852.179000", "093852.182000", "093852.185000", "093852.187000", "093852.190000", "093852.192000", "093852.195000", "093932.112000", "093932.114000", "093932.117000", "093932.120000", "093932.122000", "093932.125000", "093932.127000", "093932.139000", "093932.142000", "093932.145000", "093932.147000", "093932.150000", "093932.153000", "093932.155000", "093932.163000", "093932.166000", "093932.169000", "093932.171000", "093932.174000", "093932.176000", "093932.179000", "093932.182000", "093932.184000", "093932.187000", "093932.189000", "093932.194000", "093932.197000", "093932.200000", "093932.202000", "093932.218000", "093932.221000", "093932.223000", "093932.226000", "093932.229000", "094012.111000", "094012.114000", "094012.117000", "094012.120000", "094012.122000", "094012.125000", "094012.127000", "094012.130000", "094012.133000", "094012.135000", "094012.138000", "094012.141000", "094012.143000", "094012.146000", "094012.148000", "094012.151000", "094012.153000", "094012.156000", "094012.158000", "094012.161000", "094012.164000", "094012.166000", "094012.169000", "094012.171000", "094012.174000", "094012.177000", "094012.179000", "094012.182000", "094012.184000", "094012.187000", "094012.189000", "094012.192000", "094012.195000", "094052.111000", "094052.114000", "094052.117000", "094052.119000", "094052.122000", "094052.125000", "094052.127000", "094052.130000", "094052.132000", "094052.135000", "094052.138000", "094052.140000", "094052.143000", "094052.145000", "094052.148000", "094052.151000", "094052.153000", "094052.156000", "094052.158000", "094052.161000", "094052.164000", "094052.166000", "094052.169000", "094052.171000", "094052.174000", "094052.177000", "094052.179000", "094052.182000", "094052.184000", "094052.187000", "094052.189000", "094052.192000", "094052.195000", "094132.111000", "094132.114000", "094132.117000", "094132.120000", "094132.122000", "094132.125000", "094132.127000", "094132.130000", "094132.133000", "094132.135000", "094132.138000", "094132.141000", "094132.143000", "094132.146000", "094132.148000", "094132.151000", "094132.154000", "094132.156000", "094132.159000", "094132.162000", "094132.164000", "094132.167000", "094132.169000", "094132.172000", "094132.174000", "094132.177000", "094132.180000", "094132.182000", "094132.185000", "094132.187000", "094132.190000", "094132.193000", "094132.195000", "094132.198000", "094201.913000", "094201.916000", "094201.919000", "094201.922000", "094201.930000", "094201.932000", "094201.935000", "094201.938000", "094201.940000", "094201.943000", "094201.946000", "094201.948000", "094201.951000", "094201.954000", "094201.956000", "094201.959000", "094201.962000", "094201.967000", "094201.976000", "094201.980000", "094201.983000", "094201.986000", "094201.989000", "094201.993000", "094201.997000"],
      "InstanceCreationTime": ["093452.116000", "093452.119000", "093452.122000", "093452.124000", "093452.127000", "093452.129000", "093452.132000", "093452.135000", "093452.137000", "093452.140000", "093452.148000", "093452.150000", "093452.153000", "093452.156000", "093452.158000", "093452.161000", "093452.163000", "093452.166000", "093452.169000", "093452.178000", "093452.180000", "093452.183000", "093452.186000", "093452.188000", "093452.191000", "093452.194000", "093452.196000", "093452.209000", "093452.212000", "093452.215000", "093452.218000", "093452.220000", "093452.223000", "093532.111000", "093532.114000", "093532.117000", "093532.119000", "093532.122000", "093532.125000", "093532.127000", "093532.138000", "093532.141000", "093532.144000", "093532.146000", "093532.149000", "093532.151000", "093532.154000", "093532.156000", "093532.159000", "093532.161000", "093532.164000", "093532.166000", "093532.169000", "093532.172000", "093532.174000", "093532.179000", "093532.182000", "093532.184000", "093532.187000", "093532.189000", "093532.192000", "093532.195000", "093532.197000", "093532.200000", "093532.202000", "093532.205000", "093532.208000", "093612.111000", "093612.114000", "093612.117000", "093612.119000", "093612.122000", "093612.125000", "093612.127000", "093612.130000", "093612.132000", "093612.135000", "093612.138000", "093612.173000", "093612.176000", "093612.178000", "093612.181000", "093612.184000", "093612.186000", "093612.189000", "093612.191000", "093612.194000", "093612.196000", "093612.199000", "093612.201000", "093612.204000", "093612.207000", "093612.209000", "093612.212000", "093612.214000", "093612.217000", "093612.219000", "093612.222000", "093612.224000", "093612.227000", "093652.111000", "093652.114000", "093652.117000", "093652.119000", "093652.122000", "093652.125000", "093652.127000", "093652.130000", "093652.132000", "093652.135000", "093652.138000", "093652.140000", "093652.143000", "093652.145000", "093652.148000", "093652.150000", "093652.153000", "093652.156000", "093652.158000", "093652.161000", "093652.163000", "093652.166000", "093652.169000", "093652.171000", "093652.174000", "093652.176000", "093652.179000", "093652.182000", "093652.184000", "093652.187000", "093652.189000", "093652.192000", "093652.206000", "093732.112000", "093732.115000", "093732.117000", "093732.120000", "093732.123000", "093732.125000", "093732.128000", "093732.130000", "093732.133000", "093732.136000", "093732.138000", "093732.141000", "093732.143000", "093732.146000", "093732.149000", "093732.151000", "093732.154000", "093732.156000", "093732.159000", "093732.161000", "093732.164000", "093732.167000", "093732.169000", "093732.172000", "093732.174000", "093732.177000", "093732.179000", "093732.182000", "093732.184000", "093732.187000", "093732.190000", "093732.192000", "093732.195000", "093732.197000", "093812.111000", "093812.114000", "093812.117000", "093812.119000", "093812.122000", "093812.125000", "093812.127000", "093812.130000", "093812.132000", "093812.135000", "093812.137000", "093812.140000", "093812.151000", "093812.154000", "093812.157000", "093812.164000", "093812.167000", "093812.169000", "093812.172000", "093812.174000", "093812.177000", "093812.179000", "093812.182000", "093812.185000", "093812.187000", "093812.190000", "093812.192000", "093812.195000", "093812.198000", "093812.200000", "093812.203000", "093812.205000", "093812.208000", "093852.111000", "093852.114000", "093852.117000", "093852.119000", "093852.122000", "093852.125000", "093852.127000", "093852.130000", "093852.132000", "093852.135000", "093852.138000", "093852.140000", "093852.143000", "093852.146000", "093852.148000", "093852.151000", "093852.153000", "093852.156000", "093852.158000", "093852.161000", "093852.164000", "093852.166000", "093852.169000", "093852.171000", "093852.174000", "093852.177000", "093852.179000", "093852.182000", "093852.185000", "093852.187000", "093852.190000", "093852.192000", "093852.195000", "093932.112000", "093932.114000", "093932.117000", "093932.120000", "093932.122000", "093932.125000", "093932.127000", "093932.139000", "093932.142000", "093932.145000", "093932.147000", "093932.150000", "093932.153000", "093932.155000", "093932.163000", "093932.166000", "093932.169000", "093932.171000", "093932.174000", "093932.176000", "093932.179000", "093932.182000", "093932.184000", "093932.187000", "093932.189000", "093932.194000", "093932.197000", "093932.200000", "093932.202000", "093932.218000", "093932.221000", "093932.223000", "093932.226000", "093932.229000", "094012.111000", "094012.114000", "094012.117000", "094012.120000", "094012.122000", "094012.125000", "094012.127000", "094012.130000", "094012.133000", "094012.135000", "094012.138000", "094012.141000", "094012.143000", "094012.146000", "094012.148000", "094012.151000", "094012.153000", "094012.156000", "094012.158000", "094012.161000", "094012.164000", "094012.166000", "094012.169000", "094012.171000", "094012.174000", "094012.177000", "094012.179000", "094012.182000", "094012.184000", "094012.187000", "094012.189000", "094012.192000", "094012.195000", "094052.111000", "094052.114000", "094052.117000", "094052.119000", "094052.122000", "094052.125000", "094052.127000", "094052.130000", "094052.132000", "094052.135000", "094052.138000", "094052.140000", "094052.143000", "094052.145000", "094052.148000", "094052.151000", "094052.153000", "094052.156000", "094052.158000", "094052.161000", "094052.164000", "094052.166000", "094052.169000", "094052.171000", "094052.174000", "094052.177000", "094052.179000", "094052.182000", "094052.184000", "094052.187000", "094052.189000", "094052.192000", "094052.195000", "094132.111000", "094132.114000", "094132.117000", "094132.120000", "094132.122000", "094132.125000", "094132.127000", "094132.130000", "094132.133000", "094132.135000", "094132.138000", "094132.141000", "094132.143000", "094132.146000", "094132.148000", "094132.151000", "094132.154000", "094132.156000", "094132.159000", "094132.162000", "094132.164000", "094132.167000", "094132.169000", "094132.172000", "094132.174000", "094132.177000", "094132.180000", "094132.182000", "094132.185000", "094132.187000", "094132.190000", "094132.193000", "094132.195000", "094132.198000", "094201.913000", "094201.916000", "094201.919000", "094201.922000", "094201.930000", "094201.932000", "094201.935000", "094201.938000", "094201.940000", "094201.943000", "094201.946000", "094201.948000", "094201.951000", "094201.954000", "094201.956000", "094201.959000", "094201.962000", "094201.967000", "094201.976000", "094201.980000", "094201.983000", "094201.986000", "094201.989000", "094201.993000", "094201.997000"],
      "InstanceNumber": [1, 2, 3, 4, 5, 6, 7, 8, 9, 10, 11, 12, 13, 14, 15, 16, 17, 18, 19, 20, 21, 22, 23, 24, 25, 26, 27, 28, 29, 30, 31, 32, 33, 34, 35, 36, 37, 38, 39, 40, 41, 42, 43, 44, 45, 46, 47, 48, 49, 50, 51, 52, 53, 54, 55, 56, 57, 58, 59, 60, 61, 62, 63, 64, 65, 66, 67, 68, 69, 70, 71, 72, 73, 74, 75, 76, 77, 78, 79, 80, 81, 82, 83, 84, 85, 86, 87, 88, 89, 90, 91, 92, 93, 94, 95, 96, 97, 98, 99, 100, 101, 102, 103, 104, 105, 106, 107, 108, 109, 110, 111, 112, 113, 114, 115, 116, 117, 118, 119, 120, 121, 122, 123, 124, 125, 126, 127, 128, 129, 130, 131, 132, 133, 134, 135, 136, 137, 138, 139, 140, 141, 142, 143, 144, 145, 146, 147, 148, 149, 150, 151, 152, 153, 154, 155, 156, 157, 158, 159, 160, 161, 162, 163, 164, 165, 166, 167, 168, 169, 170, 171, 172, 173, 174, 175, 176, 177, 178, 179, 180, 181, 182, 183, 184, 185, 186, 187, 188, 189, 190, 191, 192, 193, 194, 195, 196, 197, 198, 199, 200, 201, 202, 203, 204, 205, 206, 207, 208, 209, 210, 211, 212, 213, 214, 215, 216, 217, 218, 219, 220, 221, 222, 223, 224, 225, 226, 227, 228, 229, 230, 231, 232, 233, 234, 235, 236, 237, 238, 239, 240, 241, 242, 243, 244, 245, 246, 247, 248, 249, 250, 251, 252, 253, 254, 255, 256, 257, 258, 259, 260, 261, 262, 263, 264, 265, 266, 267, 268, 269, 270, 271, 272, 273, 274, 275, 276, 277, 278, 279, 280, 281, 282, 283, 284, 285, 286, 287, 288, 289, 290, 291, 292, 293, 294, 295, 296, 297, 298, 299, 300, 301, 302, 303, 304, 305, 306, 307, 308, 309, 310, 311, 312, 313, 314, 315, 316, 317, 318, 319, 320, 321, 322, 323, 324, 325, 326, 327, 328, 329, 330, 331, 332, 333, 334, 335, 336, 337, 338, 339, 340, 341, 342, 343, 344, 345, 346, 347, 348, 349, 350, 351, 352, 353, 354, 355, 356, 357, 358, 359, 360, 361, 362, 363, 364, 365, 366, 367, 368, 369, 370, 371, 372, 373, 374, 375, 376, 377, 378, 379, 380, 381, 382, 383, 384, 385, 386, 387, 388, 389, 390, 391, 392],
