{
  "AcquisitionMatrixPE": 88,
  "AcquisitionNumber": 1,
  "AcquisitionTime": "09:10:28.422500",
  "BandwidthPerPixelPhaseEncode": 19.592,
  "BaseResolution": 88,
  "BodyPartExamined": "BRAIN",
  "ConsistencyInfo": "N4_VE11C_LATEST_20160120",
  "ConversionSoftware": "dcm2niix",
  "ConversionSoftwareVersion": "v1.0.20190902",
  "DerivedVendorReportedEchoSpacing": 0.000580014,
  "DeviceSerialNumber": "67050",
  "DwellTime": 2.6e-06,
  "EchoTime": 0.033,
  "EchoTrainLength": 88,
  "EffectiveEchoSpacing": 0.000580014,
  "FlipAngle": 62,
  "ImageOrientationPatientDICOM": [0.998696, 0.00263815, 0.0509839, -0.00505487, 0.998866, 0.0473311],
  "ImageType": [
    "ORIGINAL",
    "PRIMARY",
    "M",
    "ND",
    "MOSAIC"
],
  "ImagingFrequency": 123.251,
  "InPlanePhaseEncodingDirectionDICOM": "COL",
  "InstitutionAddress": "Olive_Street_60_Providence_RI_US_02912",
  "InstitutionName": "BROWN_UNIVERSITY_MRF",
  "InstitutionalDepartmentName": "Department",
  "MRAcquisitionType": "2D",
  "MagneticFieldStrength": 3,
  "Manufacturer": "Siemens",
  "ManufacturersModelName": "Prisma_fit",
  "Modality": "MR",
  "MultibandAccelerationFactor": 4,
  "PartialFourier": 1,
  "PatientPosition": "HFS",
  "PercentPhaseFOV": 100,
  "PhaseEncodingDirection": "j-",
  "PhaseEncodingSteps": 88,
  "PhaseResolution": 1,
  "PixelBandwidth": 2185,
  "ProcedureStepDescription": "ASHENHAV_1222",
  "ProtocolName": "func-bold_task-RDMcolor_run-01",
  "PulseSequenceDetails": "%SiemensSeq%_ep2d_bold",
  "ReceiveCoilActiveElements": "HC1-7;NC1",
  "ReceiveCoilName": "HeadNeck_64",
  "ReconMatrixPE": 88,
  "RefLinesPE": 8,
  "RepetitionTime": 1.2,
  "SAR": 0.0562755,
  "ScanOptions": "FS",
  "ScanningSequence": "EP",
  "SequenceName": "_epfid2d1_88",
  "SequenceVariant": "SK",
  "SeriesDescription": "func-bold_task-RDMcolor_run-01",
  "SeriesNumber": 8,
  "ShimSetting": [1748, -9121, 4431, 338, -71, -222, 97, -19],
  "SliceThickness": 2.4,
  "SliceTiming": [0.55, 0, 0.6275, 0.0775, 0.7075, 0.1575, 0.785, 0.235, 0.865, 0.315, 0.9425, 0.3925, 1.0225, 0.4725, 1.1, 0.55, 0, 0.6275, 0.0775, 0.7075, 0.1575, 0.785, 0.235, 0.865, 0.315, 0.9425, 0.3925, 1.0225, 0.4725, 1.1, 0.55, 0, 0.6275, 0.0775, 0.7075, 0.1575, 0.785, 0.235, 0.865, 0.315, 0.9425, 0.3925, 1.0225, 0.4725, 1.1, 0.55, 0, 0.6275, 0.0775, 0.7075, 0.1575, 0.785, 0.235, 0.865, 0.315, 0.9425, 0.3925, 1.0225, 0.4725, 1.1],
  "SoftwareVersions": "syngo_MR_E11",
  "SpacingBetweenSlices": 2.4,
  "StationName": "AWP67050",
  "TaskName": "RDMcolor",
  "TotalReadoutTime": 0.0504612,
  "TxRefAmp": 237.206,
  "dcmmeta_affine": [
    [-2.3946006298065186, -0.012120209634304047, 0.12192308157682419, 104.74176025390625],
    [-0.006325559224933386, 2.3950092792510986, 0.11406498402357101, -97.3941421508789],
    [0.12224558740854263, -0.11348702013492584, 2.3941855430603027, -61.20684814453125],
    [0.0, 0.0, 0.0, 1.0]
],
  "dcmmeta_reorient_transform": [
    [0.0, -1.0, 0.0, 87.0],
    [1.0, 0.0, 0.0, 0.0],
    [0.0, 0.0, 1.0, 0.0],
    [0.0, 0.0, 0.0, 1.0]
],
  "dcmmeta_shape": [88, 88, 60, 392],
  "dcmmeta_slice_dim": 2,
  "dcmmeta_version": 0.6,
  "global": {
    "const": {
      "AcquisitionMatrix": [88, 0, 0, 88],
      "AngioFlag": "N",
      "BitsAllocated": 16,
      "BitsStored": 12,
      "BodyPartExamined": "BRAIN",
      "Columns": 704,
      "DeidentificationMethodCodeSequence": [
        {
          "CodeMeaning": "XNAT DicomEdit 6 Script",
          "CodeValue": "3",
          "CodingSchemeDesignator": "XNAT",
          "CodingSchemeVersion": "1.0"}
],
      "EchoNumbers": 1,
      "EchoTime": 33.0,
      "EchoTrainLength": 88,
      "FlipAngle": 62.0,
      "HighBit": 11,
      "ImageOrientationPatient": [0.99869598869741, 0.00263814799459, 0.05098394193141, -0.0050548741546, 0.99886646616035, 0.0473310788766],
      "ImagePositionPatient": [-837.49125907264, -850.58282015087, -143.68586173619],
      "ImageType": [
        "ORIGINAL",
        "PRIMARY",
        "M",
        "ND",
        "MOSAIC"
],
      "ImagedNucleus": "1H",
      "ImagingFrequency": 123.250675,
      "InPlanePhaseEncodingDirection": "COL",
      "MRAcquisitionType": "2D",
      "MagneticFieldStrength": 3.0,
      "Manufacturer": "SIEMENS",
      "ManufacturerModelName": "Prisma_fit",
      "Modality": "MR",
      "NumberOfAverages": 1.0,
      "NumberOfPhaseEncodingSteps": 88,
      "PercentPhaseFieldOfView": 100.0,
      "PercentSampling": 100.0,
      "PerformedProcedureStepStartTime": "084905.533000",
      "PhotometricInterpretation": "MONOCHROME2",
      "PixelBandwidth": 2185.0,
      "PixelRepresentation": 0,
      "PixelSpacing": [2.3977272510529, 2.3977272510529],
      "ProtocolName": "func-bold_task-RDMcolor_run-01",
      "RepetitionTime": 1200.0,
      "Rows": 704,
      "SAR": 0.0562755128823,
      "SamplesPerPixel": 1,
      "ScanOptions": "FS",
      "ScanningSequence": "EP",
      "SequenceName": "*epfid2d1_88",
      "SequenceVariant": "SK",
      "SeriesDescription": "func-bold_task-RDMcolor_run-01",
      "SeriesNumber": 8,
      "SeriesTime": "091110.760000",
      "SliceLocation": -60.366404219285,
      "SliceThickness": 2.4000000953674,
      "SmallestImagePixelValue": 0,
      "SoftwareVersions": "syngo MR E11",
      "SpacingBetweenSlices": 2.4000000258634,
      "SpecificCharacterSet": "ISO_IR 100",
      "StudyID": "1",
      "StudyTime": "084905.367000",
      "TransmitCoilName": "Body",
      "VariableFlipAngleFlag": "N",
      "WindowCenterWidthExplanation": "Algo1",
      "dBdt": 0.0},
    "slices": {}
  },
  "time": {
    "samples": {
      "AcquisitionNumber": [1, 2, 3, 4, 5, 6, 7, 8, 9, 10, 11, 12, 13, 14, 15, 16, 17, 18, 19, 20, 21, 22, 23, 24, 25, 26, 27, 28, 29, 30, 31, 32, 33, 34, 35, 36, 37, 38, 39, 40, 41, 42, 43, 44, 45, 46, 47, 48, 49, 50, 51, 52, 53, 54, 55, 56, 57, 58, 59, 60, 61, 62, 63, 64, 65, 66, 67, 68, 69, 70, 71, 72, 73, 74, 75, 76, 77, 78, 79, 80, 81, 82, 83, 84, 85, 86, 87, 88, 89, 90, 91, 92, 93, 94, 95, 96, 97, 98, 99, 100, 101, 102, 103, 104, 105, 106, 107, 108, 109, 110, 111, 112, 113, 114, 115, 116, 117, 118, 119, 120, 121, 122, 123, 124, 125, 126, 127, 128, 129, 130, 131, 132, 133, 134, 135, 136, 137, 138, 139, 140, 141, 142, 143, 144, 145, 146, 147, 148, 149, 150, 151, 152, 153, 154, 155, 156, 157, 158, 159, 160, 161, 162, 163, 164, 165, 166, 167, 168, 169, 170, 171, 172, 173, 174, 175, 176, 177, 178, 179, 180, 181, 182, 183, 184, 185, 186, 187, 188, 189, 190, 191, 192, 193, 194, 195, 196, 197, 198, 199, 200, 201, 202, 203, 204, 205, 206, 207, 208, 209, 210, 211, 212, 213, 214, 215, 216, 217, 218, 219, 220, 221, 222, 223, 224, 225, 226, 227, 228, 229, 230, 231, 232, 233, 234, 235, 236, 237, 238, 239, 240, 241, 242, 243, 244, 245, 246, 247, 248, 249, 250, 251, 252, 253, 254, 255, 256, 257, 258, 259, 260, 261, 262, 263, 264, 265, 266, 267, 268, 269, 270, 271, 272, 273, 274, 275, 276, 277, 278, 279, 280, 281, 282, 283, 284, 285, 286, 287, 288, 289, 290, 291, 292, 293, 294, 295, 296, 297, 298, 299, 300, 301, 302, 303, 304, 305, 306, 307, 308, 309, 310, 311, 312, 313, 314, 315, 316, 317, 318, 319, 320, 321, 322, 323, 324, 325, 326, 327, 328, 329, 330, 331, 332, 333, 334, 335, 336, 337, 338, 339, 340, 341, 342, 343, 344, 345, 346, 347, 348, 349, 350, 351, 352, 353, 354, 355, 356, 357, 358, 359, 360, 361, 362, 363, 364, 365, 366, 367, 368, 369, 370, 371, 372, 373, 374, 375, 376, 377, 378, 379, 380, 381, 382, 383, 384, 385, 386, 387, 388, 389, 390, 391, 392],
      "AcquisitionTime": ["091028.422500", "091029.622500", "091030.822500", "091032.022500", "091033.222500", "091034.422500", "091035.622500", "091036.822500", "091038.022500", "091039.222500", "091040.422500", "091041.622500", "091042.822500", "091044.022500", "091045.222500", "091046.422500", "091047.622500", "091048.822500", "091050.022500", "091051.222500", "091052.422500", "091053.622500", "091054.822500", "091056.022500", "091057.222500", "091058.422500", "091059.622500", "091100.822500", "091102.022500", "091103.222500", "091104.422500", "091105.622500", "091106.822500", "091108.022500", "091109.222500", "091110.422500", "091111.622500", "091112.822500", "091114.022500", "091115.222500", "091116.422500", "091117.622500", "091118.822500", "091120.022500", "091121.222500", "091122.422500", "091123.622500", "091124.822500", "091126.022500", "091127.222500", "091128.422500", "091129.622500", "091130.822500", "091132.022500", "091133.222500", "091134.422500", "091135.622500", "091136.822500", "091138.022500", "091139.222500", "091140.422500", "091141.622500", "091142.822500", "091144.022500", "091145.222500", "091146.422500", "091147.622500", "091148.822500", "091150.022500", "091151.222500", "091152.422500", "091153.622500", "091154.822500", "091156.022500", "091157.222500", "091158.422500", "091159.622500", "091200.822500", "091202.022500", "091203.222500", "091204.422500", "091205.622500", "091206.822500", "091208.022500", "091209.222500", "091210.422500", "091211.622500", "091212.822500", "091214.022500", "091215.222500", "091216.422500", "091217.622500", "091218.822500", "091220.022500", "091221.222500", "091222.422500", "091223.622500", "091224.822500", "091226.022500", "091227.222500", "091228.422500", "091229.622500", "091230.822500", "091232.022500", "091233.222500", "091234.422500", "091235.622500", "091236.822500", "091238.022500", "091239.222500", "091240.422500", "091241.622500", "091242.822500", "091244.022500", "091245.222500", "091246.422500", "091247.622500", "091248.822500", "091250.022500", "091251.222500", "091252.422500", "091253.622500", "091254.822500", "091256.022500", "091257.222500", "091258.422500", "091259.622500", "091300.822500", "091302.022500", "091303.222500", "091304.422500", "091305.622500", "091306.822500", "091308.022500", "091309.222500", "091310.422500", "091311.622500", "091312.822500", "091314.022500", "091315.222500", "091316.422500", "091317.622500", "091318.822500", "091320.022500", "091321.222500", "091322.422500", "091323.622500", "091324.822500", "091326.022500", "091327.222500", "091328.422500", "091329.622500", "091330.822500", "091332.022500", "091333.222500", "091334.422500", "091335.622500", "091336.822500", "091338.022500", "091339.222500", "091340.422500", "091341.622500", "091342.822500", "091344.022500", "091345.222500", "091346.422500", "091347.622500", "091348.822500", "091350.022500", "091351.222500", "091352.422500", "091353.622500", "091354.822500", "091356.022500", "091357.222500", "091358.422500", "091359.622500", "091400.822500", "091402.022500", "091403.222500", "091404.422500", "091405.622500", "091406.822500", "091408.022500", "091409.222500", "091410.422500", "091411.622500", "091412.822500", "091414.022500", "091415.222500", "091416.422500", "091417.622500", "091418.822500", "091420.022500", "091421.222500", "091422.422500", "091423.622500", "091424.822500", "091426.022500", "091427.222500", "091428.422500", "091429.622500", "091430.822500", "091432.022500", "091433.222500", "091434.422500", "091435.622500", "091436.822500", "091438.022500", "091439.222500", "091440.422500", "091441.622500", "091442.822500", "091444.022500", "091445.222500", "091446.422500", "091447.622500", "091448.822500", "091450.022500", "091451.222500", "091452.422500", "091453.622500", "091454.822500", "091456.022500", "091457.222500", "091458.422500", "091459.622500", "091500.822500", "091502.022500", "091503.222500", "091504.422500", "091505.622500", "091506.822500", "091508.022500", "091509.222500", "091510.422500", "091511.622500", "091512.822500", "091514.022500", "091515.222500", "091516.422500", "091517.622500", "091518.822500", "091520.022500", "091521.222500", "091522.422500", "091523.622500", "091524.822500", "091526.022500", "091527.222500", "091528.422500", "091529.622500", "091530.822500", "091532.022500", "091533.222500", "091534.422500", "091535.622500", "091536.822500", "091538.022500", "091539.222500", "091540.422500", "091541.622500", "091542.822500", "091544.022500", "091545.222500", "091546.422500", "091547.622500", "091548.822500", "091550.022500", "091551.222500", "091552.422500", "091553.622500", "091554.822500", "091556.022500", "091557.222500", "091558.422500", "091559.622500", "091600.822500", "091602.022500", "091603.222500", "091604.422500", "091605.622500", "091606.822500", "091608.022500", "091609.222500", "091610.422500", "091611.622500", "091612.822500", "091614.022500", "091615.222500", "091616.422500", "091617.622500", "091618.822500", "091620.022500", "091621.222500", "091622.422500", "091623.622500", "091624.822500", "091626.022500", "091627.222500", "091628.422500", "091629.622500", "091630.822500", "091632.022500", "091633.222500", "091634.422500", "091635.622500", "091636.822500", "091638.022500", "091639.222500", "091640.422500", "091641.622500", "091642.822500", "091644.022500", "091645.222500", "091646.422500", "091647.622500", "091648.822500", "091650.022500", "091651.222500", "091652.422500", "091653.622500", "091654.822500", "091656.022500", "091657.222500", "091658.422500", "091659.622500", "091700.822500", "091702.022500", "091703.222500", "091704.422500", "091705.622500", "091706.822500", "091708.022500", "091709.222500", "091710.422500", "091711.622500", "091712.822500", "091714.022500", "091715.222500", "091716.422500", "091717.622500", "091718.822500", "091720.022500", "091721.222500", "091722.422500", "091723.622500", "091724.822500", "091726.022500", "091727.222500", "091728.422500", "091729.622500", "091730.822500", "091732.022500", "091733.222500", "091734.422500", "091735.622500", "091736.822500", "091738.022500", "091739.222500", "091740.422500", "091741.622500", "091742.822500", "091744.022500", "091745.222500", "091746.422500", "091747.622500", "091748.822500", "091750.022500", "091751.222500", "091752.422500", "091753.622500", "091754.822500", "091756.022500", "091757.222500", "091758.422500", "091759.622500", "091800.822500", "091802.022500", "091803.222500", "091804.422500", "091805.622500", "091806.822500", "091808.022500", "091809.222500", "091810.422500", "091811.622500", "091812.822500", "091814.022500", "091815.222500", "091816.422500", "091817.622500"],
      "ContentTime": ["091110.763000", "091110.767000", "091110.769000", "091110.772000", "091110.775000", "091110.777000", "091110.780000", "091110.782000", "091110.785000", "091110.788000", "091110.790000", "091110.793000", "091110.795000", "091110.810000", "091110.813000", "091110.815000", "091110.818000", "091110.827000", "091110.830000", "091110.832000", "091110.835000", "091110.838000", "091110.840000", "091110.843000", "091110.846000", "091110.848000", "091110.851000", "091110.853000", "091110.856000", "091110.859000", "091110.861000", "091110.864000", "091110.866000", "091110.869000", "091150.758000", "091150.761000", "091150.764000", "091150.767000", "091150.769000", "091150.776000", "091150.779000", "091150.782000", "091150.785000", "091150.787000", "091150.790000", "091150.792000", "091150.795000", "091150.798000", "091150.800000", "091150.803000", "091150.806000", "091150.808000", "091150.815000", "091150.818000", "091150.820000", "091150.823000", "091150.826000", "091150.828000", "091150.831000", "091150.834000", "091150.836000", "091150.839000", "091150.842000", "091150.845000", "091150.848000", "091150.860000", "091150.863000", "091150.865000", "091230.758000", "091230.761000", "091230.764000", "091230.766000", "091230.769000", "091230.772000", "091230.775000", "091230.777000", "091230.780000", "091230.782000", "091230.785000", "091230.788000", "091230.790000", "091230.793000", "091230.796000", "091230.799000", "091230.801000", "091230.804000", "091230.806000", "091230.809000", "091230.826000", "091230.829000", "091230.832000", "091230.834000", "091230.837000", "091230.839000", "091230.842000", "091230.845000", "091230.847000", "091230.850000", "091230.852000", "091230.855000", "091230.857000", "091310.758000", "091310.761000", "091310.764000", "091310.767000", "091310.769000", "091310.772000", "091310.775000", "091310.777000", "091310.780000", "091310.783000", "091310.785000", "091310.788000", "091310.790000", "091310.793000", "091310.809000", "091310.812000", "091310.814000", "091310.817000", "091310.820000", "091310.822000", "091310.825000", "091310.827000", "091310.830000", "091310.833000", "091310.836000", "091310.838000", "091310.841000", "091310.844000", "091310.846000", "091310.849000", "091310.852000", "091310.854000", "091310.857000", "091350.759000", "091350.770000", "091350.772000", "091350.775000", "091350.778000", "091350.780000", "091350.783000", "091350.786000", "091350.788000", "091350.791000", "091350.794000", "091350.796000", "091350.799000", "091350.802000", "091350.804000", "091350.807000", "091350.810000", "091350.812000", "091350.815000", "091350.818000", "091350.820000", "091350.823000", "091350.826000", "091350.828000", "091350.831000", "091350.834000", "091350.836000", "091350.839000", "091350.841000", "091350.844000", "091350.847000", "091350.849000", "091350.852000", "091350.855000", "091430.759000", "091430.762000", "091430.765000", "091430.768000", "091430.771000", "091430.773000", "091430.776000", "091430.778000", "091430.781000", "091430.784000", "091430.786000", "091430.789000", "091430.792000", "091430.794000", "091430.797000", "091430.799000", "091430.802000", "091430.805000", "091430.807000", "091430.810000", "091430.813000", "091430.815000", "091430.818000", "091430.821000", "091430.823000", "091430.826000", "091430.829000", "091430.831000", "091430.834000", "091430.836000", "091430.839000", "091430.842000", "091430.844000", "091510.759000", "091510.762000", "091510.764000", "091510.767000", "091510.770000", "091510.772000", "091510.775000", "091510.778000", "091510.791000", "091510.793000", "091510.796000", "091510.799000", "091510.801000", "091510.804000", "091510.807000", "091510.809000", "091510.817000", "091510.819000", "091510.822000", "091510.824000", "091510.827000", "091510.830000", "091510.832000", "091510.835000", "091510.838000", "091510.840000", "091510.843000", "091510.845000", "091510.848000", "091510.851000", "091510.853000", "091510.863000", "091510.866000", "091550.758000", "091550.769000", "091550.772000", "091550.774000", "091550.777000", "091550.780000", "091550.782000", "091550.785000", "091550.788000", "091550.790000", "091550.793000", "091550.796000", "091550.799000", "091550.801000", "091550.804000", "091550.806000", "091550.809000", "091550.812000", "091550.814000", "091550.817000", "091550.820000", "091550.822000", "091550.825000", "091550.827000", "091550.830000", "091550.833000", "091550.835000", "091550.838000", "091550.840000", "091550.843000", "091550.846000", "091550.848000", "091550.851000", "091550.853000", "091630.759000", "091630.761000", "091630.764000", "091630.767000", "091630.770000", "091630.772000", "091630.775000", "091630.777000", "091630.780000", "091630.783000", "091630.785000", "091630.788000", "091630.791000", "091630.793000", "091630.796000", "091630.798000", "091630.801000", "091630.804000", "091630.807000", "091630.809000", "091630.812000", "091630.815000", "091630.826000", "091630.829000", "091630.832000", "091630.834000", "091630.837000", "091630.839000", "091630.842000", "091630.845000", "091630.847000", "091630.850000", "091630.853000", "091710.759000", "091710.771000", "091710.774000", "091710.776000", "091710.779000", "091710.782000", "091710.784000", "091710.793000", "091710.796000", "091710.799000", "091710.801000", "091710.804000", "091710.807000", "091710.809000", "091710.812000", "091710.815000", "091710.817000", "091710.820000", "091710.822000", "091710.825000", "091710.828000", "091710.830000", "091710.833000", "091710.836000", "091710.838000", "091710.841000", "091710.843000", "091710.846000", "091710.849000", "091710.851000", "091710.854000", "091710.857000", "091710.859000", "091730.759000", "091730.762000", "091730.764000", "091730.767000", "091730.770000", "091730.772000", "091730.775000", "091730.777000", "091730.780000", "091730.783000", "091730.785000", "091730.788000", "091730.790000", "091730.793000", "091730.796000", "091730.798000", "091730.801000", "091810.759000", "091810.761000", "091810.764000", "091810.767000", "091810.770000", "091810.772000", "091810.775000", "091810.778000", "091810.780000", "091810.783000", "091810.785000", "091810.788000", "091810.791000", "091810.793000", "091810.796000", "091810.799000", "091810.801000", "091810.804000", "091810.806000", "091810.809000", "091810.812000", "091810.814000", "091810.817000", "091810.819000", "091810.822000", "091810.832000", "091810.834000", "091810.837000", "091810.840000", "091810.842000", "091810.845000", "091810.847000", "091810.850000", "091819.545000", "091819.548000", "091819.551000", "091819.554000", "091819.556000", "091819.559000", "091819.562000", "091819.564000"],
      "InstanceCreationTime": ["091110.763000", "091110.767000", "091110.769000", "091110.772000", "091110.775000", "091110.777000", "091110.780000", "091110.782000", "091110.785000", "091110.788000", "091110.790000", "091110.793000", "091110.795000", "091110.810000", "091110.813000", "091110.815000", "091110.818000", "091110.827000", "091110.830000", "091110.832000", "091110.835000", "091110.838000", "091110.840000", "091110.843000", "091110.846000", "091110.848000", "091110.851000", "091110.853000", "091110.856000", "091110.859000", "091110.861000", "091110.864000", "091110.866000", "091110.869000", "091150.758000", "091150.761000", "091150.764000", "091150.767000", "091150.769000", "091150.776000", "091150.779000", "091150.782000", "091150.785000", "091150.787000", "091150.790000", "091150.792000", "091150.795000", "091150.798000", "091150.800000", "091150.803000", "091150.806000", "091150.808000", "091150.815000", "091150.818000", "091150.820000", "091150.823000", "091150.826000", "091150.828000", "091150.831000", "091150.834000", "091150.836000", "091150.839000", "091150.842000", "091150.845000", "091150.848000", "091150.860000", "091150.863000", "091150.865000", "091230.758000", "091230.761000", "091230.764000", "091230.766000", "091230.769000", "091230.772000", "091230.775000", "091230.777000", "091230.780000", "091230.782000", "091230.785000", "091230.788000", "091230.790000", "091230.793000", "091230.796000", "091230.799000", "091230.801000", "091230.804000", "091230.806000", "091230.809000", "091230.826000", "091230.829000", "091230.832000", "091230.834000", "091230.837000", "091230.839000", "091230.842000", "091230.845000", "091230.847000", "091230.850000", "091230.852000", "091230.855000", "091230.857000", "091310.758000", "091310.761000", "091310.764000", "091310.767000", "091310.769000", "091310.772000", "091310.775000", "091310.777000", "091310.780000", "091310.783000", "091310.785000", "091310.788000", "091310.790000", "091310.793000", "091310.809000", "091310.812000", "091310.814000", "091310.817000", "091310.820000", "091310.822000", "091310.825000", "091310.827000", "091310.830000", "091310.833000", "091310.836000", "091310.838000", "091310.841000", "091310.844000", "091310.846000", "091310.849000", "091310.852000", "091310.854000", "091310.857000", "091350.759000", "091350.770000", "091350.772000", "091350.775000", "091350.778000", "091350.780000", "091350.783000", "091350.786000", "091350.788000", "091350.791000", "091350.794000", "091350.796000", "091350.799000", "091350.802000", "091350.804000", "091350.807000", "091350.810000", "091350.812000", "091350.815000", "091350.818000", "091350.820000", "091350.823000", "091350.826000", "091350.828000", "091350.831000", "091350.834000", "091350.836000", "091350.839000", "091350.841000", "091350.844000", "091350.847000", "091350.849000", "091350.852000", "091350.855000", "091430.759000", "091430.762000", "091430.765000", "091430.768000", "091430.771000", "091430.773000", "091430.776000", "091430.778000", "091430.781000", "091430.784000", "091430.786000", "091430.789000", "091430.792000", "091430.794000", "091430.797000", "091430.799000", "091430.802000", "091430.805000", "091430.807000", "091430.810000", "091430.813000", "091430.815000", "091430.818000", "091430.821000", "091430.823000", "091430.826000", "091430.829000", "091430.831000", "091430.834000", "091430.836000", "091430.839000", "091430.842000", "091430.844000", "091510.759000", "091510.762000", "091510.764000", "091510.767000", "091510.770000", "091510.772000", "091510.775000", "091510.778000", "091510.791000", "091510.793000", "091510.796000", "091510.799000", "091510.801000", "091510.804000", "091510.807000", "091510.809000", "091510.817000", "091510.819000", "091510.822000", "091510.824000", "091510.827000", "091510.830000", "091510.832000", "091510.835000", "091510.838000", "091510.840000", "091510.843000", "091510.845000", "091510.848000", "091510.851000", "091510.853000", "091510.863000", "091510.866000", "091550.758000", "091550.769000", "091550.772000", "091550.774000", "091550.777000", "091550.780000", "091550.782000", "091550.785000", "091550.788000", "091550.790000", "091550.793000", "091550.796000", "091550.799000", "091550.801000", "091550.804000", "091550.806000", "091550.809000", "091550.812000", "091550.814000", "091550.817000", "091550.820000", "091550.822000", "091550.825000", "091550.827000", "091550.830000", "091550.833000", "091550.835000", "091550.838000", "091550.840000", "091550.843000", "091550.846000", "091550.848000", "091550.851000", "091550.853000", "091630.759000", "091630.761000", "091630.764000", "091630.767000", "091630.770000", "091630.772000", "091630.775000", "091630.777000", "091630.780000", "091630.783000", "091630.785000", "091630.788000", "091630.791000", "091630.793000", "091630.796000", "091630.798000", "091630.801000", "091630.804000", "091630.807000", "091630.809000", "091630.812000", "091630.815000", "091630.826000", "091630.829000", "091630.832000", "091630.834000", "091630.837000", "091630.839000", "091630.842000", "091630.845000", "091630.847000", "091630.850000", "091630.853000", "091710.759000", "091710.771000", "091710.774000", "091710.776000", "091710.779000", "091710.782000", "091710.784000", "091710.793000", "091710.796000", "091710.799000", "091710.801000", "091710.804000", "091710.807000", "091710.809000", "091710.812000", "091710.815000", "091710.817000", "091710.820000", "091710.822000", "091710.825000", "091710.828000", "091710.830000", "091710.833000", "091710.836000", "091710.838000", "091710.841000", "091710.843000", "091710.846000", "091710.849000", "091710.851000", "091710.854000", "091710.857000", "091710.859000", "091730.759000", "091730.762000", "091730.764000", "091730.767000", "091730.770000", "091730.772000", "091730.775000", "091730.777000", "091730.780000", "091730.783000", "091730.785000", "091730.788000", "091730.790000", "091730.793000", "091730.796000", "091730.798000", "091730.801000", "091810.759000", "091810.761000", "091810.764000", "091810.767000", "091810.770000", "091810.772000", "091810.775000", "091810.778000", "091810.780000", "091810.783000", "091810.785000", "091810.788000", "091810.791000", "091810.793000", "091810.796000", "091810.799000", "091810.801000", "091810.804000", "091810.806000", "091810.809000", "091810.812000", "091810.814000", "091810.817000", "091810.819000", "091810.822000", "091810.832000", "091810.834000", "091810.837000", "091810.840000", "091810.842000", "091810.845000", "091810.847000", "091810.850000", "091819.545000", "091819.548000", "091819.551000", "091819.554000", "091819.556000", "091819.559000", "091819.562000", "091819.564000"],
      "InstanceNumber": [1, 2, 3, 4, 5, 6, 7, 8, 9, 10, 11, 12, 13, 14, 15, 16, 17, 18, 19, 20, 21, 22, 23, 24, 25, 26, 27, 28, 29, 30, 31, 32, 33, 34, 35, 36, 37, 38, 39, 40, 41, 42, 43, 44, 45, 46, 47, 48, 49, 50, 51, 52, 53, 54, 55, 56, 57, 58, 59, 60, 61, 62, 63, 64, 65, 66, 67, 68, 69, 70, 71, 72, 73, 74, 75, 76, 77, 78, 79, 80, 81, 82, 83, 84, 85, 86, 87, 88, 89, 90, 91, 92, 93, 94, 95, 96, 97, 98, 99, 100, 101, 102, 103, 104, 105, 106, 107, 108, 109, 110, 111, 112, 113, 114, 115, 116, 117, 118, 119, 120, 121, 122, 123, 124, 125, 126, 127, 128, 129, 130, 131, 132, 133, 134, 135, 136, 137, 138, 139, 140, 141, 142, 143, 144, 145, 146, 147, 148, 149, 150, 151, 152, 153, 154, 155, 156, 157, 158, 159, 160, 161, 162, 163, 164, 165, 166, 167, 168, 169, 170, 171, 172, 173, 174, 175, 176, 177, 178, 179, 180, 181, 182, 183, 184, 185, 186, 187, 188, 189, 190, 191, 192, 193, 194, 195, 196, 197, 198, 199, 200, 201, 202, 203, 204, 205, 206, 207, 208, 209, 210, 211, 212, 213, 214, 215, 216, 217, 218, 219, 220, 221, 222, 223, 224, 225, 226, 227, 228, 229, 230, 231, 232, 233, 234, 235, 236, 237, 238, 239, 240, 241, 242, 243, 244, 245, 246, 247, 248, 249, 250, 251, 252, 253, 254, 255, 256, 257, 258, 259, 260, 261, 262, 263, 264, 265, 266, 267, 268, 269, 270, 271, 272, 273, 274, 275, 276, 277, 278, 279, 280, 281, 282, 283, 284, 285, 286, 287, 288, 289, 290, 291, 292, 293, 294, 295, 296, 297, 298, 299, 300, 301, 302, 303, 304, 305, 306, 307, 308, 309, 310, 311, 312, 313, 314, 315, 316, 317, 318, 319, 320, 321, 322, 323, 324, 325, 326, 327, 328, 329, 330, 331, 332, 333, 334, 335, 336, 337, 338, 339, 340, 341, 342, 343, 344, 345, 346, 347, 348, 349, 350, 351, 352, 353, 354, 355, 356, 357, 358, 359, 360, 361, 362, 363, 364, 365, 366, 367, 368, 369, 370, 371, 372, 373, 374, 375, 376, 377, 378, 379, 380, 381, 382, 383, 384, 385, 386, 387, 388, 389, 390, 391, 392],
