{
  "AcquisitionMatrixPE": 88,
  "AcquisitionNumber": 1,
  "AcquisitionTime": "09:18:55.142500",
  "BandwidthPerPixelPhaseEncode": 19.592,
  "BaseResolution": 88,
  "BodyPartExamined": "BRAIN",
  "ConsistencyInfo": "N4_VE11C_LATEST_20160120",
  "ConversionSoftware": "dcm2niix",
  "ConversionSoftwareVersion": "v1.0.20190902",
  "DerivedVendorReportedEchoSpacing": 0.000580014,
  "DeviceSerialNumber": "67050",
  "DwellTime": 2.6e-06,
  "EchoTime": 0.033,
  "EchoTrainLength": 88,
  "EffectiveEchoSpacing": 0.000580014,
  "FlipAngle": 62,
  "ImageOrientationPatientDICOM": [0.998696, 0.00263815, 0.0509839, -0.00505487, 0.998866, 0.0473311],
  "ImageType": [
    "ORIGINAL",
    "PRIMARY",
    "M",
    "ND",
    "MOSAIC"
],
  "ImagingFrequency": 123.251,
  "InPlanePhaseEncodingDirectionDICOM": "COL",
  "InstitutionAddress": "Olive_Street_60_Providence_RI_US_02912",
  "InstitutionName": "BROWN_UNIVERSITY_MRF",
  "InstitutionalDepartmentName": "Department",
  "MRAcquisitionType": "2D",
  "MagneticFieldStrength": 3,
  "Manufacturer": "Siemens",
  "ManufacturersModelName": "Prisma_fit",
  "Modality": "MR",
  "MultibandAccelerationFactor": 4,
  "PartialFourier": 1,
  "PatientPosition": "HFS",
  "PercentPhaseFOV": 100,
  "PhaseEncodingDirection": "j-",
  "PhaseEncodingSteps": 88,
  "PhaseResolution": 1,
  "PixelBandwidth": 2185,
  "ProcedureStepDescription": "ASHENHAV_1222",
  "ProtocolName": "func-bold_task-RDMmotion_run-02",
  "PulseSequenceDetails": "%SiemensSeq%_ep2d_bold",
  "ReceiveCoilActiveElements": "HC1-7;NC1",
  "ReceiveCoilName": "HeadNeck_64",
  "ReconMatrixPE": 88,
  "RefLinesPE": 8,
  "RepetitionTime": 1.2,
  "SAR": 0.0557043,
  "ScanOptions": "FS",
  "ScanningSequence": "EP",
  "SequenceName": "_epfid2d1_88",
  "SequenceVariant": "SK",
  "SeriesDescription": "func-bold_task-RDMmotion_run-02",
  "SeriesNumber": 9,
  "ShimSetting": [1748, -9121, 4431, 338, -71, -222, 97, -19],
  "SliceThickness": 2.4,
  "SliceTiming": [0.55, 0, 0.63, 0.08, 0.7075, 0.1575, 0.7875, 0.2375, 0.865, 0.315, 0.945, 0.3925, 1.0225, 0.4725, 1.1025, 0.55, 0, 0.63, 0.08, 0.7075, 0.1575, 0.7875, 0.2375, 0.865, 0.315, 0.945, 0.3925, 1.0225, 0.4725, 1.1025, 0.55, 0, 0.63, 0.08, 0.7075, 0.1575, 0.7875, 0.2375, 0.865, 0.315, 0.945, 0.3925, 1.0225, 0.4725, 1.1025, 0.55, 0, 0.63, 0.08, 0.7075, 0.1575, 0.7875, 0.2375, 0.865, 0.315, 0.945, 0.3925, 1.0225, 0.4725, 1.1025],
  "SoftwareVersions": "syngo_MR_E11",
  "SpacingBetweenSlices": 2.4,
  "StationName": "AWP67050",
  "TaskName": "RDMmotion",
  "TotalReadoutTime": 0.0504612,
  "TxRefAmp": 237.206,
  "dcmmeta_affine": [
    [-2.3946006298065186, -0.012120209634304047, 0.12192308157682419, 104.74176025390625],
    [-0.006325559224933386, 2.3950092792510986, 0.11406498402357101, -97.3941421508789],
    [0.12224558740854263, -0.11348702013492584, 2.3941855430603027, -61.20684814453125],
    [0.0, 0.0, 0.0, 1.0]
],
  "dcmmeta_reorient_transform": [
    [0.0, -1.0, 0.0, 87.0],
    [1.0, 0.0, 0.0, 0.0],
    [0.0, 0.0, 1.0, 0.0],
    [0.0, 0.0, 0.0, 1.0]
],
  "dcmmeta_shape": [88, 88, 60, 125],
  "dcmmeta_slice_dim": 2,
  "dcmmeta_version": 0.6,
  "global": {
    "const": {
      "AcquisitionMatrix": [88, 0, 0, 88],
      "AngioFlag": "N",
      "BitsAllocated": 16,
      "BitsStored": 12,
      "BodyPartExamined": "BRAIN",
      "Columns": 704,
      "DeidentificationMethodCodeSequence": [
        {
          "CodeMeaning": "XNAT DicomEdit 6 Script",
          "CodeValue": "3",
          "CodingSchemeDesignator": "XNAT",
          "CodingSchemeVersion": "1.0"}
],
      "EchoNumbers": 1,
      "EchoTime": 33.0,
      "EchoTrainLength": 88,
      "FlipAngle": 62.0,
      "HighBit": 11,
      "ImageOrientationPatient": [0.99869598869741, 0.00263814799459, 0.05098394193141, -0.0050548741546, 0.99886646616035, 0.0473310788766],
      "ImagePositionPatient": [-837.49125907264, -850.58282015087, -143.68586173619],
      "ImageType": [
        "ORIGINAL",
        "PRIMARY",
        "M",
        "ND",
        "MOSAIC"
],
      "ImagedNucleus": "1H",
      "ImagingFrequency": 123.250681,
      "InPlanePhaseEncodingDirection": "COL",
      "MRAcquisitionType": "2D",
      "MagneticFieldStrength": 3.0,
      "Manufacturer": "SIEMENS",
      "ManufacturerModelName": "Prisma_fit",
      "Modality": "MR",
      "NumberOfAverages": 1.0,
      "NumberOfPhaseEncodingSteps": 88,
      "PercentPhaseFieldOfView": 100.0,
      "PercentSampling": 100.0,
      "PerformedProcedureStepStartTime": "084905.533000",
      "PhotometricInterpretation": "MONOCHROME2",
      "PixelBandwidth": 2185.0,
      "PixelRepresentation": 0,
      "PixelSpacing": [2.3977272510529, 2.3977272510529],
      "ProtocolName": "func-bold_task-RDMmotion_run-02",
      "RepetitionTime": 1200.0,
      "Rows": 704,
      "SAR": 0.05570429375917,
      "SamplesPerPixel": 1,
      "ScanOptions": "FS",
      "ScanningSequence": "EP",
      "SequenceName": "*epfid2d1_88",
      "SequenceVariant": "SK",
      "SeriesDescription": "func-bold_task-RDMmotion_run-02",
      "SeriesNumber": 9,
      "SeriesTime": "091932.112000",
      "SliceLocation": -60.366404219285,
      "SliceThickness": 2.4000000953674,
      "SmallestImagePixelValue": 0,
      "SoftwareVersions": "syngo MR E11",
      "SpacingBetweenSlices": 2.4000000258634,
      "SpecificCharacterSet": "ISO_IR 100",
      "StudyID": "1",
      "StudyTime": "084905.367000",
      "TransmitCoilName": "Body",
      "VariableFlipAngleFlag": "N",
      "WindowCenterWidthExplanation": "Algo1",
      "dBdt": 0.0},
    "slices": {}
  },
  "time": {
    "samples": {
      "AcquisitionNumber": [1, 2, 3, 4, 5, 6, 7, 8, 9, 10, 11, 12, 13, 14, 15, 16, 17, 18, 19, 20, 21, 22, 23, 24, 25, 26, 27, 28, 29, 30, 31, 32, 33, 34, 35, 36, 37, 38, 39, 40, 41, 42, 43, 44, 45, 46, 47, 48, 49, 50, 51, 52, 53, 54, 55, 56, 57, 58, 59, 60, 61, 62, 63, 64, 65, 66, 67, 68, 69, 70, 71, 72, 73, 74, 75, 76, 77, 78, 79, 80, 81, 82, 83, 84, 85, 86, 87, 88, 89, 90, 91, 92, 93, 94, 95, 96, 97, 98, 99, 100, 101, 102, 103, 104, 105, 106, 107, 108, 109, 110, 111, 112, 113, 114, 115, 116, 117, 118, 119, 120, 121, 122, 123, 124, 125],
      "AcquisitionTime": ["091855.142500", "091856.342500", "091857.542500", "091858.742500", "091859.942500", "091901.142500", "091902.342500", "091903.542500", "091904.742500", "091905.942500", "091907.142500", "091908.342500", "091909.542500", "091910.742500", "091911.942500", "091913.142500", "091914.342500", "091915.542500", "091916.742500", "091917.942500", "091919.142500", "091920.342500", "091921.542500", "091922.742500", "091923.942500", "091925.142500", "091926.342500", "091927.542500", "091928.742500", "091929.942500", "091931.142500", "091932.342500", "091933.542500", "091934.742500", "091935.942500", "091937.142500", "091938.342500", "091939.542500", "091940.742500", "091941.942500", "091943.142500", "091944.342500", "091945.542500", "091946.742500", "091947.942500", "091949.142500", "091950.342500", "091951.542500", "091952.742500", "091953.942500", "091955.142500", "091956.342500", "091957.542500", "091958.742500", "091959.942500", "092001.142500", "092002.342500", "092003.542500", "092004.742500", "092005.942500", "092007.142500", "092008.342500", "092009.542500", "092010.742500", "092011.942500", "092013.142500", "092014.342500", "092015.542500", "092016.742500", "092017.942500", "092019.142500", "092020.342500", "092021.542500", "092022.742500", "092023.942500", "092025.142500", "092026.342500", "092027.542500", "092028.742500", "092029.942500", "092031.142500", "092032.342500", "092033.542500", "092034.742500", "092035.942500", "092037.142500", "092038.342500", "092039.542500", "092040.742500", "092041.942500", "092043.142500", "092044.342500", "092045.542500", "092046.742500", "092047.942500", "092049.142500", "092050.342500", "092051.542500", "092052.742500", "092053.942500", "092055.142500", "092056.342500", "092057.542500", "092058.742500", "092059.942500", "092101.142500", "092102.342500", "092103.542500", "092104.742500", "092105.942500", "092107.142500", "092108.342500", "092109.542500", "092110.742500", "092111.942500", "092113.142500", "092114.342500", "092115.542500", "092116.742500", "092117.942500", "092119.142500", "092120.342500", "092121.542500", "092122.742500", "092123.942500"],
      "ContentTime": ["091932.116000", "091932.119000", "091932.126000", "091932.128000", "091932.131000", "091932.140000", "091932.143000", "091932.145000", "091932.148000", "091932.151000", "091932.153000", "091932.156000", "091932.158000", "091932.164000", "091932.166000", "091932.169000", "091932.172000", "091932.174000", "091932.177000", "091932.179000", "091932.182000", "091932.185000", "091932.187000", "091932.190000", "091932.193000", "091932.195000", "091932.198000", "091932.200000", "091932.203000", "091932.206000", "092012.111000", "092012.114000", "092012.117000", "092012.119000", "092012.122000", "092012.125000", "092012.127000", "092012.130000", "092012.132000", "092012.135000", "092012.137000", "092012.140000", "092012.143000", "092012.145000", "092012.148000", "092012.150000", "092012.153000", "092012.155000", "092012.158000", "092012.161000", "092012.163000", "092012.166000", "092012.169000", "092012.171000", "092012.174000", "092012.176000", "092012.179000", "092012.182000", "092012.184000", "092012.187000", "092012.189000", "092012.192000", "092012.194000", "092052.111000", "092052.114000", "092052.117000", "092052.120000", "092052.122000", "092052.125000", "092052.127000", "092052.130000", "092052.133000", "092052.135000", "092052.138000", "092052.140000", "092052.152000", "092052.155000", "092052.158000", "092052.160000", "092052.163000", "092052.165000", "092052.168000", "092052.171000", "092052.173000", "092052.176000", "092052.178000", "092052.181000", "092052.184000", "092052.186000", "092052.189000", "092052.191000", "092052.194000", "092052.196000", "092052.199000", "092052.202000", "092052.204000", "092125.993000", "092125.996000", "092125.998000", "092126.002000", "092126.005000", "092126.007000", "092126.010000", "092126.013000", "092126.015000", "092126.018000", "092126.020000", "092126.023000", "092126.026000", "092126.028000", "092126.031000", "092126.033000", "092126.036000", "092126.039000", "092126.041000", "092126.044000", "092126.046000", "092126.049000", "092126.052000", "092126.054000", "092126.057000", "092126.060000", "092126.062000", "092126.065000", "092126.067000"],
      "InstanceCreationTime": ["091932.116000", "091932.119000", "091932.126000", "091932.128000", "091932.131000", "091932.140000", "091932.143000", "091932.145000", "091932.148000", "091932.151000", "091932.153000", "091932.156000", "091932.158000", "091932.164000", "091932.166000", "091932.169000", "091932.172000", "091932.174000", "091932.177000", "091932.179000", "091932.182000", "091932.185000", "091932.187000", "091932.190000", "091932.193000", "091932.195000", "091932.198000", "091932.200000", "091932.203000", "091932.206000", "092012.111000", "092012.114000", "092012.117000", "092012.119000", "092012.122000", "092012.125000", "092012.127000", "092012.130000", "092012.132000", "092012.135000", "092012.137000", "092012.140000", "092012.143000", "092012.145000", "092012.148000", "092012.150000", "092012.153000", "092012.155000", "092012.158000", "092012.161000", "092012.163000", "092012.166000", "092012.169000", "092012.171000", "092012.174000", "092012.176000", "092012.179000", "092012.182000", "092012.184000", "092012.187000", "092012.189000", "092012.192000", "092012.194000", "092052.111000", "092052.114000", "092052.117000", "092052.120000", "092052.122000", "092052.125000", "092052.127000", "092052.130000", "092052.133000", "092052.135000", "092052.138000", "092052.140000", "092052.152000", "092052.155000", "092052.158000", "092052.160000", "092052.163000", "092052.165000", "092052.168000", "092052.171000", "092052.173000", "092052.176000", "092052.178000", "092052.181000", "092052.184000", "092052.186000", "092052.189000", "092052.191000", "092052.194000", "092052.196000", "092052.199000", "092052.202000", "092052.204000", "092125.993000", "092125.996000", "092125.998000", "092126.002000", "092126.005000", "092126.007000", "092126.010000", "092126.013000", "092126.015000", "092126.018000", "092126.020000", "092126.023000", "092126.026000", "092126.028000", "092126.031000", "092126.033000", "092126.036000", "092126.039000", "092126.041000", "092126.044000", "092126.046000", "092126.049000", "092126.052000", "092126.054000", "092126.057000", "092126.060000", "092126.062000", "092126.065000", "092126.067000"],
      "InstanceNumber": [1, 2, 3, 4, 5, 6, 7, 8, 9, 10, 11, 12, 13, 14, 15, 16, 17, 18, 19, 20, 21, 22, 23, 24, 25, 26, 27, 28, 29, 30, 31, 32, 33, 34, 35, 36, 37, 38, 39, 40, 41, 42, 43, 44, 45, 46, 47, 48, 49, 50, 51, 52, 53, 54, 55, 56, 57, 58, 59, 60, 61, 62, 63, 64, 65, 66, 67, 68, 69, 70, 71, 72, 73, 74, 75, 76, 77, 78, 79, 80, 81, 82, 83, 84, 85, 86, 87, 88, 89, 90, 91, 92, 93, 94, 95, 96, 97, 98, 99, 100, 101, 102, 103, 104, 105, 106, 107, 108, 109, 110, 111, 112, 113, 114, 115, 116, 117, 118, 119, 120, 121, 122, 123, 124, 125],
      "LargestImagePixelValue": [1850, 1756, 1722, 1675, 1695, 1676, 1675, 1710, 1688, 1673, 1700, 1695, 1698, 1726, 1681, 1715, 1704, 1713, 1708, 1705, 1713, 1708, 1706, 1706, 1719, 1715, 1711, 1721, 1721, 1724, 1720, 1707, 1741, 1732, 1723, 1735, 1746, 1741, 1732, 1733, 1728, 1727, 1743, 1751, 1741, 1738, 1752, 1741, 1753, 1759, 1746, 1754, 1752, 1750, 1742, 1747, 1753, 1737, 1736, 1745, 1734, 1749, 1741, 1751, 1730, 1733, 1731, 1746, 1725, 1723, 1707, 1722, 1723, 1726, 1736, 1736, 1744, 1736, 1742, 1733, 1720, 1734, 1736, 1733, 1733, 1730, 1721, 1730, 1733, 1719, 1732, 1740, 1735, 1729, 1734, 1740, 1737, 1744, 1730, 1743, 1729, 1730, 1734, 1710, 1709, 1698, 1683, 1704, 1709, 1685, 1685, 1696, 1676, 1685, 1672, 1677, 1668, 1673, 1688, 1715, 1704, 1731, 1745, 1726, 1745],
      "WindowCenter": [559.0, 555.0, 552.0, 551.0, 551.0, 551.0, 552.0, 553.0, 553.0, 553.0, 554.0, 554.0, 553.0, 553.0, 552.0, 553.0, 553.0, 553.0, 552.0, 553.0, 553.0, 552.0, 552.0, 553.0, 554.0, 554.0, 554.0, 554.0, 554.0, 553.0, 553.0, 553.0, 553.0, 553.0, 553.0, 553.0, 553.0, 554.0, 553.0, 553.0, 552.0, 553.0, 554.0, 554.0, 553.0, 552.0, 552.0, 553.0, 554.0, 554.0, 553.0, 553.0, 552.0, 552.0, 552.0, 551.0, 552.0, 551.0, 551.0, 551.0, 551.0, 551.0, 551.0, 551.0, 551.0, 551.0, 550.0, 551.0, 550.0, 549.0, 549.0, 550.0, 550.0, 550.0, 552.0, 552.0, 553.0, 552.0, 552.0, 552.0, 552.0, 552.0, 552.0, 553.0, 554.0, 554.0, 553.0, 554.0, 554.0, 554.0, 554.0, 554.0, 553.0, 552.0, 554.0, 556.0, 556.0, 556.0, 555.0, 554.0, 553.0, 553.0, 552.0, 552.0, 551.0, 550.0, 549.0, 549.0, 549.0, 549.0, 548.0, 549.0, 549.0, 548.0, 548.0, 548.0, 547.0, 548.0, 549.0, 551.0, 552.0, 553.0, 554.0, 553.0, 553.0],
      "WindowWidth": [1186.0, 1178.0, 1172.0, 1170.0, 1171.0, 1170.0, 1171.0, 1174.0, 1173.0, 1175.0, 1176.0, 1175.0, 1175.0, 1174.0, 1172.0, 1173.0, 1173.0, 1174.0, 1173.0, 1173.0, 1173.0, 1172.0, 1173.0, 1174.0, 1176.0, 1177.0, 1177.0, 1176.0, 1175.0, 1174.0, 1173.0, 1173.0, 1173.0, 1173.0, 1173.0, 1173.0, 1174.0, 1175.0, 1174.0, 1173.0, 1172.0, 1173.0, 1175.0, 1175.0, 1173.0, 1172.0, 1172.0, 1174.0, 1176.0, 1176.0, 1175.0, 1174.0, 1172.0, 1172.0, 1171.0, 1170.0, 1170.0, 1169.0, 1169.0, 1169.0, 1168.0, 1170.0, 1170.0, 1169.0, 1169.0, 1169.0, 1168.0, 1169.0, 1168.0, 1166.0, 1166.0, 1167.0, 1167.0, 1168.0, 1172.0, 1172.0, 1174.0, 1172.0, 1172.0, 1172.0, 1171.0, 1172.0, 1172.0, 1175.0, 1175.0, 1175.0, 1175.0, 1175.0, 1176.0, 1176.0, 1175.0, 1175.0, 1174.0, 1173.0, 1175.0, 1180.0, 1181.0, 1181.0, 1179.0, 1177.0, 1175.0, 1174.0, 1172.0, 1172.0, 1169.0, 1168.0, 1166.0, 1165.0, 1166.0, 1165.0, 1164.0, 1165.0, 1165.0, 1164.0, 1164.0, 1164.0, 1162.0, 1163.0, 1166.0, 1170.0, 1172.0, 1173.0, 1175.0, 1174.0, 1173.0]
    },
    "slices": {}
  }
}