{
  "AcquisitionMatrixPE": 88,
  "AcquisitionNumber": 1,
  "AcquisitionTime": "19:43:5.812500",
  "BandwidthPerPixelPhaseEncode": 19.592,
  "BaseResolution": 88,
  "BodyPartExamined": "BRAIN",
  "ConsistencyInfo": "N4_VE11C_LATEST_20160120",
  "ConversionSoftware": "dcm2niix",
  "ConversionSoftwareVersion": "v1.0.20190902",
  "DerivedVendorReportedEchoSpacing": 0.000580014,
  "DeviceSerialNumber": "67050",
  "DwellTime": 2.6e-06,
  "EchoTime": 0.033,
  "EchoTrainLength": 88,
  "EffectiveEchoSpacing": 0.000580014,
  "FlipAngle": 62,
  "ImageOrientationPatientDICOM": [0.998014, 0.0384476, -0.0498984, -0.0433997, 0.993808, -0.102289],
  "ImageType": [
    "ORIGINAL",
    "PRIMARY",
    "M",
    "ND",
    "MOSAIC"
],
  "ImagingFrequency": 123.251,
  "InPlanePhaseEncodingDirectionDICOM": "COL",
  "InstitutionAddress": "Olive_Street_60_Providence_RI_US_02912",
  "InstitutionName": "BROWN_UNIVERSITY_MRF",
  "InstitutionalDepartmentName": "Department",
  "MRAcquisitionType": "2D",
  "MagneticFieldStrength": 3,
  "Manufacturer": "Siemens",
  "ManufacturersModelName": "Prisma_fit",
  "Modality": "MR",
  "MultibandAccelerationFactor": 4,
  "PartialFourier": 1,
  "PatientPosition": "HFS",
  "PercentPhaseFOV": 100,
  "PhaseEncodingDirection": "j-",
  "PhaseEncodingSteps": 88,
  "PhaseResolution": 1,
  "PixelBandwidth": 2185,
  "ProcedureStepDescription": "ASHENHAV_1222",
  "ProtocolName": "func-bold_task-RDMmotion_run-04",
  "PulseSequenceDetails": "%SiemensSeq%_ep2d_bold",
  "ReceiveCoilActiveElements": "HC1-7",
  "ReceiveCoilName": "HeadNeck_64",
  "ReconMatrixPE": 88,
  "RefLinesPE": 8,
  "RepetitionTime": 1.2,
  "SAR": 0.0520264,
  "ScanOptions": "FS",
  "ScanningSequence": "EP",
  "SequenceName": "_epfid2d1_88",
  "SequenceVariant": "SK",
  "SeriesDescription": "func-bold_task-RDMmotion_run-04",
  "SeriesNumber": 13,
  "ShimSetting": [1741, -9068, 4403, 269, -89, -72, 6, -9],
  "SliceThickness": 2.4,
  "SliceTiming": [0.55, 0, 0.6275, 0.0775, 0.7075, 0.1575, 0.785, 0.235, 0.865, 0.3125, 0.9425, 0.3925, 1.0225, 0.47, 1.1, 0.55, 0, 0.6275, 0.0775, 0.7075, 0.1575, 0.785, 0.235, 0.865, 0.3125, 0.9425, 0.3925, 1.0225, 0.47, 1.1, 0.55, 0, 0.6275, 0.0775, 0.7075, 0.1575, 0.785, 0.235, 0.865, 0.3125, 0.9425, 0.3925, 1.0225, 0.47, 1.1, 0.55, 0, 0.6275, 0.0775, 0.7075, 0.1575, 0.785, 0.235, 0.865, 0.3125, 0.9425, 0.3925, 1.0225, 0.47, 1.1],
  "SoftwareVersions": "syngo_MR_E11",
  "SpacingBetweenSlices": 2.4,
  "StationName": "AWP67050",
  "TaskName": "RDMmotion",
  "TotalReadoutTime": 0.0504612,
  "TxRefAmp": 217.047,
  "dcmmeta_affine": [
    [-2.392965316772461, -0.10406072437763214, -0.10957609117031097, 114.28421783447266],
    [-0.09218680113554001, 2.3828794956207275, -0.2502027750015259, -94.86282348632812],
    [-0.11964287608861923, 0.24526047706604004, 2.3844058513641357, -50.089759826660156],
    [0.0, 0.0, 0.0, 1.0]
],
  "dcmmeta_reorient_transform": [
    [0.0, -1.0, 0.0, 87.0],
    [1.0, 0.0, 0.0, 0.0],
    [0.0, 0.0, 1.0, 0.0],
    [0.0, 0.0, 0.0, 1.0]
],
  "dcmmeta_shape": [88, 88, 60, 125],
  "dcmmeta_slice_dim": 2,
  "dcmmeta_version": 0.6,
  "global": {
    "const": {
      "AcquisitionMatrix": [88, 0, 0, 88],
      "AngioFlag": "N",
      "BitsAllocated": 16,
      "BitsStored": 12,
      "BodyPartExamined": "BRAIN",
      "Columns": 704,
      "DeidentificationMethodCodeSequence": [
        {
          "CodeMeaning": "XNAT DicomEdit 6 Script",
          "CodeValue": "3",
          "CodingSchemeDesignator": "XNAT",
          "CodingSchemeVersion": "1.0"}
],
      "EchoNumbers": 1,
      "EchoTime": 33.0,
      "EchoTrainLength": 88,
      "FlipAngle": 62.0,
      "HighBit": 11,
      "ImageOrientationPatient": [0.9980139920881, 0.03844757699521, -0.0498984510739, -0.0433997342538, 0.99380756643847, -0.1022887283934],
      "ImagePositionPatient": [-810.21355608212, -874.76810938379, 83.638132239951],
      "ImageType": [
        "ORIGINAL",
        "PRIMARY",
        "M",
        "ND",
        "MOSAIC"
],
      "ImagedNucleus": "1H",
      "ImagingFrequency": 123.250723,
      "InPlanePhaseEncodingDirection": "COL",
      "MRAcquisitionType": "2D",
      "MagneticFieldStrength": 3.0,
      "Manufacturer": "SIEMENS",
      "ManufacturerModelName": "Prisma_fit",
      "Modality": "MR",
      "NumberOfAverages": 1.0,
      "NumberOfPhaseEncodingSteps": 88,
      "PercentPhaseFieldOfView": 100.0,
      "PercentSampling": 100.0,
      "PerformedProcedureStepStartTime": "184918.066000",
      "PhotometricInterpretation": "MONOCHROME2",
      "PixelBandwidth": 2185.0,
      "PixelRepresentation": 0,
      "PixelSpacing": [2.3977272510529, 2.3977272510529],
      "ProtocolName": "func-bold_task-RDMmotion_run-04",
      "RepetitionTime": 1200.0,
      "Rows": 704,
      "SAR": 0.05202639529665,
      "SamplesPerPixel": 1,
      "ScanOptions": "FS",
      "ScanningSequence": "EP",
      "SequenceName": "*epfid2d1_88",
      "SequenceVariant": "SK",
      "SeriesDescription": "func-bold_task-RDMmotion_run-04",
      "SeriesNumber": 13,
      "SeriesTime": "194348.519000",
      "SliceLocation": -45.092581415279,
      "SliceThickness": 2.4000000953674,
      "SmallestImagePixelValue": 0,
      "SoftwareVersions": "syngo MR E11",
      "SpacingBetweenSlices": 2.3999999476495,
      "SpecificCharacterSet": "ISO_IR 100",
      "StudyID": "1",
      "StudyTime": "184917.972000",
      "TransmitCoilName": "Body",
      "VariableFlipAngleFlag": "N",
      "WindowCenterWidthExplanation": "Algo1",
      "dBdt": 0.0},
    "slices": {}
  },
  "time": {
    "samples": {
      "AcquisitionNumber": [1, 2, 3, 4, 5, 6, 7, 8, 9, 10, 11, 12, 13, 14, 15, 16, 17, 18, 19, 20, 21, 22, 23, 24, 25, 26, 27, 28, 29, 30, 31, 32, 33, 34, 35, 36, 37, 38, 39, 40, 41, 42, 43, 44, 45, 46, 47, 48, 49, 50, 51, 52, 53, 54, 55, 56, 57, 58, 59, 60, 61, 62, 63, 64, 65, 66, 67, 68, 69, 70, 71, 72, 73, 74, 75, 76, 77, 78, 79, 80, 81, 82, 83, 84, 85, 86, 87, 88, 89, 90, 91, 92, 93, 94, 95, 96, 97, 98, 99, 100, 101, 102, 103, 104, 105, 106, 107, 108, 109, 110, 111, 112, 113, 114, 115, 116, 117, 118, 119, 120, 121, 122, 123, 124, 125],
      "AcquisitionTime": ["194305.812500", "194307.012500", "194308.212500", "194309.412500", "194310.612500", "194311.812500", "194313.012500", "194314.212500", "194315.412500", "194316.612500", "194317.812500", "194319.012500", "194320.212500", "194321.412500", "194322.612500", "194323.812500", "194325.012500", "194326.212500", "194327.412500", "194328.612500", "194329.812500", "194331.012500", "194332.212500", "194333.412500", "194334.612500", "194335.812500", "194337.012500", "194338.212500", "194339.412500", "194340.612500", "194341.812500", "194343.012500", "194344.212500", "194345.412500", "194346.612500", "194347.812500", "194349.012500", "194350.212500", "194351.412500", "194352.612500", "194353.812500", "194355.012500", "194356.212500", "194357.412500", "194358.612500", "194359.812500", "194401.012500", "194402.212500", "194403.412500", "194404.612500", "194405.812500", "194407.012500", "194408.212500", "194409.412500", "194410.612500", "194411.812500", "194413.012500", "194414.212500", "194415.412500", "194416.612500", "194417.812500", "194419.012500", "194420.212500", "194421.412500", "194422.612500", "194423.812500", "194425.012500", "194426.212500", "194427.412500", "194428.612500", "194429.812500", "194431.012500", "194432.212500", "194433.412500", "194434.612500", "194435.812500", "194437.012500", "194438.212500", "194439.412500", "194440.612500", "194441.812500", "194443.012500", "194444.212500", "194445.412500", "194446.612500", "194447.812500", "194449.012500", "194450.212500", "194451.412500", "194452.612500", "194453.812500", "194455.012500", "194456.212500", "194457.412500", "194458.612500", "194459.812500", "194501.012500", "194502.212500", "194503.412500", "194504.612500", "194505.812500", "194507.012500", "194508.212500", "194509.412500", "194510.612500", "194511.812500", "194513.012500", "194514.212500", "194515.412500", "194516.612500", "194517.812500", "194519.012500", "194520.212500", "194521.412500", "194522.612500", "194523.812500", "194525.012500", "194526.212500", "194527.412500", "194528.612500", "194529.812500", "194531.012500", "194532.212500", "194533.412500", "194534.612500"],
      "ContentTime": ["194348.523000", "194348.526000", "194348.529000", "194348.531000", "194348.534000", "194348.537000", "194348.539000", "194348.542000", "194348.545000", "194348.547000", "194348.550000", "194348.553000", "194348.555000", "194348.574000", "194348.577000", "194348.579000", "194348.582000", "194348.585000", "194348.587000", "194348.590000", "194348.592000", "194348.595000", "194348.597000", "194348.610000", "194348.613000", "194348.616000", "194348.618000", "194348.621000", "194348.623000", "194348.626000", "194348.628000", "194348.631000", "194348.634000", "194348.636000", "194348.639000", "194428.518000", "194428.521000", "194428.524000", "194428.526000", "194428.529000", "194428.532000", "194428.545000", "194428.547000", "194428.550000", "194428.553000", "194428.555000", "194428.558000", "194428.561000", "194428.563000", "194428.566000", "194428.568000", "194428.571000", "194428.573000", "194428.576000", "194428.578000", "194428.581000", "194428.584000", "194428.586000", "194428.589000", "194428.592000", "194428.594000", "194428.597000", "194428.599000", "194428.602000", "194428.605000", "194428.607000", "194428.610000", "194428.613000", "194508.520000", "194508.522000", "194508.525000", "194508.534000", "194508.537000", "194508.540000", "194508.542000", "194508.545000", "194508.547000", "194508.550000", "194508.553000", "194508.555000", "194508.558000", "194508.561000", "194508.563000", "194508.566000", "194508.568000", "194508.571000", "194508.573000", "194508.576000", "194508.585000", "194508.587000", "194508.590000", "194508.592000", "194508.595000", "194508.598000", "194508.600000", "194508.603000", "194508.605000", "194508.608000", "194508.610000", "194508.613000", "194508.616000", "194508.618000", "194536.093000", "194536.096000", "194536.099000", "194536.102000", "194536.105000", "194536.107000", "194536.110000", "194536.113000", "194536.115000", "194536.118000", "194536.120000", "194536.123000", "194536.125000", "194536.128000", "194536.131000", "194536.133000", "194536.136000", "194536.139000", "194536.141000", "194536.144000", "194536.147000", "194536.150000", "194536.152000"],
      "InstanceCreationTime": ["194348.523000", "194348.526000", "194348.529000", "194348.531000", "194348.534000", "194348.537000", "194348.539000", "194348.542000", "194348.545000", "194348.547000", "194348.550000", "194348.553000", "194348.555000", "194348.574000", "194348.577000", "194348.579000", "194348.582000", "194348.585000", "194348.587000", "194348.590000", "194348.592000", "194348.595000", "194348.597000", "194348.610000", "194348.613000", "194348.616000", "194348.618000", "194348.621000", "194348.623000", "194348.626000", "194348.628000", "194348.631000", "194348.634000", "194348.636000", "194348.639000", "194428.518000", "194428.521000", "194428.524000", "194428.526000", "194428.529000", "194428.532000", "194428.545000", "194428.547000", "194428.550000", "194428.553000", "194428.555000", "194428.558000", "194428.561000", "194428.563000", "194428.566000", "194428.568000", "194428.571000", "194428.573000", "194428.576000", "194428.578000", "194428.581000", "194428.584000", "194428.586000", "194428.589000", "194428.592000", "194428.594000", "194428.597000", "194428.599000", "194428.602000", "194428.605000", "194428.607000", "194428.610000", "194428.613000", "194508.520000", "194508.522000", "194508.525000", "194508.534000", "194508.537000", "194508.540000", "194508.542000", "194508.545000", "194508.547000", "194508.550000", "194508.553000", "194508.555000", "194508.558000", "194508.561000", "194508.563000", "194508.566000", "194508.568000", "194508.571000", "194508.573000", "194508.576000", "194508.585000", "194508.587000", "194508.590000", "194508.592000", "194508.595000", "194508.598000", "194508.600000", "194508.603000", "194508.605000", "194508.608000", "194508.610000", "194508.613000", "194508.616000", "194508.618000", "194536.093000", "194536.096000", "194536.099000", "194536.102000", "194536.105000", "194536.107000", "194536.110000", "194536.113000", "194536.115000", "194536.118000", "194536.120000", "194536.123000", "194536.125000", "194536.128000", "194536.131000", "194536.133000", "194536.136000", "194536.139000", "194536.141000", "194536.144000", "194536.147000", "194536.150000", "194536.152000"],
      "InstanceNumber": [1, 2, 3, 4, 5, 6, 7, 8, 9, 10, 11, 12, 13, 14, 15, 16, 17, 18, 19, 20, 21, 22, 23, 24, 25, 26, 27, 28, 29, 30, 31, 32, 33, 34, 35, 36, 37, 38, 39, 40, 41, 42, 43, 44, 45, 46, 47, 48, 49, 50, 51, 52, 53, 54, 55, 56, 57, 58, 59, 60, 61, 62, 63, 64, 65, 66, 67, 68, 69, 70, 71, 72, 73, 74, 75, 76, 77, 78, 79, 80, 81, 82, 83, 84, 85, 86, 87, 88, 89, 90, 91, 92, 93, 94, 95, 96, 97, 98, 99, 100, 101, 102, 103, 104, 105, 106, 107, 108, 109, 110, 111, 112, 113, 114, 115, 116, 117, 118, 119, 120, 121, 122, 123, 124, 125],
      "LargestImagePixelValue": [2505, 2414, 2354, 2333, 2286, 2299, 2289, 2278, 2279, 2277, 2257, 2249, 2257, 2246, 2239, 2260, 2248, 2259, 2248, 2247, 2272, 2270, 2242, 2263, 2222, 2247, 2234, 2255, 2244, 2238, 2260, 2224, 2241, 2265, 2227, 2226, 2242, 2222, 2225, 2210, 2224, 2251, 2209, 2231, 2227, 2214, 2211, 2226, 2206, 2231, 2213, 2197, 2216, 2204, 2227, 2240, 2216, 2224, 2221, 2210, 2205, 2221, 2232, 2209, 2226, 2207, 2220, 2214, 2219, 2189, 2203, 2207, 2222, 2221, 2217, 2212, 2237, 2196, 2234, 2214, 2235, 2231, 2211, 2218, 2207, 2229, 2226, 2232, 2214, 2210, 2196, 2197, 2214, 2215, 2222, 2213, 2211, 2228, 2196, 2212, 2219, 2215, 2201, 2196, 2203, 2212, 2178, 2217, 2175, 2209, 2202, 2194, 2213, 2196, 2216, 2204, 2216, 2212, 2217, 2214, 2194, 2211, 2191, 2211, 2206],
      "WindowCenter": [618.0, 616.0, 615.0, 616.0, 616.0, 616.0, 616.0, 615.0, 615.0, 615.0, 615.0, 615.0, 616.0, 616.0, 616.0, 616.0, 616.0, 616.0, 615.0, 615.0, 616.0, 616.0, 615.0, 615.0, 614.0, 615.0, 615.0, 615.0, 615.0, 615.0, 615.0, 614.0, 615.0, 615.0, 614.0, 613.0, 613.0, 612.0, 612.0, 612.0, 612.0, 613.0, 612.0, 613.0, 613.0, 613.0, 613.0, 613.0, 613.0, 613.0, 612.0, 612.0, 612.0, 613.0, 613.0, 614.0, 613.0, 613.0, 613.0, 613.0, 612.0, 612.0, 612.0, 612.0, 612.0, 612.0, 612.0, 612.0, 612.0, 612.0, 613.0, 613.0, 614.0, 614.0, 614.0, 614.0, 614.0, 614.0, 614.0, 614.0, 613.0, 613.0, 614.0, 614.0, 613.0, 613.0, 613.0, 613.0, 613.0, 613.0, 613.0, 613.0, 613.0, 612.0, 612.0, 612.0, 612.0, 613.0, 613.0, 613.0, 613.0, 613.0, 613.0, 613.0, 614.0, 614.0, 613.0, 614.0, 614.0, 614.0, 614.0, 614.0, 614.0, 613.0, 614.0, 613.0, 614.0, 614.0, 614.0, 614.0, 614.0, 614.0, 614.0, 614.0, 614.0],
      "WindowWidth": [1323.0, 1320.0, 1318.0, 1319.0, 1319.0, 1320.0, 1319.0, 1318.0, 1316.0, 1317.0, 1317.0, 1318.0, 1319.0, 1319.0, 1319.0, 1319.0, 1319.0, 1319.0, 1319.0, 1318.0, 1319.0, 1320.0, 1317.0, 1317.0, 1316.0, 1317.0, 1317.0, 1317.0, 1317.0, 1317.0, 1318.0, 1316.0, 1317.0, 1317.0, 1314.0, 1313.0, 1312.0, 1311.0, 1310.0, 1310.0, 1310.0, 1311.0, 1311.0, 1312.0, 1313.0, 1314.0, 1314.0, 1314.0, 1313.0, 1312.0, 1311.0, 1310.0, 1311.0, 1313.0, 1313.0, 1315.0, 1314.0, 1314.0, 1314.0, 1313.0, 1312.0, 1311.0, 1311.0, 1310.0, 1311.0, 1309.0, 1310.0, 1311.0, 1310.0, 1310.0, 1312.0, 1314.0, 1315.0, 1315.0, 1314.0, 1315.0, 1315.0, 1316.0, 1315.0, 1315.0, 1314.0, 1314.0, 1314.0, 1314.0, 1314.0, 1314.0, 1314.0, 1312.0, 1312.0, 1313.0, 1313.0, 1312.0, 1312.0, 1310.0, 1310.0, 1311.0, 1311.0, 1313.0, 1313.0, 1313.0, 1312.0, 1312.0, 1312.0, 1313.0, 1314.0, 1314.0, 1314.0, 1315.0, 1315.0, 1315.0, 1316.0, 1315.0, 1316.0, 1314.0, 1315.0, 1314.0, 1315.0, 1315.0, 1314.0, 1315.0, 1315.0, 1316.0, 1315.0, 1315.0, 1315.0]
    },
    "slices": {}
  }
}