{
  "AcquisitionMatrixPE": 88,
  "AcquisitionNumber": 1,
  "AcquisitionTime": "19:30:58.597500",
  "BandwidthPerPixelPhaseEncode": 19.592,
  "BaseResolution": 88,
  "BodyPartExamined": "BRAIN",
  "ConsistencyInfo": "N4_VE11C_LATEST_20160120",
  "ConversionSoftware": "dcm2niix",
  "ConversionSoftwareVersion": "v1.0.20190902",
  "DerivedVendorReportedEchoSpacing": 0.000580014,
  "DeviceSerialNumber": "67050",
  "DwellTime": 2.6e-06,
  "EchoTime": 0.033,
  "EchoTrainLength": 88,
  "EffectiveEchoSpacing": 0.000580014,
  "FlipAngle": 62,
  "ImageOrientationPatientDICOM": [0.998014, 0.0384476, -0.0498984, -0.0433997, 0.993808, -0.102289],
  "ImageType": [
    "ORIGINAL",
    "PRIMARY",
    "M",
    "ND",
    "MOSAIC"
],
  "ImagingFrequency": 123.251,
  "InPlanePhaseEncodingDirectionDICOM": "COL",
  "InstitutionAddress": "Olive_Street_60_Providence_RI_US_02912",
  "InstitutionName": "BROWN_UNIVERSITY_MRF",
  "InstitutionalDepartmentName": "Department",
  "MRAcquisitionType": "2D",
  "MagneticFieldStrength": 3,
  "Manufacturer": "Siemens",
  "ManufacturersModelName": "Prisma_fit",
  "Modality": "MR",
  "MultibandAccelerationFactor": 4,
  "PartialFourier": 1,
  "PatientPosition": "HFS",
  "PercentPhaseFOV": 100,
  "PhaseEncodingDirection": "j-",
  "PhaseEncodingSteps": 88,
  "PhaseResolution": 1,
  "PixelBandwidth": 2185,
  "ProcedureStepDescription": "ASHENHAV_1222",
  "ProtocolName": "func-bold_task-RDMmotion_run-03",
  "PulseSequenceDetails": "%SiemensSeq%_ep2d_bold",
  "ReceiveCoilActiveElements": "HC1-7",
  "ReceiveCoilName": "HeadNeck_64",
  "ReconMatrixPE": 88,
  "RefLinesPE": 8,
  "RepetitionTime": 1.2,
  "SAR": 0.0520264,
  "ScanOptions": "FS",
  "ScanningSequence": "EP",
  "SequenceName": "_epfid2d1_88",
  "SequenceVariant": "SK",
  "SeriesDescription": "func-bold_task-RDMmotion_run-03",
  "SeriesNumber": 11,
  "ShimSetting": [1741, -9068, 4403, 269, -89, -72, 6, -9],
  "SliceThickness": 2.4,
  "SliceTiming": [0.55, 0, 0.63, 0.0775, 0.7075, 0.1575, 0.7875, 0.235, 0.865, 0.315, 0.945, 0.3925, 1.0225, 0.4725, 1.1025, 0.55, 0, 0.63, 0.0775, 0.7075, 0.1575, 0.7875, 0.235, 0.865, 0.315, 0.945, 0.3925, 1.0225, 0.4725, 1.1025, 0.55, 0, 0.63, 0.0775, 0.7075, 0.1575, 0.7875, 0.235, 0.865, 0.315, 0.945, 0.3925, 1.0225, 0.4725, 1.1025, 0.55, 0, 0.63, 0.0775, 0.7075, 0.1575, 0.7875, 0.235, 0.865, 0.315, 0.945, 0.3925, 1.0225, 0.4725, 1.1025],
  "SoftwareVersions": "syngo_MR_E11",
  "SpacingBetweenSlices": 2.4,
  "StationName": "AWP67050",
  "TaskName": "RDMmotion",
  "TotalReadoutTime": 0.0504612,
  "TxRefAmp": 217.047,
  "dcmmeta_affine": [
    [-2.392965316772461, -0.10406072437763214, -0.10957609117031097, 114.28421783447266],
    [-0.09218680113554001, 2.3828794956207275, -0.2502027750015259, -94.86282348632812],
    [-0.11964287608861923, 0.24526047706604004, 2.3844058513641357, -50.089759826660156],
    [0.0, 0.0, 0.0, 1.0]
],
  "dcmmeta_reorient_transform": [
    [0.0, -1.0, 0.0, 87.0],
    [1.0, 0.0, 0.0, 0.0],
    [0.0, 0.0, 1.0, 0.0],
    [0.0, 0.0, 0.0, 1.0]
],
  "dcmmeta_shape": [88, 88, 60, 125],
  "dcmmeta_slice_dim": 2,
  "dcmmeta_version": 0.6,
  "global": {
    "const": {
      "AcquisitionMatrix": [88, 0, 0, 88],
      "AngioFlag": "N",
      "BitsAllocated": 16,
      "BitsStored": 12,
      "BodyPartExamined": "BRAIN",
      "Columns": 704,
      "DeidentificationMethodCodeSequence": [
        {
          "CodeMeaning": "XNAT DicomEdit 6 Script",
          "CodeValue": "3",
          "CodingSchemeDesignator": "XNAT",
          "CodingSchemeVersion": "1.0"}
],
      "EchoNumbers": 1,
      "EchoTime": 33.0,
      "EchoTrainLength": 88,
      "FlipAngle": 62.0,
      "HighBit": 11,
      "ImageOrientationPatient": [0.9980139920881, 0.03844757699521, -0.0498984510739, -0.0433997342538, 0.99380756643847, -0.1022887283934],
      "ImagePositionPatient": [-810.21355608212, -874.76810938379, 83.638132239951],
      "ImageType": [
        "ORIGINAL",
        "PRIMARY",
        "M",
        "ND",
        "MOSAIC"
],
      "ImagedNucleus": "1H",
      "ImagingFrequency": 123.250717,
      "InPlanePhaseEncodingDirection": "COL",
      "MRAcquisitionType": "2D",
      "MagneticFieldStrength": 3.0,
      "Manufacturer": "SIEMENS",
      "ManufacturerModelName": "Prisma_fit",
      "Modality": "MR",
      "NumberOfAverages": 1.0,
      "NumberOfPhaseEncodingSteps": 88,
      "PercentPhaseFieldOfView": 100.0,
      "PercentSampling": 100.0,
      "PerformedProcedureStepStartTime": "184918.066000",
      "PhotometricInterpretation": "MONOCHROME2",
      "PixelBandwidth": 2185.0,
      "PixelRepresentation": 0,
      "PixelSpacing": [2.3977272510529, 2.3977272510529],
      "ProtocolName": "func-bold_task-RDMmotion_run-03",
      "RepetitionTime": 1200.0,
      "Rows": 704,
      "SAR": 0.05202639529665,
      "SamplesPerPixel": 1,
      "ScanOptions": "FS",
      "ScanningSequence": "EP",
      "SequenceName": "*epfid2d1_88",
      "SequenceVariant": "SK",
      "SeriesDescription": "func-bold_task-RDMmotion_run-03",
      "SeriesNumber": 11,
      "SeriesTime": "193111.741000",
      "SliceLocation": -45.092581415279,
      "SliceThickness": 2.4000000953674,
      "SmallestImagePixelValue": 0,
      "SoftwareVersions": "syngo MR E11",
      "SpacingBetweenSlices": 2.3999999476495,
      "SpecificCharacterSet": "ISO_IR 100",
      "StudyID": "1",
      "StudyTime": "184917.972000",
      "TransmitCoilName": "Body",
      "VariableFlipAngleFlag": "N",
      "WindowCenterWidthExplanation": "Algo1",
      "dBdt": 0.0},
    "slices": {}
  },
  "time": {
    "samples": {
      "AcquisitionNumber": [1, 2, 3, 4, 5, 6, 7, 8, 9, 10, 11, 12, 13, 14, 15, 16, 17, 18, 19, 20, 21, 22, 23, 24, 25, 26, 27, 28, 29, 30, 31, 32, 33, 34, 35, 36, 37, 38, 39, 40, 41, 42, 43, 44, 45, 46, 47, 48, 49, 50, 51, 52, 53, 54, 55, 56, 57, 58, 59, 60, 61, 62, 63, 64, 65, 66, 67, 68, 69, 70, 71, 72, 73, 74, 75, 76, 77, 78, 79, 80, 81, 82, 83, 84, 85, 86, 87, 88, 89, 90, 91, 92, 93, 94, 95, 96, 97, 98, 99, 100, 101, 102, 103, 104, 105, 106, 107, 108, 109, 110, 111, 112, 113, 114, 115, 116, 117, 118, 119, 120, 121, 122, 123, 124, 125],
      "AcquisitionTime": ["193058.597500", "193059.797500", "193100.997500", "193102.197500", "193103.397500", "193104.597500", "193105.797500", "193106.997500", "193108.197500", "193109.397500", "193110.597500", "193111.797500", "193112.997500", "193114.197500", "193115.397500", "193116.597500", "193117.797500", "193118.997500", "193120.197500", "193121.397500", "193122.597500", "193123.797500", "193124.997500", "193126.197500", "193127.397500", "193128.597500", "193129.797500", "193130.997500", "193132.197500", "193133.397500", "193134.597500", "193135.797500", "193136.997500", "193138.197500", "193139.397500", "193140.597500", "193141.797500", "193142.997500", "193144.197500", "193145.397500", "193146.597500", "193147.797500", "193148.997500", "193150.197500", "193151.397500", "193152.597500", "193153.797500", "193154.997500", "193156.197500", "193157.397500", "193158.597500", "193159.797500", "193200.997500", "193202.197500", "193203.397500", "193204.597500", "193205.797500", "193206.997500", "193208.197500", "193209.397500", "193210.597500", "193211.797500", "193212.997500", "193214.197500", "193215.397500", "193216.597500", "193217.797500", "193218.997500", "193220.197500", "193221.397500", "193222.597500", "193223.797500", "193224.997500", "193226.197500", "193227.397500", "193228.597500", "193229.797500", "193230.997500", "193232.197500", "193233.397500", "193234.597500", "193235.797500", "193236.997500", "193238.197500", "193239.397500", "193240.597500", "193241.797500", "193242.997500", "193244.197500", "193245.397500", "193246.597500", "193247.797500", "193248.997500", "193250.197500", "193251.397500", "193252.597500", "193253.797500", "193254.997500", "193256.197500", "193257.397500", "193258.597500", "193259.797500", "193300.997500", "193302.197500", "193303.397500", "193304.597500", "193305.797500", "193306.997500", "193308.197500", "193309.397500", "193310.597500", "193311.797500", "193312.997500", "193314.197500", "193315.397500", "193316.597500", "193317.797500", "193318.997500", "193320.197500", "193321.397500", "193322.597500", "193323.797500", "193324.997500", "193326.197500", "193327.397500"],
      "ContentTime": ["193111.744000", "193111.747000", "193111.779000", "193111.781000", "193111.784000", "193111.786000", "193111.789000", "193111.792000", "193111.794000", "193111.797000", "193151.739000", "193151.742000", "193151.745000", "193151.748000", "193151.761000", "193151.764000", "193151.767000", "193151.769000", "193151.772000", "193151.774000", "193151.777000", "193151.780000", "193151.782000", "193151.785000", "193151.787000", "193151.790000", "193151.793000", "193151.795000", "193151.798000", "193151.800000", "193151.803000", "193151.805000", "193151.808000", "193151.810000", "193151.813000", "193151.816000", "193151.818000", "193151.821000", "193151.823000", "193151.826000", "193151.828000", "193151.831000", "193151.834000", "193231.739000", "193231.742000", "193231.745000", "193231.747000", "193231.750000", "193231.752000", "193231.755000", "193231.757000", "193231.760000", "193231.763000", "193231.765000", "193231.768000", "193231.770000", "193231.773000", "193231.775000", "193231.778000", "193231.781000", "193231.783000", "193231.786000", "193231.788000", "193231.791000", "193231.793000", "193231.796000", "193231.798000", "193231.801000", "193231.804000", "193231.806000", "193231.809000", "193231.811000", "193231.814000", "193231.816000", "193231.819000", "193231.821000", "193231.824000", "193311.741000", "193311.743000", "193311.746000", "193311.748000", "193311.751000", "193311.754000", "193311.756000", "193311.759000", "193311.761000", "193311.764000", "193311.766000", "193311.769000", "193311.772000", "193311.774000", "193311.777000", "193311.779000", "193311.782000", "193311.784000", "193311.787000", "193311.790000", "193311.792000", "193311.795000", "193311.797000", "193311.800000", "193311.802000", "193311.805000", "193311.808000", "193311.810000", "193311.813000", "193311.816000", "193311.818000", "193311.821000", "193311.823000", "193329.306000", "193329.311000", "193329.314000", "193329.316000", "193329.319000", "193329.322000", "193329.324000", "193329.327000", "193329.330000", "193329.339000", "193329.342000", "193329.345000", "193329.347000", "193329.350000", "193329.352000"],
      "InstanceCreationTime": ["193111.744000", "193111.747000", "193111.779000", "193111.781000", "193111.784000", "193111.786000", "193111.789000", "193111.792000", "193111.794000", "193111.797000", "193151.739000", "193151.742000", "193151.745000", "193151.748000", "193151.761000", "193151.764000", "193151.767000", "193151.769000", "193151.772000", "193151.774000", "193151.777000", "193151.780000", "193151.782000", "193151.785000", "193151.787000", "193151.790000", "193151.793000", "193151.795000", "193151.798000", "193151.800000", "193151.803000", "193151.805000", "193151.808000", "193151.810000", "193151.813000", "193151.816000", "193151.818000", "193151.821000", "193151.823000", "193151.826000", "193151.828000", "193151.831000", "193151.834000", "193231.739000", "193231.742000", "193231.745000", "193231.747000", "193231.750000", "193231.752000", "193231.755000", "193231.757000", "193231.760000", "193231.763000", "193231.765000", "193231.768000", "193231.770000", "193231.773000", "193231.775000", "193231.778000", "193231.781000", "193231.783000", "193231.786000", "193231.788000", "193231.791000", "193231.793000", "193231.796000", "193231.798000", "193231.801000", "193231.804000", "193231.806000", "193231.809000", "193231.811000", "193231.814000", "193231.816000", "193231.819000", "193231.821000", "193231.824000", "193311.741000", "193311.743000", "193311.746000", "193311.748000", "193311.751000", "193311.754000", "193311.756000", "193311.759000", "193311.761000", "193311.764000", "193311.766000", "193311.769000", "193311.772000", "193311.774000", "193311.777000", "193311.779000", "193311.782000", "193311.784000", "193311.787000", "193311.790000", "193311.792000", "193311.795000", "193311.797000", "193311.800000", "193311.802000", "193311.805000", "193311.808000", "193311.810000", "193311.813000", "193311.816000", "193311.818000", "193311.821000", "193311.823000", "193329.306000", "193329.311000", "193329.314000", "193329.316000", "193329.319000", "193329.322000", "193329.324000", "193329.327000", "193329.330000", "193329.339000", "193329.342000", "193329.345000", "193329.347000", "193329.350000", "193329.352000"],
      "InstanceNumber": [1, 2, 3, 4, 5, 6, 7, 8, 9, 10, 11, 12, 13, 14, 15, 16, 17, 18, 19, 20, 21, 22, 23, 24, 25, 26, 27, 28, 29, 30, 31, 32, 33, 34, 35, 36, 37, 38, 39, 40, 41, 42, 43, 44, 45, 46, 47, 48, 49, 50, 51, 52, 53, 54, 55, 56, 57, 58, 59, 60, 61, 62, 63, 64, 65, 66, 67, 68, 69, 70, 71, 72, 73, 74, 75, 76, 77, 78, 79, 80, 81, 82, 83, 84, 85, 86, 87, 88, 89, 90, 91, 92, 93, 94, 95, 96, 97, 98, 99, 100, 101, 102, 103, 104, 105, 106, 107, 108, 109, 110, 111, 112, 113, 114, 115, 116, 117, 118, 119, 120, 121, 122, 123, 124, 125],
      "LargestImagePixelValue": [2638, 2550, 2470, 2468, 2427, 2423, 2422, 2415, 2413, 2409, 2412, 2415, 2401, 2407, 2397, 2412, 2408, 2433, 2392, 2415, 2397, 2411, 2393, 2400, 2390, 2395, 2359, 2364, 2383, 2384, 2378, 2387, 2371, 2379, 2374, 2391, 2363, 2387, 2372, 2372, 2370, 2374, 2379, 2375, 2380, 2379, 2390, 2367, 2365, 2364, 2369, 2380, 2372, 2381, 2382, 2372, 2376, 2362, 2372, 2366, 2394, 2365, 2346, 2384, 2357, 2377, 2374, 2360, 2372, 2350, 2373, 2364, 2372, 2358, 2357, 2387, 2352, 2358, 2362, 2348, 2374, 2365, 2373, 2350, 2379, 2348, 2367, 2379, 2366, 2355, 2382, 2356, 2370, 2359, 2357, 2371, 2368, 2382, 2365, 2359, 2350, 2370, 2355, 2360, 2373, 2360, 2360, 2398, 2357, 2376, 2395, 2381, 2398, 2381, 2352, 2349, 2363, 2366, 2372, 2389, 2396, 2367, 2375, 2372, 2364],
      "WindowCenter": [631.0, 628.0, 626.0, 626.0, 626.0, 627.0, 627.0, 627.0, 627.0, 627.0, 628.0, 627.0, 627.0, 628.0, 628.0, 628.0, 628.0, 628.0, 628.0, 628.0, 628.0, 628.0, 628.0, 627.0, 628.0, 628.0, 627.0, 627.0, 626.0, 626.0, 626.0, 626.0, 626.0, 627.0, 627.0, 627.0, 627.0, 628.0, 628.0, 628.0, 627.0, 627.0, 627.0, 627.0, 627.0, 627.0, 627.0, 627.0, 627.0, 626.0, 626.0, 627.0, 626.0, 627.0, 627.0, 628.0, 628.0, 628.0, 628.0, 627.0, 627.0, 627.0, 627.0, 627.0, 627.0, 627.0, 627.0, 626.0, 626.0, 626.0, 627.0, 626.0, 626.0, 626.0, 626.0, 626.0, 626.0, 627.0, 627.0, 627.0, 627.0, 626.0, 626.0, 626.0, 626.0, 625.0, 626.0, 626.0, 626.0, 626.0, 627.0, 627.0, 627.0, 627.0, 627.0, 627.0, 627.0, 627.0, 627.0, 627.0, 626.0, 626.0, 626.0, 626.0, 627.0, 626.0, 626.0, 627.0, 626.0, 626.0, 627.0, 627.0, 627.0, 627.0, 626.0, 626.0, 626.0, 626.0, 627.0, 627.0, 628.0, 627.0, 628.0, 628.0, 627.0],
      "WindowWidth": [1356.0, 1348.0, 1345.0, 1343.0, 1345.0, 1346.0, 1347.0, 1348.0, 1349.0, 1348.0, 1348.0, 1347.0, 1348.0, 1349.0, 1349.0, 1349.0, 1350.0, 1351.0, 1350.0, 1349.0, 1349.0, 1349.0, 1349.0, 1348.0, 1349.0, 1349.0, 1348.0, 1347.0, 1346.0, 1346.0, 1345.0, 1345.0, 1345.0, 1347.0, 1347.0, 1348.0, 1348.0, 1349.0, 1349.0, 1349.0, 1348.0, 1348.0, 1347.0, 1347.0, 1347.0, 1347.0, 1348.0, 1347.0, 1346.0, 1346.0, 1345.0, 1346.0, 1346.0, 1347.0, 1348.0, 1349.0, 1350.0, 1350.0, 1350.0, 1348.0, 1348.0, 1347.0, 1347.0, 1348.0, 1348.0, 1348.0, 1347.0, 1346.0, 1346.0, 1345.0, 1346.0, 1346.0, 1346.0, 1345.0, 1345.0, 1345.0, 1345.0, 1346.0, 1346.0, 1347.0, 1346.0, 1345.0, 1345.0, 1344.0, 1344.0, 1343.0, 1343.0, 1345.0, 1345.0, 1345.0, 1346.0, 1347.0, 1348.0, 1347.0, 1347.0, 1348.0, 1348.0, 1349.0, 1348.0, 1347.0, 1346.0, 1346.0, 1345.0, 1346.0, 1347.0, 1346.0, 1346.0, 1347.0, 1344.0, 1344.0, 1346.0, 1347.0, 1347.0, 1347.0, 1345.0, 1345.0, 1344.0, 1345.0, 1348.0, 1348.0, 1349.0, 1348.0, 1348.0, 1349.0, 1348.0]
    },
    "slices": {}
  }
}