{
  "AcquisitionMatrixPE": 88,
  "AcquisitionNumber": 1,
  "AcquisitionTime": "17:14:56.617500",
  "BandwidthPerPixelPhaseEncode": 19.592,
  "BaseResolution": 88,
  "BodyPartExamined": "BRAIN",
  "ConsistencyInfo": "N4_VE11C_LATEST_20160120",
  "ConversionSoftware": "dcm2niix",
  "ConversionSoftwareVersion": "v1.0.20190902",
  "DerivedVendorReportedEchoSpacing": 0.000580014,
  "DeviceSerialNumber": "67050",
  "DwellTime": 2.6e-06,
  "EchoTime": 0.033,
  "EchoTrainLength": 88,
  "EffectiveEchoSpacing": 0.000580014,
  "FlipAngle": 62,
  "ImageOrientationPatientDICOM": [0.99636, -0.0332566, 0.0784873, 0.0347937, 0.999227, -0.0182979],
  "ImageType": [
    "ORIGINAL",
    "PRIMARY",
    "M",
    "ND",
    "MOSAIC"
],
  "ImagingFrequency": 123.251,
  "InPlanePhaseEncodingDirectionDICOM": "COL",
  "InstitutionAddress": "Olive_Street_60_Providence_RI_US_02912",
  "InstitutionName": "BROWN_UNIVERSITY_MRF",
  "InstitutionalDepartmentName": "Department",
  "MRAcquisitionType": "2D",
  "MagneticFieldStrength": 3,
  "Manufacturer": "Siemens",
  "ManufacturersModelName": "Prisma_fit",
  "Modality": "MR",
  "MultibandAccelerationFactor": 4,
  "PartialFourier": 1,
  "PatientPosition": "HFS",
  "PercentPhaseFOV": 100,
  "PhaseEncodingDirection": "j-",
  "PhaseEncodingSteps": 88,
  "PhaseResolution": 1,
  "PixelBandwidth": 2185,
  "ProcedureStepDescription": "ASHENHAV_1222",
  "ProtocolName": "func-bold_task-RDMmotion_run-02",
  "PulseSequenceDetails": "%SiemensSeq%_ep2d_bold",
  "ReceiveCoilActiveElements": "HC1-7",
  "ReceiveCoilName": "HeadNeck_64",
  "ReconMatrixPE": 88,
  "RefLinesPE": 8,
  "RepetitionTime": 1.2,
  "SAR": 0.0465768,
  "ScanOptions": "FS",
  "ScanningSequence": "EP",
  "SequenceName": "_epfid2d1_88",
  "SequenceVariant": "SK",
  "SeriesDescription": "func-bold_task-RDMmotion_run-02",
  "SeriesNumber": 9,
  "ShimSetting": [1761, -9051, 4189, 364, -95, -156, 33, -30],
  "SliceThickness": 2.4,
  "SliceTiming": [0.5525, 0, 0.63, 0.08, 0.71, 0.1575, 0.7875, 0.2375, 0.8675, 0.315, 0.945, 0.395, 1.0225, 0.4725, 1.1025, 0.5525, 0, 0.63, 0.08, 0.71, 0.1575, 0.7875, 0.2375, 0.8675, 0.315, 0.945, 0.395, 1.0225, 0.4725, 1.1025, 0.5525, 0, 0.63, 0.08, 0.71, 0.1575, 0.7875, 0.2375, 0.8675, 0.315, 0.945, 0.395, 1.0225, 0.4725, 1.1025, 0.5525, 0, 0.63, 0.08, 0.71, 0.1575, 0.7875, 0.2375, 0.8675, 0.315, 0.945, 0.395, 1.0225, 0.4725, 1.1025],
  "SoftwareVersions": "syngo_MR_E11",
  "SpacingBetweenSlices": 2.4,
  "StationName": "AWP67050",
  "TaskName": "RDMmotion",
  "TotalReadoutTime": 0.0504612,
  "TxRefAmp": 245.597,
  "dcmmeta_affine": [
    [-2.389000177383423, 0.08342572301626205, 0.18676340579986572, 101.08338928222656],
    [0.07974020391702652, 2.395873785018921, -0.05030921474099159, -101.17401123046875],
    [0.18819110095500946, 0.04387340322136879, 2.392193078994751, -105.59710693359375],
    [0.0, 0.0, 0.0, 1.0]
],
  "dcmmeta_reorient_transform": [
    [0.0, -1.0, 0.0, 87.0],
    [1.0, 0.0, 0.0, 0.0],
    [0.0, 0.0, 1.0, 0.0],
    [0.0, 0.0, 0.0, 1.0]
],
  "dcmmeta_shape": [88, 88, 60, 125],
  "dcmmeta_slice_dim": 2,
  "dcmmeta_version": 0.6,
  "global": {
    "const": {
      "AcquisitionMatrix": [88, 0, 0, 88],
      "AngioFlag": "N",
      "BitsAllocated": 16,
      "BitsStored": 12,
      "BodyPartExamined": "BRAIN",
      "Columns": 704,
      "DeidentificationMethodCodeSequence": [
        {
          "CodeMeaning": "XNAT DicomEdit 6 Script",
          "CodeValue": "3",
          "CodingSchemeDesignator": "XNAT",
          "CodingSchemeVersion": "1.0"}
],
      "EchoNumbers": 1,
      "EchoTime": 33.0,
      "EchoTrainLength": 88,
      "FlipAngle": 62.0,
      "HighBit": 11,
      "ImageOrientationPatient": [0.9963602489556, -0.0332565792711, 0.07848728710001, 0.03479366553274, 0.99922699485552, -0.018297912198],
      "ImagePositionPatient": [-869.84858548764, -820.63615343411, -146.22997722176],
      "ImageType": [
        "ORIGINAL",
        "PRIMARY",
        "M",
        "ND",
        "MOSAIC"
],
      "ImagedNucleus": "1H",
      "ImagingFrequency": 123.250866,
      "InPlanePhaseEncodingDirection": "COL",
      "MRAcquisitionType": "2D",
      "MagneticFieldStrength": 3.0,
      "Manufacturer": "SIEMENS",
      "ManufacturerModelName": "Prisma_fit",
      "Modality": "MR",
      "NumberOfAverages": 1.0,
      "NumberOfPhaseEncodingSteps": 88,
      "PercentPhaseFieldOfView": 100.0,
      "PercentSampling": 100.0,
      "PerformedProcedureStepStartTime": "164923.935000",
      "PhotometricInterpretation": "MONOCHROME2",
      "PixelBandwidth": 2185.0,
      "PixelRepresentation": 0,
      "PixelSpacing": [2.3977272510529, 2.3977272510529],
      "ProtocolName": "func-bold_task-RDMmotion_run-02",
      "RepetitionTime": 1200.0,
      "Rows": 704,
      "SAR": 0.04657677985161,
      "SamplesPerPixel": 1,
      "ScanOptions": "FS",
      "ScanningSequence": "EP",
      "SequenceName": "*epfid2d1_88",
      "SequenceVariant": "SK",
      "SeriesDescription": "func-bold_task-RDMmotion_run-02",
      "SeriesNumber": 9,
      "SeriesTime": "171524.412000",
      "SliceLocation": -95.266678059944,
      "SliceThickness": 2.4000000953674,
      "SmallestImagePixelValue": 0,
      "SoftwareVersions": "syngo MR E11",
      "SpacingBetweenSlices": 2.3999999427365,
      "SpecificCharacterSet": "ISO_IR 100",
      "StudyID": "1",
      "StudyTime": "164923.865000",
      "TransmitCoilName": "Body",
      "VariableFlipAngleFlag": "N",
      "WindowCenterWidthExplanation": "Algo1",
      "dBdt": 0.0},
    "slices": {}
  },
  "time": {
    "samples": {
      "AcquisitionNumber": [1, 2, 3, 4, 5, 6, 7, 8, 9, 10, 11, 12, 13, 14, 15, 16, 17, 18, 19, 20, 21, 22, 23, 24, 25, 26, 27, 28, 29, 30, 31, 32, 33, 34, 35, 36, 37, 38, 39, 40, 41, 42, 43, 44, 45, 46, 47, 48, 49, 50, 51, 52, 53, 54, 55, 56, 57, 58, 59, 60, 61, 62, 63, 64, 65, 66, 67, 68, 69, 70, 71, 72, 73, 74, 75, 76, 77, 78, 79, 80, 81, 82, 83, 84, 85, 86, 87, 88, 89, 90, 91, 92, 93, 94, 95, 96, 97, 98, 99, 100, 101, 102, 103, 104, 105, 106, 107, 108, 109, 110, 111, 112, 113, 114, 115, 116, 117, 118, 119, 120, 121, 122, 123, 124, 125],
      "AcquisitionTime": ["171456.617500", "171457.817500", "171459.017500", "171500.217500", "171501.417500", "171502.617500", "171503.817500", "171505.017500", "171506.217500", "171507.417500", "171508.617500", "171509.817500", "171511.017500", "171512.217500", "171513.417500", "171514.617500", "171515.817500", "171517.017500", "171518.217500", "171519.417500", "171520.617500", "171521.817500", "171523.017500", "171524.217500", "171525.417500", "171526.617500", "171527.817500", "171529.017500", "171530.217500", "171531.417500", "171532.617500", "171533.817500", "171535.017500", "171536.217500", "171537.417500", "171538.617500", "171539.817500", "171541.017500", "171542.217500", "171543.417500", "171544.617500", "171545.817500", "171547.017500", "171548.217500", "171549.417500", "171550.617500", "171551.817500", "171553.017500", "171554.217500", "171555.417500", "171556.617500", "171557.817500", "171559.017500", "171600.217500", "171601.417500", "171602.617500", "171603.817500", "171605.017500", "171606.217500", "171607.417500", "171608.617500", "171609.817500", "171611.017500", "171612.217500", "171613.417500", "171614.617500", "171615.817500", "171617.017500", "171618.217500", "171619.417500", "171620.617500", "171621.817500", "171623.017500", "171624.217500", "171625.417500", "171626.617500", "171627.817500", "171629.017500", "171630.217500", "171631.417500", "171632.617500", "171633.817500", "171635.017500", "171636.217500", "171637.417500", "171638.617500", "171639.817500", "171641.017500", "171642.217500", "171643.417500", "171644.617500", "171645.817500", "171647.017500", "171648.217500", "171649.417500", "171650.617500", "171651.817500", "171653.017500", "171654.217500", "171655.417500", "171656.617500", "171657.817500", "171659.017500", "171700.217500", "171701.417500", "171702.617500", "171703.817500", "171705.017500", "171706.217500", "171707.417500", "171708.617500", "171709.817500", "171711.017500", "171712.217500", "171713.417500", "171714.617500", "171715.817500", "171717.017500", "171718.217500", "171719.417500", "171720.617500", "171721.817500", "171723.017500", "171724.217500", "171725.417500"],
      "ContentTime": ["171524.416000", "171524.419000", "171524.422000", "171524.424000", "171524.427000", "171524.429000", "171524.432000", "171524.440000", "171524.442000", "171524.446000", "171524.449000", "171524.451000", "171524.454000", "171524.461000", "171524.464000", "171524.466000", "171524.469000", "171524.472000", "171524.474000", "171524.477000", "171524.479000", "171524.482000", "171604.410000", "171604.413000", "171604.425000", "171604.428000", "171604.430000", "171604.433000", "171604.436000", "171604.438000", "171604.441000", "171604.443000", "171604.446000", "171604.449000", "171604.451000", "171604.454000", "171604.456000", "171604.459000", "171604.462000", "171604.465000", "171604.468000", "171604.470000", "171604.473000", "171604.475000", "171604.478000", "171604.481000", "171604.483000", "171604.486000", "171604.489000", "171604.491000", "171604.494000", "171604.497000", "171604.499000", "171604.502000", "171604.504000", "171644.411000", "171644.413000", "171644.416000", "171644.419000", "171644.421000", "171644.424000", "171644.426000", "171644.429000", "171644.431000", "171644.434000", "171644.437000", "171644.439000", "171644.442000", "171644.444000", "171644.447000", "171644.450000", "171644.452000", "171644.455000", "171644.457000", "171644.460000", "171644.463000", "171644.465000", "171644.468000", "171644.470000", "171644.473000", "171644.475000", "171644.478000", "171644.481000", "171644.483000", "171644.486000", "171644.488000", "171644.491000", "171644.493000", "171644.496000", "171724.412000", "171724.414000", "171724.417000", "171724.420000", "171724.422000", "171724.425000", "171724.428000", "171724.430000", "171724.433000", "171724.436000", "171724.438000", "171724.441000", "171724.443000", "171724.446000", "171724.449000", "171724.451000", "171724.454000", "171724.456000", "171724.459000", "171724.462000", "171724.464000", "171724.467000", "171724.469000", "171724.472000", "171724.475000", "171724.477000", "171724.480000", "171724.482000", "171724.485000", "171724.488000", "171724.490000", "171724.493000", "171724.496000", "171727.327000", "171727.330000", "171727.333000"],
      "InstanceCreationTime": ["171524.416000", "171524.419000", "171524.422000", "171524.424000", "171524.427000", "171524.429000", "171524.432000", "171524.440000", "171524.442000", "171524.446000", "171524.449000", "171524.451000", "171524.454000", "171524.461000", "171524.464000", "171524.466000", "171524.469000", "171524.472000", "171524.474000", "171524.477000", "171524.479000", "171524.482000", "171604.410000", "171604.413000", "171604.425000", "171604.428000", "171604.430000", "171604.433000", "171604.436000", "171604.438000", "171604.441000", "171604.443000", "171604.446000", "171604.449000", "171604.451000", "171604.454000", "171604.456000", "171604.459000", "171604.462000", "171604.465000", "171604.468000", "171604.470000", "171604.473000", "171604.475000", "171604.478000", "171604.481000", "171604.483000", "171604.486000", "171604.489000", "171604.491000", "171604.494000", "171604.497000", "171604.499000", "171604.502000", "171604.504000", "171644.411000", "171644.413000", "171644.416000", "171644.419000", "171644.421000", "171644.424000", "171644.426000", "171644.429000", "171644.431000", "171644.434000", "171644.437000", "171644.439000", "171644.442000", "171644.444000", "171644.447000", "171644.450000", "171644.452000", "171644.455000", "171644.457000", "171644.460000", "171644.463000", "171644.465000", "171644.468000", "171644.470000", "171644.473000", "171644.475000", "171644.478000", "171644.481000", "171644.483000", "171644.486000", "171644.488000", "171644.491000", "171644.493000", "171644.496000", "171724.412000", "171724.414000", "171724.417000", "171724.420000", "171724.422000", "171724.425000", "171724.428000", "171724.430000", "171724.433000", "171724.436000", "171724.438000", "171724.441000", "171724.443000", "171724.446000", "171724.449000", "171724.451000", "171724.454000", "171724.456000", "171724.459000", "171724.462000", "171724.464000", "171724.467000", "171724.469000", "171724.472000", "171724.475000", "171724.477000", "171724.480000", "171724.482000", "171724.485000", "171724.488000", "171724.490000", "171724.493000", "171724.496000", "171727.327000", "171727.330000", "171727.333000"],
      "InstanceNumber": [1, 2, 3, 4, 5, 6, 7, 8, 9, 10, 11, 12, 13, 14, 15, 16, 17, 18, 19, 20, 21, 22, 23, 24, 25, 26, 27, 28, 29, 30, 31, 32, 33, 34, 35, 36, 37, 38, 39, 40, 41, 42, 43, 44, 45, 46, 47, 48, 49, 50, 51, 52, 53, 54, 55, 56, 57, 58, 59, 60, 61, 62, 63, 64, 65, 66, 67, 68, 69, 70, 71, 72, 73, 74, 75, 76, 77, 78, 79, 80, 81, 82, 83, 84, 85, 86, 87, 88, 89, 90, 91, 92, 93, 94, 95, 96, 97, 98, 99, 100, 101, 102, 103, 104, 105, 106, 107, 108, 109, 110, 111, 112, 113, 114, 115, 116, 117, 118, 119, 120, 121, 122, 123, 124, 125],
      "LargestImagePixelValue": [1979, 1941, 1915, 1912, 1903, 1927, 1892, 1908, 1900, 1897, 1907, 1908, 1918, 1908, 1920, 1906, 1906, 1910, 1913, 1908, 1900, 1918, 1913, 1902, 1909, 1925, 1910, 1887, 1890, 1901, 1871, 1886, 1903, 1906, 1879, 1898, 1892, 1906, 1899, 1907, 1890, 1907, 1907, 1894, 1895, 1895, 1911, 1903, 1887, 1887, 1897, 1895, 1899, 1885, 1906, 1888, 1887, 1875, 1907, 1894, 1899, 1883, 1884, 1894, 1915, 1882, 1885, 1898, 1901, 1884, 1896, 1879, 1889, 1907, 1887, 1891, 1896, 1899, 1885, 1901, 1893, 1906, 1886, 1890, 1890, 1916, 1897, 1901, 1880, 1908, 1889, 1883, 1891, 1901, 1880, 1884, 1900, 1886, 1889, 1879, 1905, 1878, 1885, 1891, 1894, 1863, 1875, 1887, 1888, 1864, 1876, 1896, 1881, 1868, 1885, 1895, 1886, 1885, 1872, 1890, 1868, 1870, 1862, 1867, 1873],
      "WindowCenter": [565.0, 563.0, 563.0, 562.0, 562.0, 562.0, 562.0, 562.0, 562.0, 562.0, 562.0, 562.0, 562.0, 561.0, 561.0, 560.0, 560.0, 561.0, 561.0, 561.0, 561.0, 561.0, 561.0, 560.0, 560.0, 560.0, 561.0, 560.0, 560.0, 560.0, 559.0, 560.0, 560.0, 560.0, 560.0, 560.0, 560.0, 560.0, 560.0, 560.0, 561.0, 560.0, 561.0, 560.0, 560.0, 560.0, 560.0, 560.0, 560.0, 559.0, 559.0, 559.0, 559.0, 559.0, 559.0, 559.0, 558.0, 559.0, 559.0, 559.0, 559.0, 559.0, 559.0, 559.0, 559.0, 559.0, 560.0, 560.0, 560.0, 559.0, 559.0, 559.0, 559.0, 559.0, 559.0, 559.0, 559.0, 559.0, 559.0, 559.0, 559.0, 560.0, 559.0, 559.0, 559.0, 558.0, 558.0, 559.0, 559.0, 560.0, 560.0, 560.0, 560.0, 559.0, 559.0, 559.0, 559.0, 559.0, 559.0, 558.0, 559.0, 559.0, 558.0, 558.0, 559.0, 559.0, 559.0, 559.0, 559.0, 558.0, 558.0, 559.0, 559.0, 559.0, 560.0, 560.0, 559.0, 559.0, 559.0, 559.0, 558.0, 559.0, 559.0, 559.0, 560.0],
      "WindowWidth": [1205.0, 1199.0, 1198.0, 1197.0, 1196.0, 1197.0, 1197.0, 1196.0, 1197.0, 1198.0, 1197.0, 1196.0, 1196.0, 1193.0, 1193.0, 1192.0, 1192.0, 1193.0, 1194.0, 1193.0, 1193.0, 1194.0, 1193.0, 1192.0, 1191.0, 1193.0, 1193.0, 1193.0, 1192.0, 1191.0, 1191.0, 1191.0, 1192.0, 1192.0, 1192.0, 1192.0, 1192.0, 1191.0, 1192.0, 1192.0, 1193.0, 1193.0, 1194.0, 1193.0, 1192.0, 1192.0, 1193.0, 1192.0, 1191.0, 1191.0, 1190.0, 1190.0, 1191.0, 1189.0, 1190.0, 1189.0, 1188.0, 1189.0, 1190.0, 1190.0, 1190.0, 1190.0, 1189.0, 1190.0, 1190.0, 1190.0, 1191.0, 1191.0, 1191.0, 1190.0, 1190.0, 1189.0, 1189.0, 1190.0, 1189.0, 1190.0, 1190.0, 1190.0, 1190.0, 1190.0, 1190.0, 1191.0, 1189.0, 1189.0, 1189.0, 1188.0, 1189.0, 1190.0, 1190.0, 1192.0, 1193.0, 1193.0, 1192.0, 1190.0, 1189.0, 1189.0, 1190.0, 1189.0, 1190.0, 1189.0, 1190.0, 1189.0, 1188.0, 1189.0, 1189.0, 1189.0, 1190.0, 1191.0, 1190.0, 1189.0, 1188.0, 1190.0, 1190.0, 1191.0, 1192.0, 1192.0, 1190.0, 1190.0, 1190.0, 1190.0, 1189.0, 1190.0, 1191.0, 1191.0, 1192.0]
    },
    "slices": {}
  }
}