{
  "AcquisitionMatrixPE": 88,
  "AcquisitionNumber": 1,
  "AcquisitionTime": "17:54:4.760000",
  "BandwidthPerPixelPhaseEncode": 19.592,
  "BaseResolution": 88,
  "BodyPartExamined": "BRAIN",
  "ConsistencyInfo": "N4_VE11C_LATEST_20160120",
  "ConversionSoftware": "dcm2niix",
  "ConversionSoftwareVersion": "v1.0.20190902",
  "DerivedVendorReportedEchoSpacing": 0.000580014,
  "DeviceSerialNumber": "67050",
  "DwellTime": 2.6e-06,
  "EchoTime": 0.033,
  "EchoTrainLength": 88,
  "EffectiveEchoSpacing": 0.000580014,
  "FlipAngle": 62,
  "ImageOrientationPatientDICOM": [0.99636, -0.0332566, 0.0784873, 0.0347937, 0.999227, -0.0182979],
  "ImageType": [
    "ORIGINAL",
    "PRIMARY",
    "M",
    "ND",
    "MOSAIC"
],
  "ImagingFrequency": 123.251,
  "InPlanePhaseEncodingDirectionDICOM": "COL",
  "InstitutionAddress": "Olive_Street_60_Providence_RI_US_02912",
  "InstitutionName": "BROWN_UNIVERSITY_MRF",
  "InstitutionalDepartmentName": "Department",
  "MRAcquisitionType": "2D",
  "MagneticFieldStrength": 3,
  "Manufacturer": "Siemens",
  "ManufacturersModelName": "Prisma_fit",
  "Modality": "MR",
  "MultibandAccelerationFactor": 4,
  "PartialFourier": 1,
  "PatientPosition": "HFS",
  "PercentPhaseFOV": 100,
  "PhaseEncodingDirection": "j-",
  "PhaseEncodingSteps": 88,
  "PhaseResolution": 1,
  "PixelBandwidth": 2185,
  "ProcedureStepDescription": "ASHENHAV_1222",
  "ProtocolName": "func-bold_task-RDMcolor_run-05",
  "PulseSequenceDetails": "%SiemensSeq%_ep2d_bold",
  "ReceiveCoilActiveElements": "HC1-7",
  "ReceiveCoilName": "HeadNeck_64",
  "ReconMatrixPE": 88,
  "RefLinesPE": 8,
  "RepetitionTime": 1.2,
  "SAR": 0.0470544,
  "ScanOptions": "FS",
  "ScanningSequence": "EP",
  "SequenceName": "_epfid2d1_88",
  "SequenceVariant": "SK",
  "SeriesDescription": "func-bold_task-RDMcolor_run-05",
  "SeriesNumber": 16,
  "ShimSetting": [1761, -9051, 4189, 364, -95, -156, 33, -30],
  "SliceThickness": 2.4,
  "SliceTiming": [0.55, 0, 0.63, 0.0775, 0.7075, 0.1575, 0.7875, 0.235, 0.865, 0.315, 0.945, 0.3925, 1.0225, 0.4725, 1.1, 0.55, 0, 0.63, 0.0775, 0.7075, 0.1575, 0.7875, 0.235, 0.865, 0.315, 0.945, 0.3925, 1.0225, 0.4725, 1.1, 0.55, 0, 0.63, 0.0775, 0.7075, 0.1575, 0.7875, 0.235, 0.865, 0.315, 0.945, 0.3925, 1.0225, 0.4725, 1.1, 0.55, 0, 0.63, 0.0775, 0.7075, 0.1575, 0.7875, 0.235, 0.865, 0.315, 0.945, 0.3925, 1.0225, 0.4725, 1.1],
  "SoftwareVersions": "syngo_MR_E11",
  "SpacingBetweenSlices": 2.4,
  "StationName": "AWP67050",
  "TaskName": "RDMcolor",
  "TotalReadoutTime": 0.0504612,
  "TxRefAmp": 245.597,
  "dcmmeta_affine": [
    [-2.389000177383423, 0.08342572301626205, 0.18676340579986572, 101.08338928222656],
    [0.07974020391702652, 2.395873785018921, -0.05030921474099159, -101.17401123046875],
    [0.18819110095500946, 0.04387340322136879, 2.392193078994751, -105.59710693359375],
    [0.0, 0.0, 0.0, 1.0]
],
  "dcmmeta_reorient_transform": [
    [0.0, -1.0, 0.0, 87.0],
    [1.0, 0.0, 0.0, 0.0],
    [0.0, 0.0, 1.0, 0.0],
    [0.0, 0.0, 0.0, 1.0]
],
  "dcmmeta_shape": [88, 88, 60, 392],
  "dcmmeta_slice_dim": 2,
  "dcmmeta_version": 0.6,
  "global": {
    "const": {
      "AcquisitionMatrix": [88, 0, 0, 88],
      "AngioFlag": "N",
      "BitsAllocated": 16,
      "BitsStored": 12,
      "BodyPartExamined": "BRAIN",
      "Columns": 704,
      "DeidentificationMethodCodeSequence": [
        {
          "CodeMeaning": "XNAT DicomEdit 6 Script",
          "CodeValue": "3",
          "CodingSchemeDesignator": "XNAT",
          "CodingSchemeVersion": "1.0"}
],
      "EchoNumbers": 1,
      "EchoTime": 33.0,
      "EchoTrainLength": 88,
      "FlipAngle": 62.0,
      "HighBit": 11,
      "ImageOrientationPatient": [0.9963602489556, -0.0332565792711, 0.07848728710001, 0.03479366553274, 0.99922699485552, -0.018297912198],
      "ImagePositionPatient": [-869.84858548764, -820.63615343411, -146.22997722176],
      "ImageType": [
        "ORIGINAL",
        "PRIMARY",
        "M",
        "ND",
        "MOSAIC"
],
      "ImagedNucleus": "1H",
      "ImagingFrequency": 123.25087,
      "InPlanePhaseEncodingDirection": "COL",
      "MRAcquisitionType": "2D",
      "MagneticFieldStrength": 3.0,
      "Manufacturer": "SIEMENS",
      "ManufacturerModelName": "Prisma_fit",
      "Modality": "MR",
      "NumberOfAverages": 1.0,
      "NumberOfPhaseEncodingSteps": 88,
      "PercentPhaseFieldOfView": 100.0,
      "PercentSampling": 100.0,
      "PerformedProcedureStepStartTime": "164923.935000",
      "PhotometricInterpretation": "MONOCHROME2",
      "PixelBandwidth": 2185.0,
      "PixelRepresentation": 0,
      "PixelSpacing": [2.3977272510529, 2.3977272510529],
      "ProtocolName": "func-bold_task-RDMcolor_run-05",
      "RepetitionTime": 1200.0,
      "Rows": 704,
      "SAR": 0.04705440239855,
      "SamplesPerPixel": 1,
      "ScanOptions": "FS",
      "ScanningSequence": "EP",
      "SequenceName": "*epfid2d1_88",
      "SequenceVariant": "SK",
      "SeriesDescription": "func-bold_task-RDMcolor_run-05",
      "SeriesNumber": 16,
      "SeriesTime": "175442.196000",
      "SliceLocation": -95.266678059944,
      "SliceThickness": 2.4000000953674,
      "SmallestImagePixelValue": 0,
      "SoftwareVersions": "syngo MR E11",
      "SpacingBetweenSlices": 2.3999999427365,
      "SpecificCharacterSet": "ISO_IR 100",
      "StudyID": "1",
      "StudyTime": "164923.865000",
      "TransmitCoilName": "Body",
      "VariableFlipAngleFlag": "N",
      "WindowCenterWidthExplanation": "Algo1",
      "dBdt": 0.0},
    "slices": {}
  },
  "time": {
    "samples": {
      "AcquisitionNumber": [1, 2, 3, 4, 5, 6, 7, 8, 9, 10, 11, 12, 13, 14, 15, 16, 17, 18, 19, 20, 21, 22, 23, 24, 25, 26, 27, 28, 29, 30, 31, 32, 33, 34, 35, 36, 37, 38, 39, 40, 41, 42, 43, 44, 45, 46, 47, 48, 49, 50, 51, 52, 53, 54, 55, 56, 57, 58, 59, 60, 61, 62, 63, 64, 65, 66, 67, 68, 69, 70, 71, 72, 73, 74, 75, 76, 77, 78, 79, 80, 81, 82, 83, 84, 85, 86, 87, 88, 89, 90, 91, 92, 93, 94, 95, 96, 97, 98, 99, 100, 101, 102, 103, 104, 105, 106, 107, 108, 109, 110, 111, 112, 113, 114, 115, 116, 117, 118, 119, 120, 121, 122, 123, 124, 125, 126, 127, 128, 129, 130, 131, 132, 133, 134, 135, 136, 137, 138, 139, 140, 141, 142, 143, 144, 145, 146, 147, 148, 149, 150, 151, 152, 153, 154, 155, 156, 157, 158, 159, 160, 161, 162, 163, 164, 165, 166, 167, 168, 169, 170, 171, 172, 173, 174, 175, 176, 177, 178, 179, 180, 181, 182, 183, 184, 185, 186, 187, 188, 189, 190, 191, 192, 193, 194, 195, 196, 197, 198, 199, 200, 201, 202, 203, 204, 205, 206, 207, 208, 209, 210, 211, 212, 213, 214, 215, 216, 217, 218, 219, 220, 221, 222, 223, 224, 225, 226, 227, 228, 229, 230, 231, 232, 233, 234, 235, 236, 237, 238, 239, 240, 241, 242, 243, 244, 245, 246, 247, 248, 249, 250, 251, 252, 253, 254, 255, 256, 257, 258, 259, 260, 261, 262, 263, 264, 265, 266, 267, 268, 269, 270, 271, 272, 273, 274, 275, 276, 277, 278, 279, 280, 281, 282, 283, 284, 285, 286, 287, 288, 289, 290, 291, 292, 293, 294, 295, 296, 297, 298, 299, 300, 301, 302, 303, 304, 305, 306, 307, 308, 309, 310, 311, 312, 313, 314, 315, 316, 317, 318, 319, 320, 321, 322, 323, 324, 325, 326, 327, 328, 329, 330, 331, 332, 333, 334, 335, 336, 337, 338, 339, 340, 341, 342, 343, 344, 345, 346, 347, 348, 349, 350, 351, 352, 353, 354, 355, 356, 357, 358, 359, 360, 361, 362, 363, 364, 365, 366, 367, 368, 369, 370, 371, 372, 373, 374, 375, 376, 377, 378, 379, 380, 381, 382, 383, 384, 385, 386, 387, 388, 389, 390, 391, 392],
      "AcquisitionTime": ["175404.760000", "175405.960000", "175407.160000", "175408.360000", "175409.560000", "175410.760000", "175411.960000", "175413.160000", "175414.360000", "175415.560000", "175416.760000", "175417.960000", "175419.160000", "175420.360000", "175421.560000", "175422.760000", "175423.960000", "175425.160000", "175426.360000", "175427.560000", "175428.760000", "175429.960000", "175431.160000", "175432.360000", "175433.560000", "175434.760000", "175435.960000", "175437.160000", "175438.360000", "175439.560000", "175440.760000", "175441.960000", "175443.160000", "175444.360000", "175445.560000", "175446.760000", "175447.960000", "175449.160000", "175450.360000", "175451.560000", "175452.760000", "175453.960000", "175455.160000", "175456.360000", "175457.560000", "175458.760000", "175459.960000", "175501.160000", "175502.360000", "175503.560000", "175504.760000", "175505.960000", "175507.160000", "175508.360000", "175509.560000", "175510.760000", "175511.960000", "175513.160000", "175514.360000", "175515.560000", "175516.760000", "175517.960000", "175519.160000", "175520.360000", "175521.560000", "175522.760000", "175523.960000", "175525.160000", "175526.360000", "175527.560000", "175528.760000", "175529.960000", "175531.160000", "175532.360000", "175533.560000", "175534.760000", "175535.960000", "175537.160000", "175538.360000", "175539.560000", "175540.760000", "175541.960000", "175543.160000", "175544.360000", "175545.560000", "175546.760000", "175547.960000", "175549.160000", "175550.360000", "175551.560000", "175552.760000", "175553.960000", "175555.160000", "175556.360000", "175557.560000", "175558.760000", "175559.960000", "175601.160000", "175602.360000", "175603.560000", "175604.760000", "175605.960000", "175607.160000", "175608.360000", "175609.560000", "175610.760000", "175611.960000", "175613.160000", "175614.360000", "175615.560000", "175616.760000", "175617.960000", "175619.160000", "175620.360000", "175621.560000", "175622.760000", "175623.960000", "175625.160000", "175626.360000", "175627.560000", "175628.760000", "175629.960000", "175631.160000", "175632.360000", "175633.560000", "175634.760000", "175635.960000", "175637.160000", "175638.360000", "175639.560000", "175640.760000", "175641.960000", "175643.160000", "175644.360000", "175645.560000", "175646.760000", "175647.960000", "175649.160000", "175650.360000", "175651.560000", "175652.760000", "175653.960000", "175655.160000", "175656.360000", "175657.560000", "175658.760000", "175659.960000", "175701.160000", "175702.360000", "175703.560000", "175704.760000", "175705.960000", "175707.160000", "175708.360000", "175709.560000", "175710.760000", "175711.960000", "175713.160000", "175714.360000", "175715.560000", "175716.760000", "175717.960000", "175719.160000", "175720.360000", "175721.560000", "175722.760000", "175723.960000", "175725.160000", "175726.360000", "175727.560000", "175728.760000", "175729.960000", "175731.160000", "175732.360000", "175733.560000", "175734.760000", "175735.960000", "175737.160000", "175738.360000", "175739.560000", "175740.760000", "175741.960000", "175743.160000", "175744.360000", "175745.560000", "175746.760000", "175747.960000", "175749.160000", "175750.360000", "175751.560000", "175752.760000", "175753.960000", "175755.160000", "175756.360000", "175757.560000", "175758.760000", "175759.960000", "175801.160000", "175802.360000", "175803.560000", "175804.760000", "175805.960000", "175807.160000", "175808.360000", "175809.560000", "175810.760000", "175811.960000", "175813.160000", "175814.360000", "175815.560000", "175816.760000", "175817.960000", "175819.160000", "175820.360000", "175821.560000", "175822.760000", "175823.960000", "175825.160000", "175826.360000", "175827.560000", "175828.760000", "175829.960000", "175831.160000", "175832.360000", "175833.560000", "175834.760000", "175835.960000", "175837.160000", "175838.360000", "175839.560000", "175840.760000", "175841.960000", "175843.160000", "175844.360000", "175845.560000", "175846.760000", "175847.960000", "175849.160000", "175850.360000", "175851.560000", "175852.760000", "175853.960000", "175855.160000", "175856.360000", "175857.560000", "175858.760000", "175859.960000", "175901.160000", "175902.360000", "175903.560000", "175904.760000", "175905.960000", "175907.160000", "175908.360000", "175909.560000", "175910.760000", "175911.960000", "175913.160000", "175914.360000", "175915.560000", "175916.760000", "175917.960000", "175919.160000", "175920.360000", "175921.560000", "175922.760000", "175923.960000", "175925.160000", "175926.360000", "175927.560000", "175928.760000", "175929.960000", "175931.160000", "175932.360000", "175933.560000", "175934.760000", "175935.960000", "175937.160000", "175938.360000", "175939.560000", "175940.760000", "175941.960000", "175943.160000", "175944.360000", "175945.560000", "175946.760000", "175947.960000", "175949.160000", "175950.360000", "175951.560000", "175952.760000", "175953.960000", "175955.160000", "175956.360000", "175957.560000", "175958.760000", "175959.960000", "180001.160000", "180002.360000", "180003.560000", "180004.760000", "180005.960000", "180007.160000", "180008.360000", "180009.560000", "180010.760000", "180011.960000", "180013.160000", "180014.360000", "180015.560000", "180016.760000", "180017.960000", "180019.160000", "180020.360000", "180021.560000", "180022.760000", "180023.960000", "180025.160000", "180026.360000", "180027.560000", "180028.760000", "180029.960000", "180031.160000", "180032.360000", "180033.560000", "180034.760000", "180035.960000", "180037.160000", "180038.360000", "180039.560000", "180040.760000", "180041.960000", "180043.160000", "180044.360000", "180045.560000", "180046.760000", "180047.960000", "180049.160000", "180050.360000", "180051.560000", "180052.760000", "180053.960000", "180055.160000", "180056.360000", "180057.560000", "180058.760000", "180059.960000", "180101.160000", "180102.360000", "180103.560000", "180104.760000", "180105.960000", "180107.160000", "180108.360000", "180109.560000", "180110.760000", "180111.960000", "180113.160000", "180114.360000", "180115.560000", "180116.760000", "180117.960000", "180119.160000", "180120.360000", "180121.560000", "180122.760000", "180123.960000", "180125.160000", "180126.360000", "180127.560000", "180128.760000", "180129.960000", "180131.160000", "180132.360000", "180133.560000", "180134.760000", "180135.960000", "180137.160000", "180138.360000", "180139.560000", "180140.760000", "180141.960000", "180143.160000", "180144.360000", "180145.560000", "180146.760000", "180147.960000", "180149.160000", "180150.360000", "180151.560000", "180152.760000", "180153.960000"],
      "ContentTime": ["175442.200000", "175442.203000", "175442.206000", "175442.208000", "175442.211000", "175442.214000", "175442.216000", "175442.219000", "175442.222000", "175442.224000", "175442.227000", "175442.233000", "175442.235000", "175442.245000", "175442.247000", "175442.250000", "175442.252000", "175442.255000", "175442.258000", "175442.260000", "175442.263000", "175442.265000", "175442.268000", "175442.271000", "175442.273000", "175442.276000", "175442.279000", "175442.281000", "175442.284000", "175442.286000", "175442.289000", "175522.194000", "175522.197000", "175522.200000", "175522.203000", "175522.205000", "175522.208000", "175522.210000", "175522.213000", "175522.232000", "175522.235000", "175522.237000", "175522.240000", "175522.249000", "175522.251000", "175522.254000", "175522.257000", "175522.259000", "175522.262000", "175522.265000", "175522.267000", "175522.270000", "175522.272000", "175522.275000", "175522.278000", "175522.280000", "175522.283000", "175522.286000", "175522.288000", "175522.291000", "175522.293000", "175522.296000", "175522.302000", "175522.305000", "175602.194000", "175602.197000", "175602.200000", "175602.202000", "175602.205000", "175602.208000", "175602.210000", "175602.213000", "175602.215000", "175602.218000", "175602.220000", "175602.223000", "175602.226000", "175602.228000", "175602.231000", "175602.234000", "175602.236000", "175602.239000", "175602.241000", "175602.244000", "175602.247000", "175602.249000", "175602.252000", "175602.254000", "175602.257000", "175602.267000", "175602.270000", "175602.273000", "175602.275000", "175602.278000", "175602.281000", "175602.283000", "175602.286000", "175642.196000", "175642.198000", "175642.201000", "175642.204000", "175642.206000", "175642.209000", "175642.212000", "175642.215000", "175642.217000", "175642.220000", "175642.223000", "175642.225000", "175642.228000", "175642.230000", "175642.233000", "175642.236000", "175642.238000", "175642.241000", "175642.243000", "175642.246000", "175642.249000", "175642.251000", "175642.254000", "175642.257000", "175642.259000", "175642.262000", "175642.265000", "175642.267000", "175642.270000", "175642.273000", "175642.275000", "175642.278000", "175642.281000", "175642.283000", "175722.195000", "175722.198000", "175722.200000", "175722.203000", "175722.206000", "175722.208000", "175722.212000", "175722.214000", "175722.217000", "175722.219000", "175722.222000", "175722.225000", "175722.227000", "175722.230000", "175722.233000", "175722.235000", "175722.238000", "175722.240000", "175722.243000", "175722.246000", "175722.248000", "175722.251000", "175722.253000", "175722.256000", "175722.259000", "175722.261000", "175722.264000", "175722.267000", "175722.269000", "175722.272000", "175722.275000", "175722.277000", "175722.280000", "175802.194000", "175802.197000", "175802.200000", "175802.203000", "175802.205000", "175802.208000", "175802.210000", "175802.213000", "175802.216000", "175802.218000", "175802.221000", "175802.224000", "175802.226000", "175802.229000", "175802.231000", "175802.234000", "175802.236000", "175802.239000", "175802.242000", "175802.244000", "175802.247000", "175802.250000", "175802.252000", "175802.255000", "175802.265000", "175802.268000", "175802.270000", "175802.273000", "175802.276000", "175802.278000", "175802.281000", "175802.284000", "175802.286000", "175842.194000", "175842.197000", "175842.200000", "175842.203000", "175842.205000", "175842.208000", "175842.211000", "175842.213000", "175842.216000", "175842.218000", "175842.221000", "175842.224000", "175842.226000", "175842.229000", "175842.232000", "175842.234000", "175842.237000", "175842.240000", "175842.242000", "175842.245000", "175842.247000", "175842.250000", "175842.253000", "175842.255000", "175842.263000", "175842.266000", "175842.270000", "175842.272000", "175842.275000", "175842.277000", "175842.280000", "175842.283000", "175842.285000", "175842.288000", "175922.196000", "175922.198000", "175922.202000", "175922.204000", "175922.220000", "175922.223000", "175922.226000", "175922.228000", "175922.231000", "175922.233000", "175922.236000", "175922.239000", "175922.241000", "175922.244000", "175922.247000", "175922.249000", "175922.252000", "175922.254000", "175922.257000", "175922.260000", "175922.262000", "175922.265000", "175922.268000", "175922.270000", "175922.273000", "175922.275000", "175922.278000", "175922.281000", "175922.283000", "175922.286000", "175922.289000", "175922.291000", "175922.294000", "180002.195000", "180002.197000", "180002.200000", "180002.203000", "180002.205000", "180002.208000", "180002.210000", "180002.213000", "180002.216000", "180002.218000", "180002.221000", "180002.224000", "180002.226000", "180002.229000", "180002.231000", "180002.234000", "180002.237000", "180002.239000", "180002.242000", "180002.244000", "180002.247000", "180002.249000", "180002.252000", "180002.254000", "180002.257000", "180002.260000", "180002.262000", "180002.265000", "180002.268000", "180002.270000", "180002.273000", "180002.276000", "180002.279000", "180042.195000", "180042.197000", "180042.200000", "180042.203000", "180042.206000", "180042.208000", "180042.211000", "180042.214000", "180042.216000", "180042.219000", "180042.221000", "180042.224000", "180042.227000", "180042.229000", "180042.232000", "180042.234000", "180042.237000", "180042.246000", "180042.249000", "180042.252000", "180042.254000", "180042.257000", "180042.259000", "180042.262000", "180042.265000", "180042.267000", "180042.270000", "180042.273000", "180042.275000", "180042.278000", "180042.280000", "180042.283000", "180042.286000", "180042.288000", "180122.195000", "180122.198000", "180122.201000", "180122.204000", "180122.206000", "180122.209000", "180122.211000", "180122.214000", "180122.217000", "180122.219000", "180122.222000", "180122.225000", "180122.227000", "180122.230000", "180122.232000", "180122.235000", "180122.238000", "180122.240000", "180122.243000", "180122.245000", "180122.248000", "180122.251000", "180122.253000", "180122.256000", "180122.259000", "180122.261000", "180122.264000", "180122.266000", "180122.269000", "180122.272000", "180122.274000", "180122.277000", "180122.279000", "180155.137000", "180155.140000", "180155.143000", "180155.146000", "180155.148000", "180155.151000", "180155.154000", "180155.156000", "180155.159000", "180155.162000", "180155.164000", "180155.167000", "180155.170000", "180155.172000", "180155.175000", "180155.177000", "180155.180000", "180155.183000", "180155.186000", "180155.188000", "180155.191000", "180155.193000", "180155.199000", "180155.202000", "180155.205000", "180155.207000", "180155.210000", "180155.213000"],
      "InstanceCreationTime": ["175442.200000", "175442.203000", "175442.206000", "175442.208000", "175442.211000", "175442.214000", "175442.216000", "175442.219000", "175442.222000", "175442.224000", "175442.227000", "175442.233000", "175442.235000", "175442.245000", "175442.247000", "175442.250000", "175442.252000", "175442.255000", "175442.258000", "175442.260000", "175442.263000", "175442.265000", "175442.268000", "175442.271000", "175442.273000", "175442.276000", "175442.279000", "175442.281000", "175442.284000", "175442.286000", "175442.289000", "175522.194000", "175522.197000", "175522.200000", "175522.203000", "175522.205000", "175522.208000", "175522.210000", "175522.213000", "175522.232000", "175522.235000", "175522.237000", "175522.240000", "175522.249000", "175522.251000", "175522.254000", "175522.257000", "175522.259000", "175522.262000", "175522.265000", "175522.267000", "175522.270000", "175522.272000", "175522.275000", "175522.278000", "175522.280000", "175522.283000", "175522.286000", "175522.288000", "175522.291000", "175522.293000", "175522.296000", "175522.302000", "175522.305000", "175602.194000", "175602.197000", "175602.200000", "175602.202000", "175602.205000", "175602.208000", "175602.210000", "175602.213000", "175602.215000", "175602.218000", "175602.220000", "175602.223000", "175602.226000", "175602.228000", "175602.231000", "175602.234000", "175602.236000", "175602.239000", "175602.241000", "175602.244000", "175602.247000", "175602.249000", "175602.252000", "175602.254000", "175602.257000", "175602.267000", "175602.270000", "175602.273000", "175602.275000", "175602.278000", "175602.281000", "175602.283000", "175602.286000", "175642.196000", "175642.198000", "175642.201000", "175642.204000", "175642.206000", "175642.209000", "175642.212000", "175642.215000", "175642.217000", "175642.220000", "175642.223000", "175642.225000", "175642.228000", "175642.230000", "175642.233000", "175642.236000", "175642.238000", "175642.241000", "175642.243000", "175642.246000", "175642.249000", "175642.251000", "175642.254000", "175642.257000", "175642.259000", "175642.262000", "175642.265000", "175642.267000", "175642.270000", "175642.273000", "175642.275000", "175642.278000", "175642.281000", "175642.283000", "175722.195000", "175722.198000", "175722.200000", "175722.203000", "175722.206000", "175722.208000", "175722.212000", "175722.214000", "175722.217000", "175722.219000", "175722.222000", "175722.225000", "175722.227000", "175722.230000", "175722.233000", "175722.235000", "175722.238000", "175722.240000", "175722.243000", "175722.246000", "175722.248000", "175722.251000", "175722.253000", "175722.256000", "175722.259000", "175722.261000", "175722.264000", "175722.267000", "175722.269000", "175722.272000", "175722.275000", "175722.277000", "175722.280000", "175802.194000", "175802.197000", "175802.200000", "175802.203000", "175802.205000", "175802.208000", "175802.210000", "175802.213000", "175802.216000", "175802.218000", "175802.221000", "175802.224000", "175802.226000", "175802.229000", "175802.231000", "175802.234000", "175802.236000", "175802.239000", "175802.242000", "175802.244000", "175802.247000", "175802.250000", "175802.252000", "175802.255000", "175802.265000", "175802.268000", "175802.270000", "175802.273000", "175802.276000", "175802.278000", "175802.281000", "175802.284000", "175802.286000", "175842.194000", "175842.197000", "175842.200000", "175842.203000", "175842.205000", "175842.208000", "175842.211000", "175842.213000", "175842.216000", "175842.218000", "175842.221000", "175842.224000", "175842.226000", "175842.229000", "175842.232000", "175842.234000", "175842.237000", "175842.240000", "175842.242000", "175842.245000", "175842.247000", "175842.250000", "175842.253000", "175842.255000", "175842.263000", "175842.266000", "175842.270000", "175842.272000", "175842.275000", "175842.277000", "175842.280000", "175842.283000", "175842.285000", "175842.288000", "175922.196000", "175922.198000", "175922.202000", "175922.204000", "175922.220000", "175922.223000", "175922.226000", "175922.228000", "175922.231000", "175922.233000", "175922.236000", "175922.239000", "175922.241000", "175922.244000", "175922.247000", "175922.249000", "175922.252000", "175922.254000", "175922.257000", "175922.260000", "175922.262000", "175922.265000", "175922.268000", "175922.270000", "175922.273000", "175922.275000", "175922.278000", "175922.281000", "175922.283000", "175922.286000", "175922.289000", "175922.291000", "175922.294000", "180002.195000", "180002.197000", "180002.200000", "180002.203000", "180002.205000", "180002.208000", "180002.210000", "180002.213000", "180002.216000", "180002.218000", "180002.221000", "180002.224000", "180002.226000", "180002.229000", "180002.231000", "180002.234000", "180002.237000", "180002.239000", "180002.242000", "180002.244000", "180002.247000", "180002.249000", "180002.252000", "180002.254000", "180002.257000", "180002.260000", "180002.262000", "180002.265000", "180002.268000", "180002.270000", "180002.273000", "180002.276000", "180002.279000", "180042.195000", "180042.197000", "180042.200000", "180042.203000", "180042.206000", "180042.208000", "180042.211000", "180042.214000", "180042.216000", "180042.219000", "180042.221000", "180042.224000", "180042.227000", "180042.229000", "180042.232000", "180042.234000", "180042.237000", "180042.246000", "180042.249000", "180042.252000", "180042.254000", "180042.257000", "180042.259000", "180042.262000", "180042.265000", "180042.267000", "180042.270000", "180042.273000", "180042.275000", "180042.278000", "180042.280000", "180042.283000", "180042.286000", "180042.288000", "180122.195000", "180122.198000", "180122.201000", "180122.204000", "180122.206000", "180122.209000", "180122.211000", "180122.214000", "180122.217000", "180122.219000", "180122.222000", "180122.225000", "180122.227000", "180122.230000", "180122.232000", "180122.235000", "180122.238000", "180122.240000", "180122.243000", "180122.245000", "180122.248000", "180122.251000", "180122.253000", "180122.256000", "180122.259000", "180122.261000", "180122.264000", "180122.266000", "180122.269000", "180122.272000", "180122.274000", "180122.277000", "180122.279000", "180155.137000", "180155.140000", "180155.143000", "180155.146000", "180155.148000", "180155.151000", "180155.154000", "180155.156000", "180155.159000", "180155.162000", "180155.164000", "180155.167000", "180155.170000", "180155.172000", "180155.175000", "180155.177000", "180155.180000", "180155.183000", "180155.186000", "180155.188000", "180155.191000", "180155.193000", "180155.199000", "180155.202000", "180155.205000", "180155.207000", "180155.210000", "180155.213000"],
      "InstanceNumber": [1, 2, 3, 4, 5, 6, 7, 8, 9, 10, 11, 12, 13, 14, 15, 16, 17, 18, 19, 20, 21, 22, 23, 24, 25, 26, 27, 28, 29, 30, 31, 32, 33, 34, 35, 36, 37, 38, 39, 40, 41, 42, 43, 44, 45, 46, 47, 48, 49, 50, 51, 52, 53, 54, 55, 56, 57, 58, 59, 60, 61, 62, 63, 64, 65, 66, 67, 68, 69, 70, 71, 72, 73, 74, 75, 76, 77, 78, 79, 80, 81, 82, 83, 84, 85, 86, 87, 88, 89, 90, 91, 92, 93, 94, 95, 96, 97, 98, 99, 100, 101, 102, 103, 104, 105, 106, 107, 108, 109, 110, 111, 112, 113, 114, 115, 116, 117, 118, 119, 120, 121, 122, 123, 124, 125, 126, 127, 128, 129, 130, 131, 132, 133, 134, 135, 136, 137, 138, 139, 140, 141, 142, 143, 144, 145, 146, 147, 148, 149, 150, 151, 152, 153, 154, 155, 156, 157, 158, 159, 160, 161, 162, 163, 164, 165, 166, 167, 168, 169, 170, 171, 172, 173, 174, 175, 176, 177, 178, 179, 180, 181, 182, 183, 184, 185, 186, 187, 188, 189, 190, 191, 192, 193, 194, 195, 196, 197, 198, 199, 200, 201, 202, 203, 204, 205, 206, 207, 208, 209, 210, 211, 212, 213, 214, 215, 216, 217, 218, 219, 220, 221, 222, 223, 224, 225, 226, 227, 228, 229, 230, 231, 232, 233, 234, 235, 236, 237, 238, 239, 240, 241, 242, 243, 244, 245, 246, 247, 248, 249, 250, 251, 252, 253, 254, 255, 256, 257, 258, 259, 260, 261, 262, 263, 264, 265, 266, 267, 268, 269, 270, 271, 272, 273, 274, 275, 276, 277, 278, 279, 280, 281, 282, 283, 284, 285, 286, 287, 288, 289, 290, 291, 292, 293, 294, 295, 296, 297, 298, 299, 300, 301, 302, 303, 304, 305, 306, 307, 308, 309, 310, 311, 312, 313, 314, 315, 316, 317, 318, 319, 320, 321, 322, 323, 324, 325, 326, 327, 328, 329, 330, 331, 332, 333, 334, 335, 336, 337, 338, 339, 340, 341, 342, 343, 344, 345, 346, 347, 348, 349, 350, 351, 352, 353, 354, 355, 356, 357, 358, 359, 360, 361, 362, 363, 364, 365, 366, 367, 368, 369, 370, 371, 372, 373, 374, 375, 376, 377, 378, 379, 380, 381, 382, 383, 384, 385, 386, 387, 388, 389, 390, 391, 392],
