{
  "AcquisitionMatrixPE": 88,
  "AcquisitionNumber": 1,
  "AcquisitionTime": "18:02:36.460000",
  "BandwidthPerPixelPhaseEncode": 19.592,
  "BaseResolution": 88,
  "BodyPartExamined": "BRAIN",
  "ConsistencyInfo": "N4_VE11C_LATEST_20160120",
  "ConversionSoftware": "dcm2niix",
  "ConversionSoftwareVersion": "v1.0.20190902",
  "DerivedVendorReportedEchoSpacing": 0.000580014,
  "DeviceSerialNumber": "67050",
  "DwellTime": 2.6e-06,
  "EchoTime": 0.033,
  "EchoTrainLength": 88,
  "EffectiveEchoSpacing": 0.000580014,
  "FlipAngle": 62,
  "ImageOrientationPatientDICOM": [0.99636, -0.0332566, 0.0784873, 0.0347937, 0.999227, -0.0182979],
  "ImageType": [
    "ORIGINAL",
    "PRIMARY",
    "M",
    "ND",
    "MOSAIC"
],
  "ImagingFrequency": 123.251,
  "InPlanePhaseEncodingDirectionDICOM": "COL",
  "InstitutionAddress": "Olive_Street_60_Providence_RI_US_02912",
  "InstitutionName": "BROWN_UNIVERSITY_MRF",
  "InstitutionalDepartmentName": "Department",
  "MRAcquisitionType": "2D",
  "MagneticFieldStrength": 3,
  "Manufacturer": "Siemens",
  "ManufacturersModelName": "Prisma_fit",
  "Modality": "MR",
  "MultibandAccelerationFactor": 4,
  "PartialFourier": 1,
  "PatientPosition": "HFS",
  "PercentPhaseFOV": 100,
  "PhaseEncodingDirection": "j-",
  "PhaseEncodingSteps": 88,
  "PhaseResolution": 1,
  "PixelBandwidth": 2185,
  "ProcedureStepDescription": "ASHENHAV_1222",
  "ProtocolName": "func-bold_task-RDMmotion_run-06",
  "PulseSequenceDetails": "%SiemensSeq%_ep2d_bold",
  "ReceiveCoilActiveElements": "HC1-7",
  "ReceiveCoilName": "HeadNeck_64",
  "ReconMatrixPE": 88,
  "RefLinesPE": 8,
  "RepetitionTime": 1.2,
  "SAR": 0.0465768,
  "ScanOptions": "FS",
  "ScanningSequence": "EP",
  "SequenceName": "_epfid2d1_88",
  "SequenceVariant": "SK",
  "SeriesDescription": "func-bold_task-RDMmotion_run-06",
  "SeriesNumber": 17,
  "ShimSetting": [1761, -9051, 4189, 364, -95, -156, 33, -30],
  "SliceThickness": 2.4,
  "SliceTiming": [0.55, 0, 0.6275, 0.0775, 0.7075, 0.1575, 0.785, 0.235, 0.865, 0.315, 0.9425, 0.3925, 1.0225, 0.47, 1.1, 0.55, 0, 0.6275, 0.0775, 0.7075, 0.1575, 0.785, 0.235, 0.865, 0.315, 0.9425, 0.3925, 1.0225, 0.47, 1.1, 0.55, 0, 0.6275, 0.0775, 0.7075, 0.1575, 0.785, 0.235, 0.865, 0.315, 0.9425, 0.3925, 1.0225, 0.47, 1.1, 0.55, 0, 0.6275, 0.0775, 0.7075, 0.1575, 0.785, 0.235, 0.865, 0.315, 0.9425, 0.3925, 1.0225, 0.47, 1.1],
  "SoftwareVersions": "syngo_MR_E11",
  "SpacingBetweenSlices": 2.4,
  "StationName": "AWP67050",
  "TaskName": "RDMmotion",
  "TotalReadoutTime": 0.0504612,
  "TxRefAmp": 245.597,
  "dcmmeta_affine": [
    [-2.389000177383423, 0.08342572301626205, 0.18676340579986572, 101.08338928222656],
    [0.07974020391702652, 2.395873785018921, -0.05030921474099159, -101.17401123046875],
    [0.18819110095500946, 0.04387340322136879, 2.392193078994751, -105.59710693359375],
    [0.0, 0.0, 0.0, 1.0]
],
  "dcmmeta_reorient_transform": [
    [0.0, -1.0, 0.0, 87.0],
    [1.0, 0.0, 0.0, 0.0],
    [0.0, 0.0, 1.0, 0.0],
    [0.0, 0.0, 0.0, 1.0]
],
  "dcmmeta_shape": [88, 88, 60, 125],
  "dcmmeta_slice_dim": 2,
  "dcmmeta_version": 0.6,
  "global": {
    "const": {
      "AcquisitionMatrix": [88, 0, 0, 88],
      "AngioFlag": "N",
      "BitsAllocated": 16,
      "BitsStored": 12,
      "BodyPartExamined": "BRAIN",
      "Columns": 704,
      "DeidentificationMethodCodeSequence": [
        {
          "CodeMeaning": "XNAT DicomEdit 6 Script",
          "CodeValue": "3",
          "CodingSchemeDesignator": "XNAT",
          "CodingSchemeVersion": "1.0"}
],
      "EchoNumbers": 1,
      "EchoTime": 33.0,
      "EchoTrainLength": 88,
      "FlipAngle": 62.0,
      "HighBit": 11,
      "ImageOrientationPatient": [0.9963602489556, -0.0332565792711, 0.07848728710001, 0.03479366553274, 0.99922699485552, -0.018297912198],
      "ImagePositionPatient": [-869.84858548764, -820.63615343411, -146.22997722176],
      "ImageType": [
        "ORIGINAL",
        "PRIMARY",
        "M",
        "ND",
        "MOSAIC"
],
      "ImagedNucleus": "1H",
      "ImagingFrequency": 123.250871,
      "InPlanePhaseEncodingDirection": "COL",
      "MRAcquisitionType": "2D",
      "MagneticFieldStrength": 3.0,
      "Manufacturer": "SIEMENS",
      "ManufacturerModelName": "Prisma_fit",
      "Modality": "MR",
      "NumberOfAverages": 1.0,
      "NumberOfPhaseEncodingSteps": 88,
      "PercentPhaseFieldOfView": 100.0,
      "PercentSampling": 100.0,
      "PerformedProcedureStepStartTime": "164923.935000",
      "PhotometricInterpretation": "MONOCHROME2",
      "PixelBandwidth": 2185.0,
      "PixelRepresentation": 0,
      "PixelSpacing": [2.3977272510529, 2.3977272510529],
      "ProtocolName": "func-bold_task-RDMmotion_run-06",
      "RepetitionTime": 1200.0,
      "Rows": 704,
      "SAR": 0.04657677985161,
      "SamplesPerPixel": 1,
      "ScanOptions": "FS",
      "ScanningSequence": "EP",
      "SequenceName": "*epfid2d1_88",
      "SequenceVariant": "SK",
      "SeriesDescription": "func-bold_task-RDMmotion_run-06",
      "SeriesNumber": 17,
      "SeriesTime": "180317.645000",
      "SliceLocation": -95.266678059944,
      "SliceThickness": 2.4000000953674,
      "SmallestImagePixelValue": 0,
      "SoftwareVersions": "syngo MR E11",
      "SpacingBetweenSlices": 2.3999999427365,
      "SpecificCharacterSet": "ISO_IR 100",
      "StudyID": "1",
      "StudyTime": "164923.865000",
      "TransmitCoilName": "Body",
      "VariableFlipAngleFlag": "N",
      "WindowCenterWidthExplanation": "Algo1",
      "dBdt": 0.0},
    "slices": {}
  },
  "time": {
    "samples": {
      "AcquisitionNumber": [1, 2, 3, 4, 5, 6, 7, 8, 9, 10, 11, 12, 13, 14, 15, 16, 17, 18, 19, 20, 21, 22, 23, 24, 25, 26, 27, 28, 29, 30, 31, 32, 33, 34, 35, 36, 37, 38, 39, 40, 41, 42, 43, 44, 45, 46, 47, 48, 49, 50, 51, 52, 53, 54, 55, 56, 57, 58, 59, 60, 61, 62, 63, 64, 65, 66, 67, 68, 69, 70, 71, 72, 73, 74, 75, 76, 77, 78, 79, 80, 81, 82, 83, 84, 85, 86, 87, 88, 89, 90, 91, 92, 93, 94, 95, 96, 97, 98, 99, 100, 101, 102, 103, 104, 105, 106, 107, 108, 109, 110, 111, 112, 113, 114, 115, 116, 117, 118, 119, 120, 121, 122, 123, 124, 125],
      "AcquisitionTime": ["180236.460000", "180237.660000", "180238.860000", "180240.060000", "180241.260000", "180242.460000", "180243.660000", "180244.860000", "180246.060000", "180247.260000", "180248.460000", "180249.660000", "180250.860000", "180252.060000", "180253.260000", "180254.460000", "180255.660000", "180256.860000", "180258.060000", "180259.260000", "180300.460000", "180301.660000", "180302.860000", "180304.060000", "180305.260000", "180306.460000", "180307.660000", "180308.860000", "180310.060000", "180311.260000", "180312.460000", "180313.660000", "180314.860000", "180316.060000", "180317.260000", "180318.460000", "180319.660000", "180320.860000", "180322.060000", "180323.260000", "180324.460000", "180325.660000", "180326.860000", "180328.060000", "180329.260000", "180330.460000", "180331.660000", "180332.860000", "180334.060000", "180335.260000", "180336.460000", "180337.660000", "180338.860000", "180340.060000", "180341.260000", "180342.460000", "180343.660000", "180344.860000", "180346.060000", "180347.260000", "180348.460000", "180349.660000", "180350.860000", "180352.060000", "180353.260000", "180354.460000", "180355.660000", "180356.860000", "180358.060000", "180359.260000", "180400.460000", "180401.660000", "180402.860000", "180404.060000", "180405.260000", "180406.460000", "180407.660000", "180408.860000", "180410.060000", "180411.260000", "180412.460000", "180413.660000", "180414.860000", "180416.060000", "180417.260000", "180418.460000", "180419.660000", "180420.860000", "180422.060000", "180423.260000", "180424.460000", "180425.660000", "180426.860000", "180428.060000", "180429.260000", "180430.460000", "180431.660000", "180432.860000", "180434.060000", "180435.260000", "180436.460000", "180437.660000", "180438.860000", "180440.060000", "180441.260000", "180442.460000", "180443.660000", "180444.860000", "180446.060000", "180447.260000", "180448.460000", "180449.660000", "180450.860000", "180452.060000", "180453.260000", "180454.460000", "180455.660000", "180456.860000", "180458.060000", "180459.260000", "180500.460000", "180501.660000", "180502.860000", "180504.060000", "180505.260000"],
      "ContentTime": ["180317.649000", "180317.652000", "180317.655000", "180317.658000", "180317.660000", "180317.663000", "180317.665000", "180317.669000", "180317.671000", "180317.674000", "180317.676000", "180317.679000", "180317.681000", "180317.701000", "180317.709000", "180317.711000", "180317.714000", "180317.717000", "180317.719000", "180317.722000", "180317.724000", "180317.727000", "180317.730000", "180317.732000", "180317.735000", "180317.738000", "180317.740000", "180317.743000", "180317.745000", "180317.748000", "180317.751000", "180317.753000", "180317.756000", "180357.646000", "180357.650000", "180357.652000", "180357.655000", "180357.664000", "180357.666000", "180357.669000", "180357.672000", "180357.674000", "180357.677000", "180357.679000", "180357.682000", "180357.684000", "180357.687000", "180357.689000", "180357.692000", "180357.694000", "180357.697000", "180357.700000", "180357.702000", "180357.705000", "180357.708000", "180357.710000", "180357.713000", "180357.715000", "180357.718000", "180357.720000", "180357.723000", "180357.725000", "180357.728000", "180357.731000", "180357.733000", "180357.736000", "180357.738000", "180437.644000", "180437.648000", "180437.650000", "180437.653000", "180437.655000", "180437.666000", "180437.669000", "180437.671000", "180437.674000", "180437.677000", "180437.679000", "180437.682000", "180437.684000", "180437.687000", "180437.689000", "180437.693000", "180437.695000", "180437.698000", "180437.700000", "180437.703000", "180437.706000", "180437.708000", "180437.711000", "180437.713000", "180437.716000", "180437.718000", "180437.721000", "180437.724000", "180437.732000", "180437.734000", "180437.737000", "180437.739000", "180437.742000", "180506.927000", "180506.930000", "180506.933000", "180506.936000", "180506.938000", "180506.941000", "180506.944000", "180506.946000", "180506.949000", "180506.951000", "180506.954000", "180506.956000", "180506.959000", "180506.962000", "180506.964000", "180506.967000", "180506.970000", "180506.972000", "180506.975000", "180506.978000", "180506.980000", "180506.983000", "180506.986000", "180506.989000", "180506.992000"],
      "InstanceCreationTime": ["180317.649000", "180317.652000", "180317.655000", "180317.658000", "180317.660000", "180317.663000", "180317.665000", "180317.669000", "180317.671000", "180317.674000", "180317.676000", "180317.679000", "180317.681000", "180317.701000", "180317.709000", "180317.711000", "180317.714000", "180317.717000", "180317.719000", "180317.722000", "180317.724000", "180317.727000", "180317.730000", "180317.732000", "180317.735000", "180317.738000", "180317.740000", "180317.743000", "180317.745000", "180317.748000", "180317.751000", "180317.753000", "180317.756000", "180357.646000", "180357.650000", "180357.652000", "180357.655000", "180357.664000", "180357.666000", "180357.669000", "180357.672000", "180357.674000", "180357.677000", "180357.679000", "180357.682000", "180357.684000", "180357.687000", "180357.689000", "180357.692000", "180357.694000", "180357.697000", "180357.700000", "180357.702000", "180357.705000", "180357.708000", "180357.710000", "180357.713000", "180357.715000", "180357.718000", "180357.720000", "180357.723000", "180357.725000", "180357.728000", "180357.731000", "180357.733000", "180357.736000", "180357.738000", "180437.644000", "180437.648000", "180437.650000", "180437.653000", "180437.655000", "180437.666000", "180437.669000", "180437.671000", "180437.674000", "180437.677000", "180437.679000", "180437.682000", "180437.684000", "180437.687000", "180437.689000", "180437.693000", "180437.695000", "180437.698000", "180437.700000", "180437.703000", "180437.706000", "180437.708000", "180437.711000", "180437.713000", "180437.716000", "180437.718000", "180437.721000", "180437.724000", "180437.732000", "180437.734000", "180437.737000", "180437.739000", "180437.742000", "180506.927000", "180506.930000", "180506.933000", "180506.936000", "180506.938000", "180506.941000", "180506.944000", "180506.946000", "180506.949000", "180506.951000", "180506.954000", "180506.956000", "180506.959000", "180506.962000", "180506.964000", "180506.967000", "180506.970000", "180506.972000", "180506.975000", "180506.978000", "180506.980000", "180506.983000", "180506.986000", "180506.989000", "180506.992000"],
      "InstanceNumber": [1, 2, 3, 4, 5, 6, 7, 8, 9, 10, 11, 12, 13, 14, 15, 16, 17, 18, 19, 20, 21, 22, 23, 24, 25, 26, 27, 28, 29, 30, 31, 32, 33, 34, 35, 36, 37, 38, 39, 40, 41, 42, 43, 44, 45, 46, 47, 48, 49, 50, 51, 52, 53, 54, 55, 56, 57, 58, 59, 60, 61, 62, 63, 64, 65, 66, 67, 68, 69, 70, 71, 72, 73, 74, 75, 76, 77, 78, 79, 80, 81, 82, 83, 84, 85, 86, 87, 88, 89, 90, 91, 92, 93, 94, 95, 96, 97, 98, 99, 100, 101, 102, 103, 104, 105, 106, 107, 108, 109, 110, 111, 112, 113, 114, 115, 116, 117, 118, 119, 120, 121, 122, 123, 124, 125],
      "LargestImagePixelValue": [2103, 2028, 1977, 1966, 1957, 1973, 1938, 1945, 1950, 1950, 1973, 1959, 1977, 1950, 1962, 1958, 1991, 1942, 1978, 1997, 1957, 1954, 1989, 1941, 1971, 1980, 1961, 1993, 1974, 1950, 1981, 1965, 1955, 1960, 1934, 1936, 1920, 1963, 1943, 1974, 1961, 1947, 1986, 1947, 1968, 1944, 1971, 1942, 1943, 1914, 1960, 1930, 1967, 1946, 1946, 1943, 1947, 1936, 1916, 1982, 1940, 1978, 1927, 1981, 1964, 1944, 1964, 1956, 1946, 1945, 1968, 1939, 1982, 1940, 1969, 1962, 1954, 1992, 1970, 1966, 1961, 1954, 1996, 1946, 1974, 1988, 1970, 1985, 1972, 1971, 1965, 1990, 1960, 1992, 1978, 1976, 1963, 1966, 2000, 1951, 1980, 1969, 1972, 1977, 1987, 1964, 1970, 1983, 1967, 1997, 1954, 2002, 1958, 1989, 1957, 1985, 1980, 1965, 1962, 1941, 1976, 1965, 1982, 1947, 1952],
      "WindowCenter": [566.0, 563.0, 563.0, 563.0, 564.0, 565.0, 564.0, 564.0, 564.0, 563.0, 563.0, 562.0, 563.0, 563.0, 563.0, 564.0, 565.0, 565.0, 565.0, 564.0, 563.0, 563.0, 564.0, 564.0, 567.0, 567.0, 565.0, 565.0, 563.0, 563.0, 562.0, 561.0, 562.0, 562.0, 562.0, 563.0, 563.0, 564.0, 563.0, 563.0, 563.0, 563.0, 564.0, 564.0, 565.0, 565.0, 566.0, 565.0, 565.0, 563.0, 563.0, 562.0, 562.0, 561.0, 561.0, 561.0, 562.0, 563.0, 562.0, 564.0, 562.0, 563.0, 561.0, 562.0, 562.0, 561.0, 561.0, 561.0, 561.0, 561.0, 562.0, 562.0, 563.0, 562.0, 562.0, 562.0, 562.0, 563.0, 562.0, 562.0, 561.0, 562.0, 563.0, 563.0, 564.0, 563.0, 562.0, 562.0, 561.0, 561.0, 562.0, 562.0, 561.0, 562.0, 562.0, 562.0, 563.0, 563.0, 564.0, 564.0, 564.0, 563.0, 563.0, 563.0, 563.0, 562.0, 563.0, 563.0, 563.0, 564.0, 562.0, 563.0, 562.0, 562.0, 561.0, 561.0, 561.0, 561.0, 562.0, 563.0, 564.0, 564.0, 564.0, 564.0, 564.0],
      "WindowWidth": [1207.0, 1200.0, 1199.0, 1201.0, 1202.0, 1203.0, 1202.0, 1202.0, 1201.0, 1200.0, 1200.0, 1198.0, 1199.0, 1199.0, 1200.0, 1202.0, 1204.0, 1204.0, 1203.0, 1202.0, 1200.0, 1200.0, 1201.0, 1203.0, 1207.0, 1208.0, 1205.0, 1203.0, 1200.0, 1198.0, 1198.0, 1196.0, 1197.0, 1197.0, 1198.0, 1199.0, 1200.0, 1201.0, 1200.0, 1200.0, 1200.0, 1199.0, 1202.0, 1202.0, 1205.0, 1205.0, 1205.0, 1203.0, 1203.0, 1200.0, 1199.0, 1197.0, 1197.0, 1196.0, 1195.0, 1196.0, 1197.0, 1199.0, 1198.0, 1200.0, 1198.0, 1198.0, 1196.0, 1197.0, 1196.0, 1194.0, 1195.0, 1195.0, 1195.0, 1195.0, 1198.0, 1197.0, 1199.0, 1198.0, 1197.0, 1198.0, 1197.0, 1199.0, 1198.0, 1196.0, 1196.0, 1197.0, 1200.0, 1200.0, 1201.0, 1199.0, 1196.0, 1196.0, 1195.0, 1196.0, 1196.0, 1197.0, 1195.0, 1197.0, 1196.0, 1197.0, 1198.0, 1199.0, 1202.0, 1201.0, 1202.0, 1200.0, 1200.0, 1199.0, 1198.0, 1197.0, 1198.0, 1199.0, 1199.0, 1200.0, 1198.0, 1198.0, 1196.0, 1197.0, 1195.0, 1195.0, 1195.0, 1195.0, 1197.0, 1199.0, 1201.0, 1201.0, 1201.0, 1200.0, 1200.0]
    },
    "slices": {}
  }
}