{
  "AcquisitionMatrixPE": 88,
  "AcquisitionNumber": 1,
  "AcquisitionTime": "16:05:48.477500",
  "BandwidthPerPixelPhaseEncode": 19.592,
  "BaseResolution": 88,
  "BodyPartExamined": "BRAIN",
  "ConsistencyInfo": "N4_VE11C_LATEST_20160120",
  "ConversionSoftware": "dcm2niix",
  "ConversionSoftwareVersion": "v1.0.20190902",
  "DerivedVendorReportedEchoSpacing": 0.000580014,
  "DeviceSerialNumber": "67050",
  "DwellTime": 2.6e-06,
  "EchoTime": 0.033,
  "EchoTrainLength": 88,
  "EffectiveEchoSpacing": 0.000580014,
  "FlipAngle": 62,
  "ImageOrientationPatientDICOM": [0.994355, -0.050014, 0.0935787, 0.049328, 0.998736, 0.00963087],
  "ImageType": [
    "ORIGINAL",
    "PRIMARY",
    "M",
    "ND",
    "MOSAIC"
],
  "ImagingFrequency": 123.251,
  "InPlanePhaseEncodingDirectionDICOM": "COL",
  "InstitutionAddress": "Olive_Street_60_Providence_RI_US_02912",
  "InstitutionName": "BROWN_UNIVERSITY_MRF",
  "InstitutionalDepartmentName": "Department",
  "MRAcquisitionType": "2D",
  "MagneticFieldStrength": 3,
  "Manufacturer": "Siemens",
  "ManufacturersModelName": "Prisma_fit",
  "Modality": "MR",
  "MultibandAccelerationFactor": 4,
  "PartialFourier": 1,
  "PatientPosition": "HFS",
  "PercentPhaseFOV": 100,
  "PhaseEncodingDirection": "j-",
  "PhaseEncodingSteps": 88,
  "PhaseResolution": 1,
  "PixelBandwidth": 2185,
  "ProcedureStepDescription": "ASHENHAV_1222",
  "ProtocolName": "func-bold_task-RDMmotion_run-06",
  "PulseSequenceDetails": "%SiemensSeq%_ep2d_bold",
  "ReceiveCoilActiveElements": "HC1-7;NC1",
  "ReceiveCoilName": "HeadNeck_64",
  "ReconMatrixPE": 88,
  "RefLinesPE": 8,
  "RepetitionTime": 1.2,
  "SAR": 0.0457339,
  "ScanOptions": "FS",
  "ScanningSequence": "EP",
  "SequenceName": "_epfid2d1_88",
  "SequenceVariant": "SK",
  "SeriesDescription": "func-bold_task-RDMmotion_run-06",
  "SeriesNumber": 17,
  "ShimSetting": [1756, -9107, 4339, 527, -159, -232, 72, 26],
  "SliceThickness": 2.4,
  "SliceTiming": [0.5525, 0, 0.63, 0.08, 0.7075, 0.1575, 0.7875, 0.2375, 0.865, 0.315, 0.945, 0.395, 1.0225, 0.4725, 1.1025, 0.5525, 0, 0.63, 0.08, 0.7075, 0.1575, 0.7875, 0.2375, 0.865, 0.315, 0.945, 0.395, 1.0225, 0.4725, 1.1025, 0.5525, 0, 0.63, 0.08, 0.7075, 0.1575, 0.7875, 0.2375, 0.865, 0.315, 0.945, 0.395, 1.0225, 0.4725, 1.1025, 0.5525, 0, 0.63, 0.08, 0.7075, 0.1575, 0.7875, 0.2375, 0.865, 0.315, 0.945, 0.395, 1.0225, 0.4725, 1.1025],
  "SoftwareVersions": "syngo_MR_E11",
  "SpacingBetweenSlices": 2.4,
  "StationName": "AWP67050",
  "TaskName": "RDMmotion",
  "TotalReadoutTime": 0.0504612,
  "TxRefAmp": 219.483,
  "dcmmeta_affine": [
    [-2.3841917514801025, 0.1182750016450882, 0.22546109557151794, 98.29522705078125],
    [0.11991982161998749, 2.3946969509124756, 0.011905092746019363, -102.90770721435547],
    [0.22437623143196106, -0.023092199116945267, 2.3893566131591797, -83.09690856933594],
    [0.0, 0.0, 0.0, 1.0]
],
  "dcmmeta_reorient_transform": [
    [0.0, -1.0, 0.0, 87.0],
    [1.0, 0.0, 0.0, 0.0],
    [0.0, 0.0, 1.0, 0.0],
    [0.0, 0.0, 0.0, 1.0]
],
  "dcmmeta_shape": [88, 88, 60, 125],
  "dcmmeta_slice_dim": 2,
  "dcmmeta_version": 0.6,
  "global": {
    "const": {
      "AcquisitionMatrix": [88, 0, 0, 88],
      "AngioFlag": "N",
      "BitsAllocated": 16,
      "BitsStored": 12,
      "BodyPartExamined": "BRAIN",
      "Columns": 704,
      "DeidentificationMethodCodeSequence": [
        {
          "CodeMeaning": "XNAT DicomEdit 6 Script",
          "CodeValue": "3",
          "CodingSchemeDesignator": "XNAT",
          "CodingSchemeVersion": "1.0"}
],
      "EchoNumbers": 1,
      "EchoTime": 33.0,
      "EchoTrainLength": 88,
      "FlipAngle": 62.0,
      "HighBit": 11,
      "ImageOrientationPatient": [0.99435488072662, -0.0500139544333, 0.09357871305532, 0.04932796464468, 0.99873620052865, 0.00963087003409],
      "ImagePositionPatient": [-879.34492431047, -806.06230199443, -161.32620301386],
      "ImageType": [
        "ORIGINAL",
        "PRIMARY",
        "M",
        "ND",
        "MOSAIC"
],
      "ImagedNucleus": "1H",
      "ImagingFrequency": 123.250767,
      "InPlanePhaseEncodingDirection": "COL",
      "MRAcquisitionType": "2D",
      "MagneticFieldStrength": 3.0,
      "Manufacturer": "SIEMENS",
      "ManufacturerModelName": "Prisma_fit",
      "Modality": "MR",
      "NumberOfAverages": 1.0,
      "NumberOfPhaseEncodingSteps": 88,
      "PercentPhaseFieldOfView": 100.0,
      "PercentSampling": 100.0,
      "PerformedProcedureStepStartTime": "144128.036000",
      "PhotometricInterpretation": "MONOCHROME2",
      "PixelBandwidth": 2185.0,
      "PixelRepresentation": 0,
      "PixelSpacing": [2.3977272510529, 2.3977272510529],
      "ProtocolName": "func-bold_task-RDMmotion_run-06",
      "RepetitionTime": 1200.0,
      "Rows": 704,
      "SAR": 0.0457338889622,
      "SamplesPerPixel": 1,
      "ScanOptions": "FS",
      "ScanningSequence": "EP",
      "SequenceName": "*epfid2d1_88",
      "SequenceVariant": "SK",
      "SeriesDescription": "func-bold_task-RDMmotion_run-06",
      "SeriesNumber": 17,
      "SeriesTime": "160615.555000",
      "SliceLocation": -74.004802255241,
      "SliceThickness": 2.4000000953674,
      "SmallestImagePixelValue": 0,
      "SoftwareVersions": "syngo MR E11",
      "SpacingBetweenSlices": 2.3999999856663,
      "SpecificCharacterSet": "ISO_IR 100",
      "StudyID": "1",
      "StudyTime": "144127.968000",
      "TransmitCoilName": "Body",
      "VariableFlipAngleFlag": "N",
      "WindowCenterWidthExplanation": "Algo1",
      "dBdt": 0.0},
    "slices": {}
  },
  "time": {
    "samples": {
      "AcquisitionNumber": [1, 2, 3, 4, 5, 6, 7, 8, 9, 10, 11, 12, 13, 14, 15, 16, 17, 18, 19, 20, 21, 22, 23, 24, 25, 26, 27, 28, 29, 30, 31, 32, 33, 34, 35, 36, 37, 38, 39, 40, 41, 42, 43, 44, 45, 46, 47, 48, 49, 50, 51, 52, 53, 54, 55, 56, 57, 58, 59, 60, 61, 62, 63, 64, 65, 66, 67, 68, 69, 70, 71, 72, 73, 74, 75, 76, 77, 78, 79, 80, 81, 82, 83, 84, 85, 86, 87, 88, 89, 90, 91, 92, 93, 94, 95, 96, 97, 98, 99, 100, 101, 102, 103, 104, 105, 106, 107, 108, 109, 110, 111, 112, 113, 114, 115, 116, 117, 118, 119, 120, 121, 122, 123, 124, 125],
      "AcquisitionTime": ["160548.477500", "160549.677500", "160550.877500", "160552.077500", "160553.277500", "160554.477500", "160555.677500", "160556.877500", "160558.077500", "160559.277500", "160600.477500", "160601.677500", "160602.877500", "160604.077500", "160605.277500", "160606.477500", "160607.677500", "160608.877500", "160610.077500", "160611.277500", "160612.477500", "160613.677500", "160614.877500", "160616.077500", "160617.277500", "160618.477500", "160619.677500", "160620.877500", "160622.077500", "160623.277500", "160624.477500", "160625.677500", "160626.877500", "160628.077500", "160629.277500", "160630.477500", "160631.677500", "160632.877500", "160634.077500", "160635.277500", "160636.477500", "160637.677500", "160638.877500", "160640.077500", "160641.277500", "160642.477500", "160643.677500", "160644.877500", "160646.077500", "160647.277500", "160648.477500", "160649.677500", "160650.877500", "160652.077500", "160653.277500", "160654.477500", "160655.677500", "160656.877500", "160658.077500", "160659.277500", "160700.477500", "160701.677500", "160702.877500", "160704.077500", "160705.277500", "160706.477500", "160707.677500", "160708.877500", "160710.077500", "160711.277500", "160712.477500", "160713.677500", "160714.877500", "160716.077500", "160717.277500", "160718.477500", "160719.677500", "160720.877500", "160722.077500", "160723.277500", "160724.477500", "160725.677500", "160726.877500", "160728.077500", "160729.277500", "160730.477500", "160731.677500", "160732.877500", "160734.077500", "160735.277500", "160736.477500", "160737.677500", "160738.877500", "160740.077500", "160741.277500", "160742.477500", "160743.677500", "160744.877500", "160746.077500", "160747.277500", "160748.477500", "160749.677500", "160750.877500", "160752.077500", "160753.277500", "160754.477500", "160755.677500", "160756.877500", "160758.077500", "160759.277500", "160800.477500", "160801.677500", "160802.877500", "160804.077500", "160805.277500", "160806.477500", "160807.677500", "160808.877500", "160810.077500", "160811.277500", "160812.477500", "160813.677500", "160814.877500", "160816.077500", "160817.277500"],
      "ContentTime": ["160615.559000", "160615.562000", "160615.565000", "160615.567000", "160615.570000", "160615.572000", "160615.575000", "160615.578000", "160615.587000", "160615.589000", "160615.592000", "160615.594000", "160615.599000", "160615.616000", "160615.619000", "160615.621000", "160615.624000", "160615.626000", "160615.629000", "160615.631000", "160615.638000", "160615.641000", "160655.555000", "160655.557000", "160655.560000", "160655.562000", "160655.565000", "160655.568000", "160655.570000", "160655.573000", "160655.575000", "160655.578000", "160655.580000", "160655.583000", "160655.585000", "160655.588000", "160655.590000", "160655.593000", "160655.595000", "160655.598000", "160655.601000", "160655.603000", "160655.606000", "160655.608000", "160655.611000", "160655.613000", "160655.616000", "160655.618000", "160655.621000", "160655.623000", "160655.626000", "160655.628000", "160655.631000", "160655.634000", "160655.636000", "160735.554000", "160735.557000", "160735.560000", "160735.563000", "160735.565000", "160735.568000", "160735.571000", "160735.573000", "160735.576000", "160735.578000", "160735.581000", "160735.584000", "160735.586000", "160735.589000", "160735.592000", "160735.594000", "160735.597000", "160735.599000", "160735.602000", "160735.604000", "160735.607000", "160735.609000", "160735.612000", "160735.615000", "160735.617000", "160735.620000", "160735.622000", "160735.625000", "160735.627000", "160735.630000", "160735.632000", "160735.635000", "160735.637000", "160815.555000", "160815.557000", "160815.560000", "160815.563000", "160815.565000", "160815.568000", "160815.571000", "160815.580000", "160815.583000", "160815.586000", "160815.588000", "160815.591000", "160815.594000", "160815.596000", "160815.599000", "160815.601000", "160815.604000", "160815.607000", "160815.609000", "160815.612000", "160815.615000", "160815.617000", "160815.620000", "160815.623000", "160815.625000", "160815.628000", "160815.630000", "160815.633000", "160815.636000", "160815.638000", "160815.641000", "160815.644000", "160815.646000", "160815.649000", "160818.916000", "160818.919000", "160818.921000"],
      "InstanceCreationTime": ["160615.559000", "160615.562000", "160615.565000", "160615.567000", "160615.570000", "160615.572000", "160615.575000", "160615.578000", "160615.587000", "160615.589000", "160615.592000", "160615.594000", "160615.599000", "160615.616000", "160615.619000", "160615.621000", "160615.624000", "160615.626000", "160615.629000", "160615.631000", "160615.638000", "160615.641000", "160655.555000", "160655.557000", "160655.560000", "160655.562000", "160655.565000", "160655.568000", "160655.570000", "160655.573000", "160655.575000", "160655.578000", "160655.580000", "160655.583000", "160655.585000", "160655.588000", "160655.590000", "160655.593000", "160655.595000", "160655.598000", "160655.601000", "160655.603000", "160655.606000", "160655.608000", "160655.611000", "160655.613000", "160655.616000", "160655.618000", "160655.621000", "160655.623000", "160655.626000", "160655.628000", "160655.631000", "160655.634000", "160655.636000", "160735.554000", "160735.557000", "160735.560000", "160735.563000", "160735.565000", "160735.568000", "160735.571000", "160735.573000", "160735.576000", "160735.578000", "160735.581000", "160735.584000", "160735.586000", "160735.589000", "160735.592000", "160735.594000", "160735.597000", "160735.599000", "160735.602000", "160735.604000", "160735.607000", "160735.609000", "160735.612000", "160735.615000", "160735.617000", "160735.620000", "160735.622000", "160735.625000", "160735.627000", "160735.630000", "160735.632000", "160735.635000", "160735.637000", "160815.555000", "160815.557000", "160815.560000", "160815.563000", "160815.565000", "160815.568000", "160815.571000", "160815.580000", "160815.583000", "160815.586000", "160815.588000", "160815.591000", "160815.594000", "160815.596000", "160815.599000", "160815.601000", "160815.604000", "160815.607000", "160815.609000", "160815.612000", "160815.615000", "160815.617000", "160815.620000", "160815.623000", "160815.625000", "160815.628000", "160815.630000", "160815.633000", "160815.636000", "160815.638000", "160815.641000", "160815.644000", "160815.646000", "160815.649000", "160818.916000", "160818.919000", "160818.921000"],
      "InstanceNumber": [1, 2, 3, 4, 5, 6, 7, 8, 9, 10, 11, 12, 13, 14, 15, 16, 17, 18, 19, 20, 21, 22, 23, 24, 25, 26, 27, 28, 29, 30, 31, 32, 33, 34, 35, 36, 37, 38, 39, 40, 41, 42, 43, 44, 45, 46, 47, 48, 49, 50, 51, 52, 53, 54, 55, 56, 57, 58, 59, 60, 61, 62, 63, 64, 65, 66, 67, 68, 69, 70, 71, 72, 73, 74, 75, 76, 77, 78, 79, 80, 81, 82, 83, 84, 85, 86, 87, 88, 89, 90, 91, 92, 93, 94, 95, 96, 97, 98, 99, 100, 101, 102, 103, 104, 105, 106, 107, 108, 109, 110, 111, 112, 113, 114, 115, 116, 117, 118, 119, 120, 121, 122, 123, 124, 125],
      "LargestImagePixelValue": [2106, 2046, 2034, 2014, 1989, 2002, 1992, 1995, 1991, 1989, 1969, 1991, 1981, 1979, 1992, 1997, 2000, 1991, 1984, 1980, 1987, 1989, 1988, 1989, 1983, 1986, 1969, 1990, 1987, 1983, 1983, 1989, 1975, 1965, 1975, 1973, 1987, 1987, 1990, 1984, 1993, 1984, 1992, 1990, 1982, 1995, 1973, 1992, 1975, 1989, 1978, 1975, 1962, 1978, 1981, 1965, 1983, 1978, 1984, 1997, 1980, 1989, 1979, 1976, 1982, 1992, 2003, 1974, 1979, 1985, 1955, 1976, 1974, 1978, 1972, 1969, 1974, 1980, 1985, 1967, 1985, 1986, 1998, 1980, 1972, 1971, 1977, 1976, 1987, 1980, 1959, 1989, 1973, 1983, 1972, 1990, 1995, 1980, 1977, 1983, 1973, 1986, 1988, 1995, 1986, 1974, 1990, 1975, 2001, 1988, 1965, 1981, 1977, 1978, 1975, 1968, 1979, 1987, 1978, 1981, 1976, 1974, 1967, 1967, 1980],
      "WindowCenter": [599.0, 596.0, 596.0, 594.0, 594.0, 594.0, 594.0, 593.0, 593.0, 592.0, 591.0, 592.0, 591.0, 592.0, 591.0, 592.0, 592.0, 591.0, 592.0, 592.0, 593.0, 593.0, 593.0, 593.0, 593.0, 592.0, 592.0, 592.0, 592.0, 592.0, 592.0, 592.0, 591.0, 591.0, 592.0, 593.0, 594.0, 593.0, 593.0, 592.0, 592.0, 592.0, 592.0, 592.0, 592.0, 592.0, 591.0, 591.0, 590.0, 591.0, 591.0, 591.0, 591.0, 591.0, 591.0, 591.0, 591.0, 592.0, 593.0, 593.0, 592.0, 592.0, 591.0, 591.0, 591.0, 592.0, 592.0, 592.0, 591.0, 590.0, 590.0, 589.0, 590.0, 589.0, 590.0, 590.0, 590.0, 590.0, 590.0, 590.0, 590.0, 591.0, 592.0, 591.0, 591.0, 592.0, 592.0, 592.0, 593.0, 592.0, 592.0, 592.0, 592.0, 592.0, 592.0, 592.0, 592.0, 592.0, 592.0, 593.0, 592.0, 592.0, 592.0, 592.0, 592.0, 592.0, 592.0, 592.0, 591.0, 591.0, 591.0, 592.0, 592.0, 591.0, 591.0, 590.0, 592.0, 594.0, 594.0, 594.0, 594.0, 594.0, 592.0, 592.0, 591.0],
      "WindowWidth": [1279.0, 1273.0, 1272.0, 1268.0, 1267.0, 1267.0, 1267.0, 1266.0, 1264.0, 1263.0, 1261.0, 1262.0, 1260.0, 1261.0, 1261.0, 1262.0, 1261.0, 1260.0, 1261.0, 1262.0, 1264.0, 1264.0, 1265.0, 1264.0, 1263.0, 1261.0, 1261.0, 1263.0, 1262.0, 1263.0, 1262.0, 1261.0, 1260.0, 1260.0, 1262.0, 1264.0, 1266.0, 1265.0, 1265.0, 1262.0, 1262.0, 1261.0, 1262.0, 1263.0, 1262.0, 1262.0, 1260.0, 1259.0, 1258.0, 1259.0, 1259.0, 1261.0, 1260.0, 1261.0, 1260.0, 1260.0, 1261.0, 1262.0, 1264.0, 1264.0, 1263.0, 1261.0, 1260.0, 1261.0, 1260.0, 1262.0, 1262.0, 1262.0, 1261.0, 1258.0, 1257.0, 1256.0, 1257.0, 1256.0, 1258.0, 1258.0, 1258.0, 1258.0, 1257.0, 1258.0, 1258.0, 1259.0, 1261.0, 1261.0, 1260.0, 1261.0, 1262.0, 1263.0, 1265.0, 1263.0, 1262.0, 1262.0, 1262.0, 1263.0, 1263.0, 1263.0, 1263.0, 1263.0, 1262.0, 1263.0, 1263.0, 1263.0, 1262.0, 1263.0, 1262.0, 1263.0, 1263.0, 1262.0, 1261.0, 1261.0, 1260.0, 1262.0, 1262.0, 1260.0, 1260.0, 1258.0, 1262.0, 1266.0, 1267.0, 1267.0, 1266.0, 1266.0, 1262.0, 1261.0, 1260.0]
    },
    "slices": {}
  }
}