{
  "AcquisitionMatrixPE": 88,
  "AcquisitionNumber": 1,
  "AcquisitionTime": "15:33:18.710000",
  "BandwidthPerPixelPhaseEncode": 19.592,
  "BaseResolution": 88,
  "BodyPartExamined": "BRAIN",
  "ConsistencyInfo": "N4_VE11C_LATEST_20160120",
  "ConversionSoftware": "dcm2niix",
  "ConversionSoftwareVersion": "v1.0.20190902",
  "DerivedVendorReportedEchoSpacing": 0.000580014,
  "DeviceSerialNumber": "67050",
  "DwellTime": 2.6e-06,
  "EchoTime": 0.033,
  "EchoTrainLength": 88,
  "EffectiveEchoSpacing": 0.000580014,
  "FlipAngle": 62,
  "ImageOrientationPatientDICOM": [0.994355, -0.050014, 0.0935787, 0.049328, 0.998736, 0.00963087],
  "ImageType": [
    "ORIGINAL",
    "PRIMARY",
    "M",
    "ND",
    "MOSAIC"
],
  "ImagingFrequency": 123.251,
  "InPlanePhaseEncodingDirectionDICOM": "COL",
  "InstitutionAddress": "Olive_Street_60_Providence_RI_US_02912",
  "InstitutionName": "BROWN_UNIVERSITY_MRF",
  "InstitutionalDepartmentName": "Department",
  "MRAcquisitionType": "2D",
  "MagneticFieldStrength": 3,
  "Manufacturer": "Siemens",
  "ManufacturersModelName": "Prisma_fit",
  "Modality": "MR",
  "MultibandAccelerationFactor": 4,
  "PartialFourier": 1,
  "PatientPosition": "HFS",
  "PercentPhaseFOV": 100,
  "PhaseEncodingDirection": "j-",
  "PhaseEncodingSteps": 88,
  "PhaseResolution": 1,
  "PixelBandwidth": 2185,
  "ProcedureStepDescription": "ASHENHAV_1222",
  "ProtocolName": "func-bold_task-RDMcolor_run-03",
  "PulseSequenceDetails": "%SiemensSeq%_ep2d_bold",
  "ReceiveCoilActiveElements": "HC1-7;NC1",
  "ReceiveCoilName": "HeadNeck_64",
  "ReconMatrixPE": 88,
  "RefLinesPE": 8,
  "RepetitionTime": 1.2,
  "SAR": 0.0462029,
  "ScanOptions": "FS",
  "ScanningSequence": "EP",
  "SequenceName": "_epfid2d1_88",
  "SequenceVariant": "SK",
  "SeriesDescription": "func-bold_task-RDMcolor_run-03",
  "SeriesNumber": 12,
  "ShimSetting": [1756, -9107, 4339, 527, -159, -232, 72, 26],
  "SliceThickness": 2.4,
  "SliceTiming": [0.55, 0, 0.6275, 0.0775, 0.7075, 0.1575, 0.785, 0.235, 0.865, 0.315, 0.9425, 0.3925, 1.0225, 0.47, 1.1, 0.55, 0, 0.6275, 0.0775, 0.7075, 0.1575, 0.785, 0.235, 0.865, 0.315, 0.9425, 0.3925, 1.0225, 0.47, 1.1, 0.55, 0, 0.6275, 0.0775, 0.7075, 0.1575, 0.785, 0.235, 0.865, 0.315, 0.9425, 0.3925, 1.0225, 0.47, 1.1, 0.55, 0, 0.6275, 0.0775, 0.7075, 0.1575, 0.785, 0.235, 0.865, 0.315, 0.9425, 0.3925, 1.0225, 0.47, 1.1],
  "SoftwareVersions": "syngo_MR_E11",
  "SpacingBetweenSlices": 2.4,
  "StationName": "AWP67050",
  "TaskName": "RDMcolor",
  "TotalReadoutTime": 0.0504612,
  "TxRefAmp": 219.483,
  "dcmmeta_affine": [
    [-2.3841917514801025, 0.1182750016450882, 0.22546109557151794, 98.29522705078125],
    [0.11991982161998749, 2.3946969509124756, 0.011905092746019363, -102.90770721435547],
    [0.22437623143196106, -0.023092199116945267, 2.3893566131591797, -83.09690856933594],
    [0.0, 0.0, 0.0, 1.0]
],
  "dcmmeta_reorient_transform": [
    [0.0, -1.0, 0.0, 87.0],
    [1.0, 0.0, 0.0, 0.0],
    [0.0, 0.0, 1.0, 0.0],
    [0.0, 0.0, 0.0, 1.0]
],
  "dcmmeta_shape": [88, 88, 60, 392],
  "dcmmeta_slice_dim": 2,
  "dcmmeta_version": 0.6,
  "global": {
    "const": {
      "AcquisitionMatrix": [88, 0, 0, 88],
      "AngioFlag": "N",
      "BitsAllocated": 16,
      "BitsStored": 12,
      "BodyPartExamined": "BRAIN",
      "Columns": 704,
      "DeidentificationMethodCodeSequence": [
        {
          "CodeMeaning": "XNAT DicomEdit 6 Script",
          "CodeValue": "3",
          "CodingSchemeDesignator": "XNAT",
          "CodingSchemeVersion": "1.0"}
],
      "EchoNumbers": 1,
      "EchoTime": 33.0,
      "EchoTrainLength": 88,
      "FlipAngle": 62.0,
      "HighBit": 11,
      "ImageOrientationPatient": [0.99435488072662, -0.0500139544333, 0.09357871305532, 0.04932796464468, 0.99873620052865, 0.00963087003409],
      "ImagePositionPatient": [-879.34492431047, -806.06230199443, -161.32620301386],
      "ImageType": [
        "ORIGINAL",
        "PRIMARY",
        "M",
        "ND",
        "MOSAIC"
],
      "ImagedNucleus": "1H",
      "ImagingFrequency": 123.250758,
      "InPlanePhaseEncodingDirection": "COL",
      "MRAcquisitionType": "2D",
      "MagneticFieldStrength": 3.0,
      "Manufacturer": "SIEMENS",
      "ManufacturerModelName": "Prisma_fit",
      "Modality": "MR",
      "NumberOfAverages": 1.0,
      "NumberOfPhaseEncodingSteps": 88,
      "PercentPhaseFieldOfView": 100.0,
      "PercentSampling": 100.0,
      "PerformedProcedureStepStartTime": "144128.036000",
      "PhotometricInterpretation": "MONOCHROME2",
      "PixelBandwidth": 2185.0,
      "PixelRepresentation": 0,
      "PixelSpacing": [2.3977272510529, 2.3977272510529],
      "ProtocolName": "func-bold_task-RDMcolor_run-03",
      "RepetitionTime": 1200.0,
      "Rows": 704,
      "SAR": 0.04620286736439,
      "SamplesPerPixel": 1,
      "ScanOptions": "FS",
      "ScanningSequence": "EP",
      "SequenceName": "*epfid2d1_88",
      "SequenceVariant": "SK",
      "SeriesDescription": "func-bold_task-RDMcolor_run-03",
      "SeriesNumber": 12,
      "SeriesTime": "153402.410000",
      "SliceLocation": -74.004802255241,
      "SliceThickness": 2.4000000953674,
      "SmallestImagePixelValue": 0,
      "SoftwareVersions": "syngo MR E11",
      "SpacingBetweenSlices": 2.3999999856663,
      "SpecificCharacterSet": "ISO_IR 100",
      "StudyID": "1",
      "StudyTime": "144127.968000",
      "TransmitCoilName": "Body",
      "VariableFlipAngleFlag": "N",
      "WindowCenterWidthExplanation": "Algo1",
      "dBdt": 0.0},
    "slices": {}
  },
  "time": {
    "samples": {
      "AcquisitionNumber": [1, 2, 3, 4, 5, 6, 7, 8, 9, 10, 11, 12, 13, 14, 15, 16, 17, 18, 19, 20, 21, 22, 23, 24, 25, 26, 27, 28, 29, 30, 31, 32, 33, 34, 35, 36, 37, 38, 39, 40, 41, 42, 43, 44, 45, 46, 47, 48, 49, 50, 51, 52, 53, 54, 55, 56, 57, 58, 59, 60, 61, 62, 63, 64, 65, 66, 67, 68, 69, 70, 71, 72, 73, 74, 75, 76, 77, 78, 79, 80, 81, 82, 83, 84, 85, 86, 87, 88, 89, 90, 91, 92, 93, 94, 95, 96, 97, 98, 99, 100, 101, 102, 103, 104, 105, 106, 107, 108, 109, 110, 111, 112, 113, 114, 115, 116, 117, 118, 119, 120, 121, 122, 123, 124, 125, 126, 127, 128, 129, 130, 131, 132, 133, 134, 135, 136, 137, 138, 139, 140, 141, 142, 143, 144, 145, 146, 147, 148, 149, 150, 151, 152, 153, 154, 155, 156, 157, 158, 159, 160, 161, 162, 163, 164, 165, 166, 167, 168, 169, 170, 171, 172, 173, 174, 175, 176, 177, 178, 179, 180, 181, 182, 183, 184, 185, 186, 187, 188, 189, 190, 191, 192, 193, 194, 195, 196, 197, 198, 199, 200, 201, 202, 203, 204, 205, 206, 207, 208, 209, 210, 211, 212, 213, 214, 215, 216, 217, 218, 219, 220, 221, 222, 223, 224, 225, 226, 227, 228, 229, 230, 231, 232, 233, 234, 235, 236, 237, 238, 239, 240, 241, 242, 243, 244, 245, 246, 247, 248, 249, 250, 251, 252, 253, 254, 255, 256, 257, 258, 259, 260, 261, 262, 263, 264, 265, 266, 267, 268, 269, 270, 271, 272, 273, 274, 275, 276, 277, 278, 279, 280, 281, 282, 283, 284, 285, 286, 287, 288, 289, 290, 291, 292, 293, 294, 295, 296, 297, 298, 299, 300, 301, 302, 303, 304, 305, 306, 307, 308, 309, 310, 311, 312, 313, 314, 315, 316, 317, 318, 319, 320, 321, 322, 323, 324, 325, 326, 327, 328, 329, 330, 331, 332, 333, 334, 335, 336, 337, 338, 339, 340, 341, 342, 343, 344, 345, 346, 347, 348, 349, 350, 351, 352, 353, 354, 355, 356, 357, 358, 359, 360, 361, 362, 363, 364, 365, 366, 367, 368, 369, 370, 371, 372, 373, 374, 375, 376, 377, 378, 379, 380, 381, 382, 383, 384, 385, 386, 387, 388, 389, 390, 391, 392],
      "AcquisitionTime": ["153318.710000", "153319.910000", "153321.110000", "153322.310000", "153323.510000", "153324.710000", "153325.910000", "153327.110000", "153328.310000", "153329.510000", "153330.710000", "153331.910000", "153333.110000", "153334.310000", "153335.510000", "153336.710000", "153337.910000", "153339.110000", "153340.310000", "153341.510000", "153342.710000", "153343.910000", "153345.110000", "153346.310000", "153347.510000", "153348.710000", "153349.910000", "153351.110000", "153352.310000", "153353.510000", "153354.710000", "153355.910000", "153357.110000", "153358.310000", "153359.510000", "153400.710000", "153401.910000", "153403.110000", "153404.310000", "153405.510000", "153406.710000", "153407.910000", "153409.110000", "153410.310000", "153411.510000", "153412.710000", "153413.910000", "153415.110000", "153416.310000", "153417.510000", "153418.710000", "153419.910000", "153421.110000", "153422.310000", "153423.510000", "153424.710000", "153425.910000", "153427.110000", "153428.310000", "153429.510000", "153430.710000", "153431.910000", "153433.110000", "153434.310000", "153435.510000", "153436.710000", "153437.910000", "153439.110000", "153440.310000", "153441.510000", "153442.710000", "153443.910000", "153445.110000", "153446.310000", "153447.510000", "153448.710000", "153449.910000", "153451.110000", "153452.310000", "153453.510000", "153454.710000", "153455.910000", "153457.110000", "153458.310000", "153459.510000", "153500.710000", "153501.910000", "153503.110000", "153504.310000", "153505.510000", "153506.710000", "153507.910000", "153509.110000", "153510.310000", "153511.510000", "153512.710000", "153513.910000", "153515.110000", "153516.310000", "153517.510000", "153518.710000", "153519.910000", "153521.110000", "153522.310000", "153523.510000", "153524.710000", "153525.910000", "153527.110000", "153528.310000", "153529.510000", "153530.710000", "153531.910000", "153533.110000", "153534.310000", "153535.510000", "153536.710000", "153537.910000", "153539.110000", "153540.310000", "153541.510000", "153542.710000", "153543.910000", "153545.110000", "153546.310000", "153547.510000", "153548.710000", "153549.910000", "153551.110000", "153552.310000", "153553.510000", "153554.710000", "153555.910000", "153557.110000", "153558.310000", "153559.510000", "153600.710000", "153601.910000", "153603.110000", "153604.310000", "153605.510000", "153606.710000", "153607.910000", "153609.110000", "153610.310000", "153611.510000", "153612.710000", "153613.910000", "153615.110000", "153616.310000", "153617.510000", "153618.710000", "153619.910000", "153621.110000", "153622.310000", "153623.510000", "153624.710000", "153625.910000", "153627.110000", "153628.310000", "153629.510000", "153630.710000", "153631.910000", "153633.110000", "153634.310000", "153635.510000", "153636.710000", "153637.910000", "153639.110000", "153640.310000", "153641.510000", "153642.710000", "153643.910000", "153645.110000", "153646.310000", "153647.510000", "153648.710000", "153649.910000", "153651.110000", "153652.310000", "153653.510000", "153654.710000", "153655.910000", "153657.110000", "153658.310000", "153659.510000", "153700.710000", "153701.910000", "153703.110000", "153704.310000", "153705.510000", "153706.710000", "153707.910000", "153709.110000", "153710.310000", "153711.510000", "153712.710000", "153713.910000", "153715.110000", "153716.310000", "153717.510000", "153718.710000", "153719.910000", "153721.110000", "153722.310000", "153723.510000", "153724.710000", "153725.910000", "153727.110000", "153728.310000", "153729.510000", "153730.710000", "153731.910000", "153733.110000", "153734.310000", "153735.510000", "153736.710000", "153737.910000", "153739.110000", "153740.310000", "153741.510000", "153742.710000", "153743.910000", "153745.110000", "153746.310000", "153747.510000", "153748.710000", "153749.910000", "153751.110000", "153752.310000", "153753.510000", "153754.710000", "153755.910000", "153757.110000", "153758.310000", "153759.510000", "153800.710000", "153801.910000", "153803.110000", "153804.310000", "153805.510000", "153806.710000", "153807.910000", "153809.110000", "153810.310000", "153811.510000", "153812.710000", "153813.910000", "153815.110000", "153816.310000", "153817.510000", "153818.710000", "153819.910000", "153821.110000", "153822.310000", "153823.510000", "153824.710000", "153825.910000", "153827.110000", "153828.310000", "153829.510000", "153830.710000", "153831.910000", "153833.110000", "153834.310000", "153835.510000", "153836.710000", "153837.910000", "153839.110000", "153840.310000", "153841.510000", "153842.710000", "153843.910000", "153845.110000", "153846.310000", "153847.510000", "153848.710000", "153849.910000", "153851.110000", "153852.310000", "153853.510000", "153854.710000", "153855.910000", "153857.110000", "153858.310000", "153859.510000", "153900.710000", "153901.910000", "153903.110000", "153904.310000", "153905.510000", "153906.710000", "153907.910000", "153909.110000", "153910.310000", "153911.510000", "153912.710000", "153913.910000", "153915.110000", "153916.310000", "153917.510000", "153918.710000", "153919.910000", "153921.110000", "153922.310000", "153923.510000", "153924.710000", "153925.910000", "153927.110000", "153928.310000", "153929.510000", "153930.710000", "153931.910000", "153933.110000", "153934.310000", "153935.510000", "153936.710000", "153937.910000", "153939.110000", "153940.310000", "153941.510000", "153942.710000", "153943.910000", "153945.110000", "153946.310000", "153947.510000", "153948.710000", "153949.910000", "153951.110000", "153952.310000", "153953.510000", "153954.710000", "153955.910000", "153957.110000", "153958.310000", "153959.510000", "154000.710000", "154001.910000", "154003.110000", "154004.310000", "154005.510000", "154006.710000", "154007.910000", "154009.110000", "154010.310000", "154011.510000", "154012.710000", "154013.910000", "154015.110000", "154016.310000", "154017.510000", "154018.710000", "154019.910000", "154021.110000", "154022.310000", "154023.510000", "154024.710000", "154025.910000", "154027.110000", "154028.310000", "154029.510000", "154030.710000", "154031.910000", "154033.110000", "154034.310000", "154035.510000", "154036.710000", "154037.910000", "154039.110000", "154040.310000", "154041.510000", "154042.710000", "154043.910000", "154045.110000", "154046.310000", "154047.510000", "154048.710000", "154049.910000", "154051.110000", "154052.310000", "154053.510000", "154054.710000", "154055.910000", "154057.110000", "154058.310000", "154059.510000", "154100.710000", "154101.910000", "154103.110000", "154104.310000", "154105.510000", "154106.710000", "154107.910000"],
      "ContentTime": ["153402.413000", "153402.416000", "153402.419000", "153402.421000", "153402.424000", "153402.426000", "153402.429000", "153402.431000", "153402.434000", "153402.437000", "153402.439000", "153402.442000", "153402.444000", "153402.447000", "153402.450000", "153402.452000", "153402.455000", "153402.457000", "153402.460000", "153402.462000", "153402.465000", "153402.475000", "153402.478000", "153402.480000", "153402.483000", "153402.485000", "153402.488000", "153402.490000", "153402.493000", "153402.495000", "153402.498000", "153402.500000", "153402.503000", "153402.505000", "153402.508000", "153442.408000", "153442.411000", "153442.414000", "153442.416000", "153442.419000", "153442.421000", "153442.424000", "153442.426000", "153442.429000", "153442.431000", "153442.434000", "153442.436000", "153442.439000", "153442.442000", "153442.444000", "153442.447000", "153442.449000", "153442.452000", "153442.454000", "153442.457000", "153442.459000", "153442.462000", "153442.464000", "153442.474000", "153442.477000", "153442.479000", "153442.482000", "153442.484000", "153442.487000", "153442.490000", "153442.492000", "153442.495000", "153442.497000", "153442.500000", "153522.407000", "153522.410000", "153522.413000", "153522.423000", "153522.426000", "153522.428000", "153522.431000", "153522.433000", "153522.436000", "153522.438000", "153522.441000", "153522.443000", "153522.446000", "153522.449000", "153522.451000", "153522.454000", "153522.457000", "153522.460000", "153522.463000", "153522.465000", "153522.468000", "153522.470000", "153522.473000", "153522.476000", "153522.478000", "153522.481000", "153522.483000", "153522.486000", "153522.488000", "153522.491000", "153522.493000", "153522.496000", "153522.498000", "153602.408000", "153602.411000", "153602.414000", "153602.416000", "153602.419000", "153602.421000", "153602.424000", "153602.426000", "153602.429000", "153602.431000", "153602.434000", "153602.436000", "153602.439000", "153602.442000", "153602.444000", "153602.465000", "153602.468000", "153602.470000", "153602.473000", "153602.475000", "153602.478000", "153602.480000", "153602.483000", "153602.485000", "153602.488000", "153602.490000", "153602.493000", "153602.495000", "153602.498000", "153602.501000", "153602.503000", "153602.506000", "153602.508000", "153642.408000", "153642.411000", "153642.414000", "153642.416000", "153642.419000", "153642.421000", "153642.424000", "153642.427000", "153642.429000", "153642.432000", "153642.434000", "153642.437000", "153642.439000", "153642.442000", "153642.444000", "153642.447000", "153642.449000", "153642.452000", "153642.455000", "153642.457000", "153642.460000", "153642.462000", "153642.465000", "153642.467000", "153642.470000", "153642.472000", "153642.475000", "153642.477000", "153642.480000", "153642.482000", "153642.485000", "153642.487000", "153642.490000", "153642.492000", "153722.408000", "153722.411000", "153722.421000", "153722.424000", "153722.426000", "153722.429000", "153722.431000", "153722.434000", "153722.437000", "153722.439000", "153722.442000", "153722.444000", "153722.447000", "153722.449000", "153722.462000", "153722.464000", "153722.467000", "153722.469000", "153722.472000", "153722.474000", "153722.477000", "153722.480000", "153722.482000", "153722.485000", "153722.487000", "153722.490000", "153722.492000", "153722.495000", "153722.497000", "153722.500000", "153722.502000", "153722.505000", "153722.508000", "153802.409000", "153802.411000", "153802.414000", "153802.425000", "153802.428000", "153802.430000", "153802.433000", "153802.435000", "153802.438000", "153802.441000", "153802.443000", "153802.446000", "153802.448000", "153802.451000", "153802.454000", "153802.457000", "153802.459000", "153802.462000", "153802.465000", "153802.467000", "153802.470000", "153802.473000", "153802.475000", "153802.478000", "153802.480000", "153802.483000", "153802.485000", "153802.488000", "153802.490000", "153802.493000", "153802.496000", "153802.498000", "153802.501000", "153842.408000", "153842.411000", "153842.414000", "153842.416000", "153842.419000", "153842.421000", "153842.424000", "153842.427000", "153842.429000", "153842.432000", "153842.435000", "153842.437000", "153842.440000", "153842.443000", "153842.445000", "153842.448000", "153842.451000", "153842.453000", "153842.456000", "153842.459000", "153842.461000", "153842.464000", "153842.466000", "153842.469000", "153842.471000", "153842.474000", "153842.477000", "153842.479000", "153842.482000", "153842.484000", "153842.487000", "153842.489000", "153842.492000", "153842.494000", "153922.409000", "153922.411000", "153922.414000", "153922.416000", "153922.419000", "153922.422000", "153922.424000", "153922.427000", "153922.429000", "153922.432000", "153922.434000", "153922.437000", "153922.440000", "153922.442000", "153922.445000", "153922.447000", "153922.450000", "153922.452000", "153922.455000", "153922.459000", "153922.461000", "153922.464000", "153922.466000", "153922.469000", "153922.471000", "153922.474000", "153922.477000", "153922.479000", "153922.482000", "153922.484000", "153922.487000", "153922.489000", "153922.492000", "154002.407000", "154002.410000", "154002.413000", "154002.415000", "154002.418000", "154002.421000", "154002.423000", "154002.426000", "154002.428000", "154002.431000", "154002.434000", "154002.436000", "154002.453000", "154002.456000", "154002.459000", "154002.462000", "154002.464000", "154002.467000", "154002.470000", "154002.472000", "154002.475000", "154002.477000", "154002.480000", "154002.482000", "154002.485000", "154002.488000", "154002.491000", "154002.502000", "154002.504000", "154002.507000", "154002.509000", "154002.512000", "154002.514000", "154042.408000", "154042.411000", "154042.414000", "154042.416000", "154042.419000", "154042.421000", "154042.424000", "154042.427000", "154042.429000", "154042.432000", "154042.434000", "154042.437000", "154042.439000", "154042.442000", "154042.444000", "154042.447000", "154042.449000", "154042.452000", "154042.454000", "154042.457000", "154042.460000", "154042.462000", "154042.465000", "154042.467000", "154042.470000", "154042.472000", "154042.475000", "154042.477000", "154042.480000", "154042.482000", "154042.485000", "154042.487000", "154042.490000", "154042.493000", "154109.690000", "154109.693000", "154109.696000", "154109.699000", "154109.701000", "154109.704000", "154109.706000", "154109.709000", "154109.711000", "154109.714000", "154109.716000", "154109.719000", "154109.730000", "154109.733000", "154109.735000", "154109.738000", "154109.740000", "154109.743000", "154109.745000", "154109.748000", "154109.751000", "154109.753000", "154109.756000"],
      "InstanceCreationTime": ["153402.413000", "153402.416000", "153402.419000", "153402.421000", "153402.424000", "153402.426000", "153402.429000", "153402.431000", "153402.434000", "153402.437000", "153402.439000", "153402.442000", "153402.444000", "153402.447000", "153402.450000", "153402.452000", "153402.455000", "153402.457000", "153402.460000", "153402.462000", "153402.465000", "153402.475000", "153402.478000", "153402.480000", "153402.483000", "153402.485000", "153402.488000", "153402.490000", "153402.493000", "153402.495000", "153402.498000", "153402.500000", "153402.503000", "153402.505000", "153402.508000", "153442.408000", "153442.411000", "153442.414000", "153442.416000", "153442.419000", "153442.421000", "153442.424000", "153442.426000", "153442.429000", "153442.431000", "153442.434000", "153442.436000", "153442.439000", "153442.442000", "153442.444000", "153442.447000", "153442.449000", "153442.452000", "153442.454000", "153442.457000", "153442.459000", "153442.462000", "153442.464000", "153442.474000", "153442.477000", "153442.479000", "153442.482000", "153442.484000", "153442.487000", "153442.490000", "153442.492000", "153442.495000", "153442.497000", "153442.500000", "153522.407000", "153522.410000", "153522.413000", "153522.423000", "153522.426000", "153522.428000", "153522.431000", "153522.433000", "153522.436000", "153522.438000", "153522.441000", "153522.443000", "153522.446000", "153522.449000", "153522.451000", "153522.454000", "153522.457000", "153522.460000", "153522.463000", "153522.465000", "153522.468000", "153522.470000", "153522.473000", "153522.476000", "153522.478000", "153522.481000", "153522.483000", "153522.486000", "153522.488000", "153522.491000", "153522.493000", "153522.496000", "153522.498000", "153602.408000", "153602.411000", "153602.414000", "153602.416000", "153602.419000", "153602.421000", "153602.424000", "153602.426000", "153602.429000", "153602.431000", "153602.434000", "153602.436000", "153602.439000", "153602.442000", "153602.444000", "153602.465000", "153602.468000", "153602.470000", "153602.473000", "153602.475000", "153602.478000", "153602.480000", "153602.483000", "153602.485000", "153602.488000", "153602.490000", "153602.493000", "153602.495000", "153602.498000", "153602.501000", "153602.503000", "153602.506000", "153602.508000", "153642.408000", "153642.411000", "153642.414000", "153642.416000", "153642.419000", "153642.421000", "153642.424000", "153642.427000", "153642.429000", "153642.432000", "153642.434000", "153642.437000", "153642.439000", "153642.442000", "153642.444000", "153642.447000", "153642.449000", "153642.452000", "153642.455000", "153642.457000", "153642.460000", "153642.462000", "153642.465000", "153642.467000", "153642.470000", "153642.472000", "153642.475000", "153642.477000", "153642.480000", "153642.482000", "153642.485000", "153642.487000", "153642.490000", "153642.492000", "153722.408000", "153722.411000", "153722.421000", "153722.424000", "153722.426000", "153722.429000", "153722.431000", "153722.434000", "153722.437000", "153722.439000", "153722.442000", "153722.444000", "153722.447000", "153722.449000", "153722.462000", "153722.464000", "153722.467000", "153722.469000", "153722.472000", "153722.474000", "153722.477000", "153722.480000", "153722.482000", "153722.485000", "153722.487000", "153722.490000", "153722.492000", "153722.495000", "153722.497000", "153722.500000", "153722.502000", "153722.505000", "153722.508000", "153802.409000", "153802.411000", "153802.414000", "153802.425000", "153802.428000", "153802.430000", "153802.433000", "153802.435000", "153802.438000", "153802.441000", "153802.443000", "153802.446000", "153802.448000", "153802.451000", "153802.454000", "153802.457000", "153802.459000", "153802.462000", "153802.465000", "153802.467000", "153802.470000", "153802.473000", "153802.475000", "153802.478000", "153802.480000", "153802.483000", "153802.485000", "153802.488000", "153802.490000", "153802.493000", "153802.496000", "153802.498000", "153802.501000", "153842.408000", "153842.411000", "153842.414000", "153842.416000", "153842.419000", "153842.421000", "153842.424000", "153842.427000", "153842.429000", "153842.432000", "153842.435000", "153842.437000", "153842.440000", "153842.443000", "153842.445000", "153842.448000", "153842.451000", "153842.453000", "153842.456000", "153842.459000", "153842.461000", "153842.464000", "153842.466000", "153842.469000", "153842.471000", "153842.474000", "153842.477000", "153842.479000", "153842.482000", "153842.484000", "153842.487000", "153842.489000", "153842.492000", "153842.494000", "153922.409000", "153922.411000", "153922.414000", "153922.416000", "153922.419000", "153922.422000", "153922.424000", "153922.427000", "153922.429000", "153922.432000", "153922.434000", "153922.437000", "153922.440000", "153922.442000", "153922.445000", "153922.447000", "153922.450000", "153922.452000", "153922.455000", "153922.459000", "153922.461000", "153922.464000", "153922.466000", "153922.469000", "153922.471000", "153922.474000", "153922.477000", "153922.479000", "153922.482000", "153922.484000", "153922.487000", "153922.489000", "153922.492000", "154002.407000", "154002.410000", "154002.413000", "154002.415000", "154002.418000", "154002.421000", "154002.423000", "154002.426000", "154002.428000", "154002.431000", "154002.434000", "154002.436000", "154002.453000", "154002.456000", "154002.459000", "154002.462000", "154002.464000", "154002.467000", "154002.470000", "154002.472000", "154002.475000", "154002.477000", "154002.480000", "154002.482000", "154002.485000", "154002.488000", "154002.491000", "154002.502000", "154002.504000", "154002.507000", "154002.509000", "154002.512000", "154002.514000", "154042.408000", "154042.411000", "154042.414000", "154042.416000", "154042.419000", "154042.421000", "154042.424000", "154042.427000", "154042.429000", "154042.432000", "154042.434000", "154042.437000", "154042.439000", "154042.442000", "154042.444000", "154042.447000", "154042.449000", "154042.452000", "154042.454000", "154042.457000", "154042.460000", "154042.462000", "154042.465000", "154042.467000", "154042.470000", "154042.472000", "154042.475000", "154042.477000", "154042.480000", "154042.482000", "154042.485000", "154042.487000", "154042.490000", "154042.493000", "154109.690000", "154109.693000", "154109.696000", "154109.699000", "154109.701000", "154109.704000", "154109.706000", "154109.709000", "154109.711000", "154109.714000", "154109.716000", "154109.719000", "154109.730000", "154109.733000", "154109.735000", "154109.738000", "154109.740000", "154109.743000", "154109.745000", "154109.748000", "154109.751000", "154109.753000", "154109.756000"],
      "InstanceNumber": [1, 2, 3, 4, 5, 6, 7, 8, 9, 10, 11, 12, 13, 14, 15, 16, 17, 18, 19, 20, 21, 22, 23, 24, 25, 26, 27, 28, 29, 30, 31, 32, 33, 34, 35, 36, 37, 38, 39, 40, 41, 42, 43, 44, 45, 46, 47, 48, 49, 50, 51, 52, 53, 54, 55, 56, 57, 58, 59, 60, 61, 62, 63, 64, 65, 66, 67, 68, 69, 70, 71, 72, 73, 74, 75, 76, 77, 78, 79, 80, 81, 82, 83, 84, 85, 86, 87, 88, 89, 90, 91, 92, 93, 94, 95, 96, 97, 98, 99, 100, 101, 102, 103, 104, 105, 106, 107, 108, 109, 110, 111, 112, 113, 114, 115, 116, 117, 118, 119, 120, 121, 122, 123, 124, 125, 126, 127, 128, 129, 130, 131, 132, 133, 134, 135, 136, 137, 138, 139, 140, 141, 142, 143, 144, 145, 146, 147, 148, 149, 150, 151, 152, 153, 154, 155, 156, 157, 158, 159, 160, 161, 162, 163, 164, 165, 166, 167, 168, 169, 170, 171, 172, 173, 174, 175, 176, 177, 178, 179, 180, 181, 182, 183, 184, 185, 186, 187, 188, 189, 190, 191, 192, 193, 194, 195, 196, 197, 198, 199, 200, 201, 202, 203, 204, 205, 206, 207, 208, 209, 210, 211, 212, 213, 214, 215, 216, 217, 218, 219, 220, 221, 222, 223, 224, 225, 226, 227, 228, 229, 230, 231, 232, 233, 234, 235, 236, 237, 238, 239, 240, 241, 242, 243, 244, 245, 246, 247, 248, 249, 250, 251, 252, 253, 254, 255, 256, 257, 258, 259, 260, 261, 262, 263, 264, 265, 266, 267, 268, 269, 270, 271, 272, 273, 274, 275, 276, 277, 278, 279, 280, 281, 282, 283, 284, 285, 286, 287, 288, 289, 290, 291, 292, 293, 294, 295, 296, 297, 298, 299, 300, 301, 302, 303, 304, 305, 306, 307, 308, 309, 310, 311, 312, 313, 314, 315, 316, 317, 318, 319, 320, 321, 322, 323, 324, 325, 326, 327, 328, 329, 330, 331, 332, 333, 334, 335, 336, 337, 338, 339, 340, 341, 342, 343, 344, 345, 346, 347, 348, 349, 350, 351, 352, 353, 354, 355, 356, 357, 358, 359, 360, 361, 362, 363, 364, 365, 366, 367, 368, 369, 370, 371, 372, 373, 374, 375, 376, 377, 378, 379, 380, 381, 382, 383, 384, 385, 386, 387, 388, 389, 390, 391, 392],
