{
  "AcquisitionMatrixPE": 88,
  "AcquisitionNumber": 1,
  "AcquisitionTime": "16:17:59.655000",
  "BandwidthPerPixelPhaseEncode": 19.592,
  "BaseResolution": 88,
  "BodyPartExamined": "BRAIN",
  "ConsistencyInfo": "N4_VE11C_LATEST_20160120",
  "ConversionSoftware": "dcm2niix",
  "ConversionSoftwareVersion": "v1.0.20190902",
  "DerivedVendorReportedEchoSpacing": 0.000580014,
  "DeviceSerialNumber": "67050",
  "DwellTime": 2.6e-06,
  "EchoTime": 0.033,
  "EchoTrainLength": 88,
  "EffectiveEchoSpacing": 0.000580014,
  "FlipAngle": 62,
  "ImageOrientationPatientDICOM": [0.994355, -0.050014, 0.0935787, 0.049328, 0.998736, 0.00963087],
  "ImageType": [
    "ORIGINAL",
    "PRIMARY",
    "M",
    "ND",
    "MOSAIC"
],
  "ImagingFrequency": 123.251,
  "InPlanePhaseEncodingDirectionDICOM": "COL",
  "InstitutionAddress": "Olive_Street_60_Providence_RI_US_02912",
  "InstitutionName": "BROWN_UNIVERSITY_MRF",
  "InstitutionalDepartmentName": "Department",
  "MRAcquisitionType": "2D",
  "MagneticFieldStrength": 3,
  "Manufacturer": "Siemens",
  "ManufacturersModelName": "Prisma_fit",
  "Modality": "MR",
  "MultibandAccelerationFactor": 4,
  "PartialFourier": 1,
  "PatientPosition": "HFS",
  "PercentPhaseFOV": 100,
  "PhaseEncodingDirection": "j-",
  "PhaseEncodingSteps": 88,
  "PhaseResolution": 1,
  "PixelBandwidth": 2185,
  "ProcedureStepDescription": "ASHENHAV_1222",
  "ProtocolName": "func-bold_task-RDMlocalizer_run-01",
  "PulseSequenceDetails": "%SiemensSeq%_ep2d_bold",
  "ReceiveCoilActiveElements": "HC1-7;NC1",
  "ReceiveCoilName": "HeadNeck_64",
  "ReconMatrixPE": 88,
  "RefLinesPE": 8,
  "RepetitionTime": 1.2,
  "SAR": 0.0459769,
  "ScanOptions": "FS",
  "ScanningSequence": "EP",
  "SequenceName": "_epfid2d1_88",
  "SequenceVariant": "SK",
  "SeriesDescription": "func-bold_task-RDMlocalizer_run-01",
  "SeriesNumber": 19,
  "ShimSetting": [1756, -9107, 4339, 527, -159, -232, 72, 26],
  "SliceThickness": 2.4,
  "SliceTiming": [0.55, 0, 0.63, 0.0775, 0.7075, 0.1575, 0.785, 0.235, 0.865, 0.315, 0.9425, 0.3925, 1.0225, 0.4725, 1.1, 0.55, 0, 0.63, 0.0775, 0.7075, 0.1575, 0.785, 0.235, 0.865, 0.315, 0.9425, 0.3925, 1.0225, 0.4725, 1.1, 0.55, 0, 0.63, 0.0775, 0.7075, 0.1575, 0.785, 0.235, 0.865, 0.315, 0.9425, 0.3925, 1.0225, 0.4725, 1.1, 0.55, 0, 0.63, 0.0775, 0.7075, 0.1575, 0.785, 0.235, 0.865, 0.315, 0.9425, 0.3925, 1.0225, 0.4725, 1.1],
  "SoftwareVersions": "syngo_MR_E11",
  "SpacingBetweenSlices": 2.4,
  "StationName": "AWP67050",
  "TaskName": "RDMlocalizer",
  "TotalReadoutTime": 0.0504612,
  "TxRefAmp": 219.483,
  "dcmmeta_affine": [
    [-2.3841917514801025, 0.1182750016450882, 0.22546109557151794, 98.29522705078125],
    [0.11991982161998749, 2.3946969509124756, 0.011905092746019363, -102.90770721435547],
    [0.22437623143196106, -0.023092199116945267, 2.3893566131591797, -83.09690856933594],
    [0.0, 0.0, 0.0, 1.0]
],
  "dcmmeta_reorient_transform": [
    [0.0, -1.0, 0.0, 87.0],
    [1.0, 0.0, 0.0, 0.0],
    [0.0, 0.0, 1.0, 0.0],
    [0.0, 0.0, 0.0, 1.0]
],
  "dcmmeta_shape": [88, 88, 60, 195],
  "dcmmeta_slice_dim": 2,
  "dcmmeta_version": 0.6,
  "global": {
    "const": {
      "AcquisitionMatrix": [88, 0, 0, 88],
      "AngioFlag": "N",
      "BitsAllocated": 16,
      "BitsStored": 12,
      "BodyPartExamined": "BRAIN",
      "Columns": 704,
      "DeidentificationMethodCodeSequence": [
        {
          "CodeMeaning": "XNAT DicomEdit 6 Script",
          "CodeValue": "3",
          "CodingSchemeDesignator": "XNAT",
          "CodingSchemeVersion": "1.0"}
],
      "EchoNumbers": 1,
      "EchoTime": 33.0,
      "EchoTrainLength": 88,
      "FlipAngle": 62.0,
      "HighBit": 11,
      "ImageOrientationPatient": [0.99435488072662, -0.0500139544333, 0.09357871305532, 0.04932796464468, 0.99873620052865, 0.00963087003409],
      "ImagePositionPatient": [-879.34492431047, -806.06230199443, -161.32620301386],
      "ImageType": [
        "ORIGINAL",
        "PRIMARY",
        "M",
        "ND",
        "MOSAIC"
],
      "ImagedNucleus": "1H",
      "ImagingFrequency": 123.250769,
      "InPlanePhaseEncodingDirection": "COL",
      "MRAcquisitionType": "2D",
      "MagneticFieldStrength": 3.0,
      "Manufacturer": "SIEMENS",
      "ManufacturerModelName": "Prisma_fit",
      "Modality": "MR",
      "NumberOfAverages": 1.0,
      "NumberOfPhaseEncodingSteps": 88,
      "PercentPhaseFieldOfView": 100.0,
      "PercentSampling": 100.0,
      "PerformedProcedureStepStartTime": "144128.036000",
      "PhotometricInterpretation": "MONOCHROME2",
      "PixelBandwidth": 2185.0,
      "PixelRepresentation": 0,
      "PixelSpacing": [2.3977272510529, 2.3977272510529],
      "ProtocolName": "func-bold_task-RDMlocalizer_run-01",
      "RepetitionTime": 1200.0,
      "Rows": 704,
      "SAR": 0.04597688723067,
      "SamplesPerPixel": 1,
      "ScanOptions": "FS",
      "ScanningSequence": "EP",
      "SequenceName": "*epfid2d1_88",
      "SequenceVariant": "SK",
      "SeriesDescription": "func-bold_task-RDMlocalizer_run-01",
      "SeriesNumber": 19,
      "SeriesTime": "161835.494000",
      "SliceLocation": -74.004802255241,
      "SliceThickness": 2.4000000953674,
      "SmallestImagePixelValue": 0,
      "SoftwareVersions": "syngo MR E11",
      "SpacingBetweenSlices": 2.3999999856663,
      "SpecificCharacterSet": "ISO_IR 100",
      "StudyID": "1",
      "StudyTime": "144127.968000",
      "TransmitCoilName": "Body",
      "VariableFlipAngleFlag": "N",
      "WindowCenterWidthExplanation": "Algo1",
      "dBdt": 0.0},
    "slices": {}
  },
  "time": {
    "samples": {
      "AcquisitionNumber": [1, 2, 3, 4, 5, 6, 7, 8, 9, 10, 11, 12, 13, 14, 15, 16, 17, 18, 19, 20, 21, 22, 23, 24, 25, 26, 27, 28, 29, 30, 31, 32, 33, 34, 35, 36, 37, 38, 39, 40, 41, 42, 43, 44, 45, 46, 47, 48, 49, 50, 51, 52, 53, 54, 55, 56, 57, 58, 59, 60, 61, 62, 63, 64, 65, 66, 67, 68, 69, 70, 71, 72, 73, 74, 75, 76, 77, 78, 79, 80, 81, 82, 83, 84, 85, 86, 87, 88, 89, 90, 91, 92, 93, 94, 95, 96, 97, 98, 99, 100, 101, 102, 103, 104, 105, 106, 107, 108, 109, 110, 111, 112, 113, 114, 115, 116, 117, 118, 119, 120, 121, 122, 123, 124, 125, 126, 127, 128, 129, 130, 131, 132, 133, 134, 135, 136, 137, 138, 139, 140, 141, 142, 143, 144, 145, 146, 147, 148, 149, 150, 151, 152, 153, 154, 155, 156, 157, 158, 159, 160, 161, 162, 163, 164, 165, 166, 167, 168, 169, 170, 171, 172, 173, 174, 175, 176, 177, 178, 179, 180, 181, 182, 183, 184, 185, 186, 187, 188, 189, 190, 191, 192, 193, 194, 195],
      "AcquisitionTime": ["161759.655000", "161800.855000", "161802.055000", "161803.255000", "161804.455000", "161805.655000", "161806.855000", "161808.055000", "161809.255000", "161810.455000", "161811.655000", "161812.855000", "161814.055000", "161815.255000", "161816.455000", "161817.655000", "161818.855000", "161820.055000", "161821.255000", "161822.455000", "161823.655000", "161824.855000", "161826.055000", "161827.255000", "161828.455000", "161829.655000", "161830.855000", "161832.055000", "161833.255000", "161834.455000", "161835.655000", "161836.855000", "161838.055000", "161839.255000", "161840.455000", "161841.655000", "161842.855000", "161844.055000", "161845.255000", "161846.455000", "161847.655000", "161848.855000", "161850.055000", "161851.255000", "161852.455000", "161853.655000", "161854.855000", "161856.055000", "161857.255000", "161858.455000", "161859.655000", "161900.855000", "161902.055000", "161903.255000", "161904.455000", "161905.655000", "161906.855000", "161908.055000", "161909.255000", "161910.455000", "161911.655000", "161912.855000", "161914.055000", "161915.255000", "161916.455000", "161917.655000", "161918.855000", "161920.055000", "161921.255000", "161922.455000", "161923.655000", "161924.855000", "161926.055000", "161927.255000", "161928.455000", "161929.655000", "161930.855000", "161932.055000", "161933.255000", "161934.455000", "161935.655000", "161936.855000", "161938.055000", "161939.255000", "161940.455000", "161941.655000", "161942.855000", "161944.055000", "161945.255000", "161946.455000", "161947.655000", "161948.855000", "161950.055000", "161951.255000", "161952.455000", "161953.655000", "161954.855000", "161956.055000", "161957.255000", "161958.455000", "161959.655000", "162000.855000", "162002.055000", "162003.255000", "162004.455000", "162005.655000", "162006.855000", "162008.055000", "162009.255000", "162010.455000", "162011.655000", "162012.855000", "162014.055000", "162015.255000", "162016.455000", "162017.655000", "162018.855000", "162020.055000", "162021.255000", "162022.455000", "162023.655000", "162024.855000", "162026.055000", "162027.255000", "162028.455000", "162029.655000", "162030.855000", "162032.055000", "162033.255000", "162034.455000", "162035.655000", "162036.855000", "162038.055000", "162039.255000", "162040.455000", "162041.655000", "162042.855000", "162044.055000", "162045.255000", "162046.455000", "162047.655000", "162048.855000", "162050.055000", "162051.255000", "162052.455000", "162053.655000", "162054.855000", "162056.055000", "162057.255000", "162058.455000", "162059.655000", "162100.855000", "162102.055000", "162103.255000", "162104.455000", "162105.655000", "162106.855000", "162108.055000", "162109.255000", "162110.455000", "162111.655000", "162112.855000", "162114.055000", "162115.255000", "162116.455000", "162117.655000", "162118.855000", "162120.055000", "162121.255000", "162122.455000", "162123.655000", "162124.855000", "162126.055000", "162127.255000", "162128.455000", "162129.655000", "162130.855000", "162132.055000", "162133.255000", "162134.455000", "162135.655000", "162136.855000", "162138.055000", "162139.255000", "162140.455000", "162141.655000", "162142.855000", "162144.055000", "162145.255000", "162146.455000", "162147.655000", "162148.855000", "162150.055000", "162151.255000", "162152.455000"],
      "ContentTime": ["161835.498000", "161835.501000", "161835.504000", "161835.506000", "161835.515000", "161835.517000", "161835.520000", "161835.522000", "161835.525000", "161835.527000", "161835.530000", "161835.532000", "161835.535000", "161835.537000", "161835.540000", "161835.543000", "161835.545000", "161835.548000", "161835.550000", "161835.553000", "161835.555000", "161835.558000", "161835.567000", "161835.570000", "161835.573000", "161835.576000", "161835.578000", "161835.581000", "161835.584000", "161915.493000", "161915.496000", "161915.499000", "161915.501000", "161915.504000", "161915.506000", "161915.509000", "161915.511000", "161915.514000", "161915.516000", "161915.519000", "161915.522000", "161915.524000", "161915.527000", "161915.529000", "161915.532000", "161915.535000", "161915.537000", "161915.551000", "161915.553000", "161915.556000", "161915.558000", "161915.561000", "161915.579000", "161915.582000", "161915.584000", "161915.587000", "161915.589000", "161915.592000", "161915.595000", "161915.597000", "161915.600000", "161915.602000", "161955.492000", "161955.495000", "161955.498000", "161955.500000", "161955.503000", "161955.505000", "161955.508000", "161955.510000", "161955.513000", "161955.515000", "161955.518000", "161955.520000", "161955.523000", "161955.525000", "161955.528000", "161955.530000", "161955.533000", "161955.535000", "161955.538000", "161955.540000", "161955.548000", "161955.550000", "161955.553000", "161955.555000", "161955.558000", "161955.560000", "161955.563000", "161955.565000", "161955.568000", "161955.570000", "161955.573000", "161955.575000", "161955.578000", "161955.580000", "162035.494000", "162035.497000", "162035.499000", "162035.502000", "162035.504000", "162035.507000", "162035.510000", "162035.512000", "162035.515000", "162035.517000", "162035.520000", "162035.522000", "162035.525000", "162035.528000", "162035.530000", "162035.533000", "162035.535000", "162035.538000", "162035.540000", "162035.543000", "162035.545000", "162035.548000", "162035.550000", "162035.553000", "162035.555000", "162035.558000", "162035.560000", "162035.563000", "162035.565000", "162035.568000", "162035.571000", "162035.574000", "162035.577000", "162115.493000", "162115.496000", "162115.499000", "162115.501000", "162115.504000", "162115.506000", "162115.509000", "162115.511000", "162115.514000", "162115.517000", "162115.519000", "162115.522000", "162115.524000", "162115.527000", "162115.529000", "162115.532000", "162115.534000", "162115.537000", "162115.539000", "162115.542000", "162115.545000", "162115.547000", "162115.550000", "162115.552000", "162115.555000", "162115.557000", "162115.560000", "162115.563000", "162115.565000", "162115.568000", "162115.570000", "162115.573000", "162115.576000", "162135.494000", "162135.496000", "162135.499000", "162135.502000", "162135.505000", "162135.507000", "162135.510000", "162135.512000", "162135.515000", "162135.517000", "162135.520000", "162135.523000", "162135.525000", "162135.528000", "162135.530000", "162135.533000", "162135.535000", "162154.151000", "162154.154000", "162154.158000", "162154.160000", "162154.163000", "162154.166000", "162154.169000", "162154.172000", "162154.174000", "162154.177000", "162154.179000", "162154.182000", "162154.185000", "162154.187000", "162154.190000", "162154.193000"],
      "InstanceCreationTime": ["161835.498000", "161835.501000", "161835.504000", "161835.506000", "161835.515000", "161835.517000", "161835.520000", "161835.522000", "161835.525000", "161835.527000", "161835.530000", "161835.532000", "161835.535000", "161835.537000", "161835.540000", "161835.543000", "161835.545000", "161835.548000", "161835.550000", "161835.553000", "161835.555000", "161835.558000", "161835.567000", "161835.570000", "161835.573000", "161835.576000", "161835.578000", "161835.581000", "161835.584000", "161915.493000", "161915.496000", "161915.499000", "161915.501000", "161915.504000", "161915.506000", "161915.509000", "161915.511000", "161915.514000", "161915.516000", "161915.519000", "161915.522000", "161915.524000", "161915.527000", "161915.529000", "161915.532000", "161915.535000", "161915.537000", "161915.551000", "161915.553000", "161915.556000", "161915.558000", "161915.561000", "161915.579000", "161915.582000", "161915.584000", "161915.587000", "161915.589000", "161915.592000", "161915.595000", "161915.597000", "161915.600000", "161915.602000", "161955.492000", "161955.495000", "161955.498000", "161955.500000", "161955.503000", "161955.505000", "161955.508000", "161955.510000", "161955.513000", "161955.515000", "161955.518000", "161955.520000", "161955.523000", "161955.525000", "161955.528000", "161955.530000", "161955.533000", "161955.535000", "161955.538000", "161955.540000", "161955.548000", "161955.550000", "161955.553000", "161955.555000", "161955.558000", "161955.560000", "161955.563000", "161955.565000", "161955.568000", "161955.570000", "161955.573000", "161955.575000", "161955.578000", "161955.580000", "162035.494000", "162035.497000", "162035.499000", "162035.502000", "162035.504000", "162035.507000", "162035.510000", "162035.512000", "162035.515000", "162035.517000", "162035.520000", "162035.522000", "162035.525000", "162035.528000", "162035.530000", "162035.533000", "162035.535000", "162035.538000", "162035.540000", "162035.543000", "162035.545000", "162035.548000", "162035.550000", "162035.553000", "162035.555000", "162035.558000", "162035.560000", "162035.563000", "162035.565000", "162035.568000", "162035.571000", "162035.574000", "162035.577000", "162115.493000", "162115.496000", "162115.499000", "162115.501000", "162115.504000", "162115.506000", "162115.509000", "162115.511000", "162115.514000", "162115.517000", "162115.519000", "162115.522000", "162115.524000", "162115.527000", "162115.529000", "162115.532000", "162115.534000", "162115.537000", "162115.539000", "162115.542000", "162115.545000", "162115.547000", "162115.550000", "162115.552000", "162115.555000", "162115.557000", "162115.560000", "162115.563000", "162115.565000", "162115.568000", "162115.570000", "162115.573000", "162115.576000", "162135.494000", "162135.496000", "162135.499000", "162135.502000", "162135.505000", "162135.507000", "162135.510000", "162135.512000", "162135.515000", "162135.517000", "162135.520000", "162135.523000", "162135.525000", "162135.528000", "162135.530000", "162135.533000", "162135.535000", "162154.151000", "162154.154000", "162154.158000", "162154.160000", "162154.163000", "162154.166000", "162154.169000", "162154.172000", "162154.174000", "162154.177000", "162154.179000", "162154.182000", "162154.185000", "162154.187000", "162154.190000", "162154.193000"],
      "InstanceNumber": [1, 2, 3, 4, 5, 6, 7, 8, 9, 10, 11, 12, 13, 14, 15, 16, 17, 18, 19, 20, 21, 22, 23, 24, 25, 26, 27, 28, 29, 30, 31, 32, 33, 34, 35, 36, 37, 38, 39, 40, 41, 42, 43, 44, 45, 46, 47, 48, 49, 50, 51, 52, 53, 54, 55, 56, 57, 58, 59, 60, 61, 62, 63, 64, 65, 66, 67, 68, 69, 70, 71, 72, 73, 74, 75, 76, 77, 78, 79, 80, 81, 82, 83, 84, 85, 86, 87, 88, 89, 90, 91, 92, 93, 94, 95, 96, 97, 98, 99, 100, 101, 102, 103, 104, 105, 106, 107, 108, 109, 110, 111, 112, 113, 114, 115, 116, 117, 118, 119, 120, 121, 122, 123, 124, 125, 126, 127, 128, 129, 130, 131, 132, 133, 134, 135, 136, 137, 138, 139, 140, 141, 142, 143, 144, 145, 146, 147, 148, 149, 150, 151, 152, 153, 154, 155, 156, 157, 158, 159, 160, 161, 162, 163, 164, 165, 166, 167, 168, 169, 170, 171, 172, 173, 174, 175, 176, 177, 178, 179, 180, 181, 182, 183, 184, 185, 186, 187, 188, 189, 190, 191, 192, 193, 194, 195],
      "LargestImagePixelValue": [2069, 2029, 1992, 1981, 1951, 1968, 1961, 1967, 1970, 1969, 1974, 1974, 1985, 1961, 1976, 1970, 1962, 1980, 1985, 1987, 1985, 1996, 1993, 1985, 1974, 1998, 1980, 1963, 1969, 1970, 1966, 1983, 1982, 1964, 1979, 1976, 1973, 1974, 1962, 1958, 1978, 1979, 1966, 1978, 1979, 1976, 1987, 1981, 1984, 1976, 1971, 1975, 1987, 2000, 1983, 2001, 1986, 1985, 1989, 2000, 1990, 2023, 1997, 1997, 1994, 2012, 1998, 1998, 1991, 1991, 1986, 1977, 1982, 1963, 1974, 1962, 1987, 1994, 1975, 1953, 1978, 1967, 1975, 1964, 1962, 1958, 1959, 1974, 1954, 1970, 1957, 1966, 1980, 1968, 1983, 1974, 1985, 1977, 1979, 1965, 1956, 1973, 1974, 1970, 1975, 1987, 1994, 1964, 1976, 1980, 1967, 1974, 1979, 1977, 1996, 1998, 1983, 1980, 1980, 1974, 1965, 1992, 1985, 1980, 1972, 1988, 1970, 1968, 1984, 1960, 1967, 1976, 1968, 1984, 1973, 1965, 1965, 1970, 1977, 1964, 1981, 1981, 1979, 1990, 2001, 1993, 1981, 1986, 1986, 1977, 1990, 1982, 1973, 1979, 1978, 1979, 1991, 1994, 1981, 1988, 1994, 1998, 1988, 1979, 1978, 1964, 1967, 1971, 1953, 1959, 1968, 1966, 1949, 1971, 1978, 1974, 1983, 1980, 1969, 1970, 1977, 1997, 1984, 1982, 1969, 1980, 1993, 1995, 1995, 1966, 1992, 1996, 1986, 1978, 1975],
      "WindowCenter": [593.0, 591.0, 590.0, 589.0, 590.0, 589.0, 590.0, 590.0, 589.0, 590.0, 591.0, 591.0, 591.0, 590.0, 590.0, 590.0, 590.0, 591.0, 591.0, 592.0, 592.0, 593.0, 592.0, 592.0, 591.0, 592.0, 591.0, 591.0, 591.0, 591.0, 591.0, 592.0, 592.0, 592.0, 591.0, 591.0, 591.0, 591.0, 591.0, 591.0, 591.0, 591.0, 591.0, 591.0, 591.0, 592.0, 591.0, 591.0, 591.0, 591.0, 592.0, 592.0, 592.0, 592.0, 592.0, 592.0, 593.0, 592.0, 593.0, 592.0, 593.0, 593.0, 593.0, 593.0, 594.0, 594.0, 593.0, 593.0, 592.0, 592.0, 592.0, 592.0, 592.0, 592.0, 592.0, 592.0, 591.0, 592.0, 590.0, 590.0, 590.0, 590.0, 591.0, 590.0, 590.0, 590.0, 591.0, 591.0, 590.0, 591.0, 590.0, 591.0, 591.0, 591.0, 591.0, 591.0, 591.0, 591.0, 591.0, 590.0, 590.0, 590.0, 590.0, 591.0, 591.0, 591.0, 591.0, 590.0, 591.0, 590.0, 591.0, 592.0, 592.0, 593.0, 592.0, 592.0, 591.0, 591.0, 591.0, 591.0, 591.0, 592.0, 593.0, 593.0, 593.0, 593.0, 591.0, 590.0, 591.0, 590.0, 591.0, 592.0, 592.0, 591.0, 591.0, 591.0, 590.0, 591.0, 591.0, 591.0, 591.0, 591.0, 592.0, 593.0, 593.0, 592.0, 592.0, 591.0, 591.0, 592.0, 592.0, 592.0, 592.0, 592.0, 592.0, 592.0, 592.0, 592.0, 592.0, 592.0, 592.0, 593.0, 593.0, 593.0, 593.0, 592.0, 592.0, 591.0, 591.0, 590.0, 590.0, 590.0, 590.0, 591.0, 591.0, 591.0, 591.0, 591.0, 590.0, 591.0, 592.0, 592.0, 592.0, 592.0, 591.0, 591.0, 591.0, 592.0, 592.0, 591.0, 591.0, 591.0, 590.0, 591.0, 591.0],
      "WindowWidth": [1266.0, 1260.0, 1258.0, 1257.0, 1257.0, 1257.0, 1257.0, 1258.0, 1257.0, 1258.0, 1259.0, 1259.0, 1261.0, 1258.0, 1259.0, 1259.0, 1258.0, 1261.0, 1261.0, 1262.0, 1263.0, 1263.0, 1262.0, 1262.0, 1260.0, 1262.0, 1260.0, 1260.0, 1261.0, 1261.0, 1261.0, 1262.0, 1261.0, 1262.0, 1261.0, 1261.0, 1261.0, 1260.0, 1261.0, 1260.0, 1261.0, 1261.0, 1260.0, 1261.0, 1261.0, 1262.0, 1261.0, 1261.0, 1261.0, 1261.0, 1263.0, 1263.0, 1263.0, 1263.0, 1262.0, 1264.0, 1264.0, 1263.0, 1264.0, 1263.0, 1265.0, 1264.0, 1265.0, 1265.0, 1267.0, 1267.0, 1266.0, 1265.0, 1263.0, 1262.0, 1262.0, 1262.0, 1263.0, 1263.0, 1263.0, 1262.0, 1261.0, 1261.0, 1258.0, 1258.0, 1258.0, 1258.0, 1259.0, 1258.0, 1259.0, 1259.0, 1260.0, 1259.0, 1259.0, 1259.0, 1259.0, 1261.0, 1260.0, 1260.0, 1261.0, 1261.0, 1261.0, 1260.0, 1261.0, 1259.0, 1259.0, 1258.0, 1258.0, 1259.0, 1259.0, 1261.0, 1260.0, 1259.0, 1259.0, 1259.0, 1259.0, 1261.0, 1263.0, 1264.0, 1263.0, 1262.0, 1260.0, 1259.0, 1259.0, 1259.0, 1260.0, 1262.0, 1264.0, 1265.0, 1265.0, 1264.0, 1261.0, 1259.0, 1259.0, 1259.0, 1260.0, 1261.0, 1262.0, 1261.0, 1260.0, 1259.0, 1258.0, 1260.0, 1260.0, 1260.0, 1261.0, 1261.0, 1263.0, 1264.0, 1264.0, 1263.0, 1262.0, 1261.0, 1260.0, 1262.0, 1263.0, 1264.0, 1263.0, 1263.0, 1263.0, 1262.0, 1262.0, 1262.0, 1262.0, 1263.0, 1263.0, 1265.0, 1264.0, 1264.0, 1264.0, 1263.0, 1262.0, 1261.0, 1260.0, 1259.0, 1259.0, 1259.0, 1258.0, 1260.0, 1260.0, 1260.0, 1259.0, 1259.0, 1259.0, 1261.0, 1262.0, 1263.0, 1264.0, 1262.0, 1261.0, 1261.0, 1260.0, 1261.0, 1261.0, 1260.0, 1260.0, 1260.0, 1259.0, 1259.0, 1260.0]
    },
    "slices": {}
  }
}