{
  "AcquisitionMatrixPE": 88,
  "AcquisitionNumber": 1,
  "AcquisitionTime": "16:22:38.055000",
  "BandwidthPerPixelPhaseEncode": 19.592,
  "BaseResolution": 88,
  "BodyPartExamined": "BRAIN",
  "ConsistencyInfo": "N4_VE11C_LATEST_20160120",
  "ConversionSoftware": "dcm2niix",
  "ConversionSoftwareVersion": "v1.0.20190902",
  "DerivedVendorReportedEchoSpacing": 0.000580014,
  "DeviceSerialNumber": "67050",
  "DwellTime": 2.6e-06,
  "EchoTime": 0.033,
  "EchoTrainLength": 88,
  "EffectiveEchoSpacing": 0.000580014,
  "FlipAngle": 62,
  "ImageOrientationPatientDICOM": [0.994355, -0.050014, 0.0935787, 0.049328, 0.998736, 0.00963087],
  "ImageType": [
    "ORIGINAL",
    "PRIMARY",
    "M",
    "ND",
    "MOSAIC"
],
  "ImagingFrequency": 123.251,
  "InPlanePhaseEncodingDirectionDICOM": "COL",
  "InstitutionAddress": "Olive_Street_60_Providence_RI_US_02912",
  "InstitutionName": "BROWN_UNIVERSITY_MRF",
  "InstitutionalDepartmentName": "Department",
  "MRAcquisitionType": "2D",
  "MagneticFieldStrength": 3,
  "Manufacturer": "Siemens",
  "ManufacturersModelName": "Prisma_fit",
  "Modality": "MR",
  "MultibandAccelerationFactor": 4,
  "PartialFourier": 1,
  "PatientPosition": "HFS",
  "PercentPhaseFOV": 100,
  "PhaseEncodingDirection": "j-",
  "PhaseEncodingSteps": 88,
  "PhaseResolution": 1,
  "PixelBandwidth": 2185,
  "ProcedureStepDescription": "ASHENHAV_1222",
  "ProtocolName": "func-bold_task-RDMlocalizer_run-02",
  "PulseSequenceDetails": "%SiemensSeq%_ep2d_bold",
  "ReceiveCoilActiveElements": "HC1-7;NC1",
  "ReceiveCoilName": "HeadNeck_64",
  "ReconMatrixPE": 88,
  "RefLinesPE": 8,
  "RepetitionTime": 1.2,
  "SAR": 0.0459769,
  "ScanOptions": "FS",
  "ScanningSequence": "EP",
  "SequenceName": "_epfid2d1_88",
  "SequenceVariant": "SK",
  "SeriesDescription": "func-bold_task-RDMlocalizer_run-02",
  "SeriesNumber": 20,
  "ShimSetting": [1756, -9107, 4339, 527, -159, -232, 72, 26],
  "SliceThickness": 2.4,
  "SliceTiming": [0.55, 0, 0.63, 0.08, 0.7075, 0.1575, 0.7875, 0.2375, 0.865, 0.315, 0.945, 0.3925, 1.0225, 0.4725, 1.1025, 0.55, 0, 0.63, 0.08, 0.7075, 0.1575, 0.7875, 0.2375, 0.865, 0.315, 0.945, 0.3925, 1.0225, 0.4725, 1.1025, 0.55, 0, 0.63, 0.08, 0.7075, 0.1575, 0.7875, 0.2375, 0.865, 0.315, 0.945, 0.3925, 1.0225, 0.4725, 1.1025, 0.55, 0, 0.63, 0.08, 0.7075, 0.1575, 0.7875, 0.2375, 0.865, 0.315, 0.945, 0.3925, 1.0225, 0.4725, 1.1025],
  "SoftwareVersions": "syngo_MR_E11",
  "SpacingBetweenSlices": 2.4,
  "StationName": "AWP67050",
  "TaskName": "RDMlocalizer",
  "TotalReadoutTime": 0.0504612,
  "TxRefAmp": 219.483,
  "dcmmeta_affine": [
    [-2.3841917514801025, 0.1182750016450882, 0.22546109557151794, 98.29522705078125],
    [0.11991982161998749, 2.3946969509124756, 0.011905092746019363, -102.90770721435547],
    [0.22437623143196106, -0.023092199116945267, 2.3893566131591797, -83.09690856933594],
    [0.0, 0.0, 0.0, 1.0]
],
  "dcmmeta_reorient_transform": [
    [0.0, -1.0, 0.0, 87.0],
    [1.0, 0.0, 0.0, 0.0],
    [0.0, 0.0, 1.0, 0.0],
    [0.0, 0.0, 0.0, 1.0]
],
  "dcmmeta_shape": [88, 88, 60, 195],
  "dcmmeta_slice_dim": 2,
  "dcmmeta_version": 0.6,
  "global": {
    "const": {
      "AcquisitionMatrix": [88, 0, 0, 88],
      "AngioFlag": "N",
      "BitsAllocated": 16,
      "BitsStored": 12,
      "BodyPartExamined": "BRAIN",
      "Columns": 704,
      "DeidentificationMethodCodeSequence": [
        {
          "CodeMeaning": "XNAT DicomEdit 6 Script",
          "CodeValue": "3",
          "CodingSchemeDesignator": "XNAT",
          "CodingSchemeVersion": "1.0"}
],
      "EchoNumbers": 1,
      "EchoTime": 33.0,
      "EchoTrainLength": 88,
      "FlipAngle": 62.0,
      "HighBit": 11,
      "ImageOrientationPatient": [0.99435488072662, -0.0500139544333, 0.09357871305532, 0.04932796464468, 0.99873620052865, 0.00963087003409],
      "ImagePositionPatient": [-879.34492431047, -806.06230199443, -161.32620301386],
      "ImageType": [
        "ORIGINAL",
        "PRIMARY",
        "M",
        "ND",
        "MOSAIC"
],
      "ImagedNucleus": "1H",
      "ImagingFrequency": 123.25077,
      "InPlanePhaseEncodingDirection": "COL",
      "MRAcquisitionType": "2D",
      "MagneticFieldStrength": 3.0,
      "Manufacturer": "SIEMENS",
      "ManufacturerModelName": "Prisma_fit",
      "Modality": "MR",
      "NumberOfAverages": 1.0,
      "NumberOfPhaseEncodingSteps": 88,
      "PercentPhaseFieldOfView": 100.0,
      "PercentSampling": 100.0,
      "PerformedProcedureStepStartTime": "144128.036000",
      "PhotometricInterpretation": "MONOCHROME2",
      "PixelBandwidth": 2185.0,
      "PixelRepresentation": 0,
      "PixelSpacing": [2.3977272510529, 2.3977272510529],
      "ProtocolName": "func-bold_task-RDMlocalizer_run-02",
      "RepetitionTime": 1200.0,
      "Rows": 704,
      "SAR": 0.04597688723067,
      "SamplesPerPixel": 1,
      "ScanOptions": "FS",
      "ScanningSequence": "EP",
      "SequenceName": "*epfid2d1_88",
      "SequenceVariant": "SK",
      "SeriesDescription": "func-bold_task-RDMlocalizer_run-02",
      "SeriesNumber": 20,
      "SeriesTime": "162315.555000",
      "SliceLocation": -74.004802255241,
      "SliceThickness": 2.4000000953674,
      "SmallestImagePixelValue": 0,
      "SoftwareVersions": "syngo MR E11",
      "SpacingBetweenSlices": 2.3999999856663,
      "SpecificCharacterSet": "ISO_IR 100",
      "StudyID": "1",
      "StudyTime": "144127.968000",
      "TransmitCoilName": "Body",
      "VariableFlipAngleFlag": "N",
      "WindowCenterWidthExplanation": "Algo1",
      "dBdt": 0.0},
    "slices": {}
  },
  "time": {
    "samples": {
      "AcquisitionNumber": [1, 2, 3, 4, 5, 6, 7, 8, 9, 10, 11, 12, 13, 14, 15, 16, 17, 18, 19, 20, 21, 22, 23, 24, 25, 26, 27, 28, 29, 30, 31, 32, 33, 34, 35, 36, 37, 38, 39, 40, 41, 42, 43, 44, 45, 46, 47, 48, 49, 50, 51, 52, 53, 54, 55, 56, 57, 58, 59, 60, 61, 62, 63, 64, 65, 66, 67, 68, 69, 70, 71, 72, 73, 74, 75, 76, 77, 78, 79, 80, 81, 82, 83, 84, 85, 86, 87, 88, 89, 90, 91, 92, 93, 94, 95, 96, 97, 98, 99, 100, 101, 102, 103, 104, 105, 106, 107, 108, 109, 110, 111, 112, 113, 114, 115, 116, 117, 118, 119, 120, 121, 122, 123, 124, 125, 126, 127, 128, 129, 130, 131, 132, 133, 134, 135, 136, 137, 138, 139, 140, 141, 142, 143, 144, 145, 146, 147, 148, 149, 150, 151, 152, 153, 154, 155, 156, 157, 158, 159, 160, 161, 162, 163, 164, 165, 166, 167, 168, 169, 170, 171, 172, 173, 174, 175, 176, 177, 178, 179, 180, 181, 182, 183, 184, 185, 186, 187, 188, 189, 190, 191, 192, 193, 194, 195],
      "AcquisitionTime": ["162238.055000", "162239.255000", "162240.455000", "162241.655000", "162242.855000", "162244.055000", "162245.255000", "162246.455000", "162247.655000", "162248.855000", "162250.055000", "162251.255000", "162252.455000", "162253.655000", "162254.855000", "162256.055000", "162257.255000", "162258.455000", "162259.655000", "162300.855000", "162302.055000", "162303.255000", "162304.455000", "162305.655000", "162306.855000", "162308.055000", "162309.255000", "162310.455000", "162311.655000", "162312.855000", "162314.055000", "162315.255000", "162316.455000", "162317.655000", "162318.855000", "162320.055000", "162321.255000", "162322.455000", "162323.655000", "162324.855000", "162326.055000", "162327.255000", "162328.455000", "162329.655000", "162330.855000", "162332.055000", "162333.255000", "162334.455000", "162335.655000", "162336.855000", "162338.055000", "162339.255000", "162340.455000", "162341.655000", "162342.855000", "162344.055000", "162345.255000", "162346.455000", "162347.655000", "162348.855000", "162350.055000", "162351.255000", "162352.455000", "162353.655000", "162354.855000", "162356.055000", "162357.255000", "162358.455000", "162359.655000", "162400.855000", "162402.055000", "162403.255000", "162404.455000", "162405.655000", "162406.855000", "162408.055000", "162409.255000", "162410.455000", "162411.655000", "162412.855000", "162414.055000", "162415.255000", "162416.455000", "162417.655000", "162418.855000", "162420.055000", "162421.255000", "162422.455000", "162423.655000", "162424.855000", "162426.055000", "162427.255000", "162428.455000", "162429.655000", "162430.855000", "162432.055000", "162433.255000", "162434.455000", "162435.655000", "162436.855000", "162438.055000", "162439.255000", "162440.455000", "162441.655000", "162442.855000", "162444.055000", "162445.255000", "162446.455000", "162447.655000", "162448.855000", "162450.055000", "162451.255000", "162452.455000", "162453.655000", "162454.855000", "162456.055000", "162457.255000", "162458.455000", "162459.655000", "162500.855000", "162502.055000", "162503.255000", "162504.455000", "162505.655000", "162506.855000", "162508.055000", "162509.255000", "162510.455000", "162511.655000", "162512.855000", "162514.055000", "162515.255000", "162516.455000", "162517.655000", "162518.855000", "162520.055000", "162521.255000", "162522.455000", "162523.655000", "162524.855000", "162526.055000", "162527.255000", "162528.455000", "162529.655000", "162530.855000", "162532.055000", "162533.255000", "162534.455000", "162535.655000", "162536.855000", "162538.055000", "162539.255000", "162540.455000", "162541.655000", "162542.855000", "162544.055000", "162545.255000", "162546.455000", "162547.655000", "162548.855000", "162550.055000", "162551.255000", "162552.455000", "162553.655000", "162554.855000", "162556.055000", "162557.255000", "162558.455000", "162559.655000", "162600.855000", "162602.055000", "162603.255000", "162604.455000", "162605.655000", "162606.855000", "162608.055000", "162609.255000", "162610.455000", "162611.655000", "162612.855000", "162614.055000", "162615.255000", "162616.455000", "162617.655000", "162618.855000", "162620.055000", "162621.255000", "162622.455000", "162623.655000", "162624.855000", "162626.055000", "162627.255000", "162628.455000", "162629.655000", "162630.855000"],
      "ContentTime": ["162315.559000", "162315.562000", "162315.565000", "162315.567000", "162315.570000", "162315.573000", "162315.575000", "162315.578000", "162315.580000", "162315.592000", "162315.595000", "162315.597000", "162315.600000", "162315.603000", "162315.606000", "162315.608000", "162315.611000", "162315.613000", "162315.616000", "162315.619000", "162315.621000", "162315.624000", "162315.626000", "162315.629000", "162315.631000", "162315.634000", "162315.641000", "162315.644000", "162315.646000", "162315.649000", "162355.554000", "162355.557000", "162355.560000", "162355.563000", "162355.565000", "162355.568000", "162355.570000", "162355.573000", "162355.575000", "162355.595000", "162355.598000", "162355.601000", "162355.603000", "162355.606000", "162355.608000", "162355.611000", "162355.620000", "162355.622000", "162355.625000", "162355.627000", "162355.630000", "162355.633000", "162355.635000", "162355.638000", "162355.641000", "162355.643000", "162355.646000", "162355.648000", "162355.651000", "162355.654000", "162355.656000", "162355.659000", "162355.661000", "162355.664000", "162435.554000", "162435.557000", "162435.560000", "162435.563000", "162435.565000", "162435.568000", "162435.570000", "162435.573000", "162435.576000", "162435.578000", "162435.581000", "162435.583000", "162435.586000", "162435.589000", "162435.591000", "162435.594000", "162435.596000", "162435.599000", "162435.602000", "162435.604000", "162435.607000", "162435.610000", "162435.626000", "162435.628000", "162435.631000", "162435.634000", "162435.636000", "162435.639000", "162435.641000", "162435.644000", "162435.647000", "162435.649000", "162435.652000", "162515.555000", "162515.558000", "162515.561000", "162515.564000", "162515.566000", "162515.569000", "162515.572000", "162515.574000", "162515.577000", "162515.580000", "162515.582000", "162515.585000", "162515.588000", "162515.590000", "162515.593000", "162515.596000", "162515.598000", "162515.601000", "162515.603000", "162515.606000", "162515.609000", "162515.611000", "162515.614000", "162515.617000", "162515.619000", "162515.622000", "162515.624000", "162515.627000", "162515.630000", "162515.632000", "162515.635000", "162515.638000", "162515.640000", "162555.554000", "162555.557000", "162555.560000", "162555.562000", "162555.565000", "162555.567000", "162555.570000", "162555.572000", "162555.575000", "162555.577000", "162555.580000", "162555.583000", "162555.585000", "162555.588000", "162555.590000", "162555.593000", "162555.595000", "162555.598000", "162555.600000", "162555.603000", "162555.612000", "162555.614000", "162555.617000", "162555.619000", "162555.622000", "162555.625000", "162555.627000", "162555.630000", "162555.632000", "162555.635000", "162555.637000", "162555.640000", "162555.642000", "162555.645000", "162632.568000", "162632.571000", "162632.574000", "162632.577000", "162632.580000", "162632.583000", "162632.585000", "162632.588000", "162632.591000", "162632.593000", "162632.596000", "162632.598000", "162632.601000", "162632.604000", "162632.614000", "162632.617000", "162632.619000", "162632.622000", "162632.625000", "162632.628000", "162632.630000", "162632.637000", "162632.640000", "162632.643000", "162632.646000", "162632.649000", "162632.652000", "162632.656000", "162632.659000", "162632.662000", "162632.665000"],
      "InstanceCreationTime": ["162315.559000", "162315.562000", "162315.565000", "162315.567000", "162315.570000", "162315.573000", "162315.575000", "162315.578000", "162315.580000", "162315.592000", "162315.595000", "162315.597000", "162315.600000", "162315.603000", "162315.606000", "162315.608000", "162315.611000", "162315.613000", "162315.616000", "162315.619000", "162315.621000", "162315.624000", "162315.626000", "162315.629000", "162315.631000", "162315.634000", "162315.641000", "162315.644000", "162315.646000", "162315.649000", "162355.554000", "162355.557000", "162355.560000", "162355.563000", "162355.565000", "162355.568000", "162355.570000", "162355.573000", "162355.575000", "162355.595000", "162355.598000", "162355.601000", "162355.603000", "162355.606000", "162355.608000", "162355.611000", "162355.620000", "162355.622000", "162355.625000", "162355.627000", "162355.630000", "162355.633000", "162355.635000", "162355.638000", "162355.641000", "162355.643000", "162355.646000", "162355.648000", "162355.651000", "162355.654000", "162355.656000", "162355.659000", "162355.661000", "162355.664000", "162435.554000", "162435.557000", "162435.560000", "162435.563000", "162435.565000", "162435.568000", "162435.570000", "162435.573000", "162435.576000", "162435.578000", "162435.581000", "162435.583000", "162435.586000", "162435.589000", "162435.591000", "162435.594000", "162435.596000", "162435.599000", "162435.602000", "162435.604000", "162435.607000", "162435.610000", "162435.626000", "162435.628000", "162435.631000", "162435.634000", "162435.636000", "162435.639000", "162435.641000", "162435.644000", "162435.647000", "162435.649000", "162435.652000", "162515.555000", "162515.558000", "162515.561000", "162515.564000", "162515.566000", "162515.569000", "162515.572000", "162515.574000", "162515.577000", "162515.580000", "162515.582000", "162515.585000", "162515.588000", "162515.590000", "162515.593000", "162515.596000", "162515.598000", "162515.601000", "162515.603000", "162515.606000", "162515.609000", "162515.611000", "162515.614000", "162515.617000", "162515.619000", "162515.622000", "162515.624000", "162515.627000", "162515.630000", "162515.632000", "162515.635000", "162515.638000", "162515.640000", "162555.554000", "162555.557000", "162555.560000", "162555.562000", "162555.565000", "162555.567000", "162555.570000", "162555.572000", "162555.575000", "162555.577000", "162555.580000", "162555.583000", "162555.585000", "162555.588000", "162555.590000", "162555.593000", "162555.595000", "162555.598000", "162555.600000", "162555.603000", "162555.612000", "162555.614000", "162555.617000", "162555.619000", "162555.622000", "162555.625000", "162555.627000", "162555.630000", "162555.632000", "162555.635000", "162555.637000", "162555.640000", "162555.642000", "162555.645000", "162632.568000", "162632.571000", "162632.574000", "162632.577000", "162632.580000", "162632.583000", "162632.585000", "162632.588000", "162632.591000", "162632.593000", "162632.596000", "162632.598000", "162632.601000", "162632.604000", "162632.614000", "162632.617000", "162632.619000", "162632.622000", "162632.625000", "162632.628000", "162632.630000", "162632.637000", "162632.640000", "162632.643000", "162632.646000", "162632.649000", "162632.652000", "162632.656000", "162632.659000", "162632.662000", "162632.665000"],
      "InstanceNumber": [1, 2, 3, 4, 5, 6, 7, 8, 9, 10, 11, 12, 13, 14, 15, 16, 17, 18, 19, 20, 21, 22, 23, 24, 25, 26, 27, 28, 29, 30, 31, 32, 33, 34, 35, 36, 37, 38, 39, 40, 41, 42, 43, 44, 45, 46, 47, 48, 49, 50, 51, 52, 53, 54, 55, 56, 57, 58, 59, 60, 61, 62, 63, 64, 65, 66, 67, 68, 69, 70, 71, 72, 73, 74, 75, 76, 77, 78, 79, 80, 81, 82, 83, 84, 85, 86, 87, 88, 89, 90, 91, 92, 93, 94, 95, 96, 97, 98, 99, 100, 101, 102, 103, 104, 105, 106, 107, 108, 109, 110, 111, 112, 113, 114, 115, 116, 117, 118, 119, 120, 121, 122, 123, 124, 125, 126, 127, 128, 129, 130, 131, 132, 133, 134, 135, 136, 137, 138, 139, 140, 141, 142, 143, 144, 145, 146, 147, 148, 149, 150, 151, 152, 153, 154, 155, 156, 157, 158, 159, 160, 161, 162, 163, 164, 165, 166, 167, 168, 169, 170, 171, 172, 173, 174, 175, 176, 177, 178, 179, 180, 181, 182, 183, 184, 185, 186, 187, 188, 189, 190, 191, 192, 193, 194, 195],
      "LargestImagePixelValue": [2081, 2028, 2019, 2005, 2005, 1990, 1972, 1978, 1977, 1986, 1975, 1976, 1964, 1964, 1963, 1973, 1972, 1976, 1972, 1973, 1997, 1981, 1982, 1986, 1983, 1988, 1971, 1989, 1984, 1986, 1998, 1982, 1990, 1984, 1981, 1972, 1984, 1986, 1977, 1991, 1966, 2003, 1964, 1982, 1970, 1971, 1990, 1982, 1985, 1980, 1989, 1996, 2003, 1999, 1982, 1965, 1989, 1971, 1989, 1993, 2001, 1991, 1999, 1990, 2005, 1988, 1991, 1991, 1973, 2003, 1993, 1986, 1998, 1981, 1988, 1978, 1997, 1986, 1985, 1989, 1968, 2000, 1992, 2002, 1999, 1992, 1987, 1999, 1982, 1976, 1989, 1976, 1982, 1994, 1985, 1981, 1983, 1976, 1978, 1991, 1978, 1993, 2001, 1996, 2004, 1987, 1999, 1994, 2003, 1998, 1981, 1995, 1987, 1996, 1992, 2005, 1993, 1980, 1982, 1975, 1987, 1984, 2005, 2009, 1996, 1996, 1990, 1978, 1988, 1984, 2002, 1993, 2009, 1991, 2010, 2020, 2023, 2005, 2019, 1998, 1995, 1985, 1990, 1988, 1980, 1979, 1964, 1966, 1980, 1975, 1999, 1995, 1977, 1985, 2003, 1993, 1980, 1992, 1976, 1984, 1996, 1980, 2003, 1991, 1981, 1965, 1966, 1993, 1993, 1996, 1962, 1982, 1985, 1984, 1983, 1980, 1986, 1994, 1991, 1992, 2012, 1993, 1988, 2008, 1983, 1986, 1981, 1971, 1969, 1964, 1970, 1991, 1988, 1994, 1992],
      "WindowCenter": [596.0, 593.0, 592.0, 592.0, 592.0, 593.0, 592.0, 592.0, 591.0, 591.0, 591.0, 591.0, 591.0, 591.0, 592.0, 592.0, 592.0, 592.0, 591.0, 592.0, 592.0, 592.0, 592.0, 591.0, 591.0, 591.0, 592.0, 592.0, 592.0, 593.0, 593.0, 593.0, 593.0, 592.0, 592.0, 592.0, 593.0, 592.0, 593.0, 593.0, 592.0, 592.0, 591.0, 591.0, 591.0, 592.0, 592.0, 593.0, 592.0, 592.0, 592.0, 591.0, 591.0, 591.0, 590.0, 590.0, 591.0, 591.0, 591.0, 591.0, 591.0, 591.0, 591.0, 591.0, 592.0, 592.0, 593.0, 593.0, 592.0, 591.0, 591.0, 591.0, 591.0, 591.0, 591.0, 591.0, 592.0, 592.0, 592.0, 592.0, 592.0, 593.0, 593.0, 593.0, 592.0, 592.0, 591.0, 591.0, 591.0, 591.0, 591.0, 591.0, 592.0, 592.0, 592.0, 591.0, 591.0, 590.0, 590.0, 591.0, 591.0, 592.0, 592.0, 592.0, 591.0, 591.0, 592.0, 592.0, 593.0, 592.0, 592.0, 592.0, 591.0, 591.0, 591.0, 592.0, 591.0, 590.0, 590.0, 591.0, 591.0, 592.0, 593.0, 592.0, 592.0, 592.0, 592.0, 592.0, 591.0, 592.0, 592.0, 592.0, 592.0, 592.0, 592.0, 593.0, 593.0, 592.0, 592.0, 592.0, 591.0, 591.0, 591.0, 592.0, 591.0, 591.0, 590.0, 590.0, 590.0, 590.0, 592.0, 592.0, 592.0, 591.0, 591.0, 590.0, 590.0, 591.0, 590.0, 591.0, 592.0, 592.0, 591.0, 591.0, 591.0, 590.0, 592.0, 592.0, 592.0, 592.0, 591.0, 591.0, 591.0, 591.0, 590.0, 591.0, 591.0, 592.0, 592.0, 592.0, 592.0, 591.0, 592.0, 592.0, 592.0, 592.0, 591.0, 591.0, 590.0, 592.0, 592.0, 593.0, 592.0, 592.0, 591.0],
      "WindowWidth": [1273.0, 1265.0, 1262.0, 1262.0, 1262.0, 1264.0, 1262.0, 1262.0, 1261.0, 1261.0, 1261.0, 1260.0, 1261.0, 1261.0, 1262.0, 1262.0, 1261.0, 1262.0, 1261.0, 1263.0, 1262.0, 1262.0, 1261.0, 1260.0, 1260.0, 1261.0, 1262.0, 1263.0, 1263.0, 1265.0, 1263.0, 1264.0, 1264.0, 1263.0, 1263.0, 1263.0, 1264.0, 1263.0, 1264.0, 1264.0, 1263.0, 1262.0, 1260.0, 1261.0, 1261.0, 1262.0, 1263.0, 1264.0, 1263.0, 1261.0, 1261.0, 1260.0, 1260.0, 1260.0, 1259.0, 1259.0, 1259.0, 1260.0, 1260.0, 1261.0, 1261.0, 1261.0, 1260.0, 1261.0, 1262.0, 1262.0, 1264.0, 1264.0, 1263.0, 1261.0, 1261.0, 1260.0, 1260.0, 1260.0, 1260.0, 1261.0, 1261.0, 1261.0, 1261.0, 1261.0, 1262.0, 1264.0, 1264.0, 1264.0, 1262.0, 1263.0, 1261.0, 1261.0, 1261.0, 1260.0, 1260.0, 1261.0, 1263.0, 1262.0, 1262.0, 1260.0, 1260.0, 1258.0, 1258.0, 1260.0, 1260.0, 1262.0, 1262.0, 1262.0, 1261.0, 1260.0, 1262.0, 1262.0, 1264.0, 1263.0, 1262.0, 1262.0, 1260.0, 1261.0, 1261.0, 1262.0, 1260.0, 1259.0, 1259.0, 1260.0, 1261.0, 1263.0, 1264.0, 1263.0, 1264.0, 1262.0, 1263.0, 1261.0, 1261.0, 1262.0, 1261.0, 1262.0, 1261.0, 1262.0, 1263.0, 1264.0, 1265.0, 1263.0, 1263.0, 1262.0, 1260.0, 1259.0, 1260.0, 1262.0, 1261.0, 1261.0, 1258.0, 1257.0, 1257.0, 1258.0, 1262.0, 1263.0, 1262.0, 1261.0, 1259.0, 1258.0, 1257.0, 1259.0, 1259.0, 1261.0, 1262.0, 1262.0, 1261.0, 1260.0, 1260.0, 1259.0, 1261.0, 1262.0, 1263.0, 1262.0, 1261.0, 1261.0, 1260.0, 1260.0, 1259.0, 1261.0, 1261.0, 1262.0, 1262.0, 1262.0, 1262.0, 1260.0, 1262.0, 1262.0, 1263.0, 1261.0, 1260.0, 1259.0, 1258.0, 1261.0, 1263.0, 1265.0, 1263.0, 1261.0, 1260.0]
    },
    "slices": {}
  }
}