{
  "AcquisitionMatrixPE": 88,
  "AcquisitionNumber": 1,
  "AcquisitionTime": "15:06:27.640000",
  "BandwidthPerPixelPhaseEncode": 19.592,
  "BaseResolution": 88,
  "BodyPartExamined": "BRAIN",
  "ConsistencyInfo": "N4_VE11C_LATEST_20160120",
  "ConversionSoftware": "dcm2niix",
  "ConversionSoftwareVersion": "v1.0.20190902",
  "DerivedVendorReportedEchoSpacing": 0.000580014,
  "DeviceSerialNumber": "67050",
  "DwellTime": 2.6e-06,
  "EchoTime": 0.033,
  "EchoTrainLength": 88,
  "EffectiveEchoSpacing": 0.000580014,
  "FlipAngle": 62,
  "ImageOrientationPatientDICOM": [0.994355, -0.050014, 0.0935787, 0.049328, 0.998736, 0.00963087],
  "ImageType": [
    "ORIGINAL",
    "PRIMARY",
    "M",
    "ND",
    "MOSAIC"
],
  "ImagingFrequency": 123.251,
  "InPlanePhaseEncodingDirectionDICOM": "COL",
  "InstitutionAddress": "Olive_Street_60_Providence_RI_US_02912",
  "InstitutionName": "BROWN_UNIVERSITY_MRF",
  "InstitutionalDepartmentName": "Department",
  "MRAcquisitionType": "2D",
  "MagneticFieldStrength": 3,
  "Manufacturer": "Siemens",
  "ManufacturersModelName": "Prisma_fit",
  "Modality": "MR",
  "MultibandAccelerationFactor": 4,
  "PartialFourier": 1,
  "PatientPosition": "HFS",
  "PercentPhaseFOV": 100,
  "PhaseEncodingDirection": "j-",
  "PhaseEncodingSteps": 88,
  "PhaseResolution": 1,
  "PixelBandwidth": 2185,
  "ProcedureStepDescription": "ASHENHAV_1222",
  "ProtocolName": "func-bold_task-RDMmotion_run-01",
  "PulseSequenceDetails": "%SiemensSeq%_ep2d_bold",
  "ReceiveCoilActiveElements": "HC1-7;NC1",
  "ReceiveCoilName": "HeadNeck_64",
  "ReconMatrixPE": 88,
  "RefLinesPE": 8,
  "RepetitionTime": 1.2,
  "SAR": 0.0457339,
  "ScanOptions": "FS",
  "ScanningSequence": "EP",
  "SequenceName": "_epfid2d1_88",
  "SequenceVariant": "SK",
  "SeriesDescription": "func-bold_task-RDMmotion_run-01",
  "SeriesNumber": 7,
  "ShimSetting": [1756, -9107, 4339, 527, -159, -232, 72, 26],
  "SliceThickness": 2.4,
  "SliceTiming": [0.55, 0, 0.63, 0.0775, 0.7075, 0.1575, 0.7875, 0.235, 0.865, 0.315, 0.9425, 0.3925, 1.0225, 0.4725, 1.1, 0.55, 0, 0.63, 0.0775, 0.7075, 0.1575, 0.7875, 0.235, 0.865, 0.315, 0.9425, 0.3925, 1.0225, 0.4725, 1.1, 0.55, 0, 0.63, 0.0775, 0.7075, 0.1575, 0.7875, 0.235, 0.865, 0.315, 0.9425, 0.3925, 1.0225, 0.4725, 1.1, 0.55, 0, 0.63, 0.0775, 0.7075, 0.1575, 0.7875, 0.235, 0.865, 0.315, 0.9425, 0.3925, 1.0225, 0.4725, 1.1],
  "SoftwareVersions": "syngo_MR_E11",
  "SpacingBetweenSlices": 2.4,
  "StationName": "AWP67050",
  "TaskName": "RDMmotion",
  "TotalReadoutTime": 0.0504612,
  "TxRefAmp": 219.483,
  "dcmmeta_affine": [
    [-2.3841917514801025, 0.1182750016450882, 0.22546109557151794, 98.29522705078125],
    [0.11991982161998749, 2.3946969509124756, 0.011905092746019363, -102.90770721435547],
    [0.22437623143196106, -0.023092199116945267, 2.3893566131591797, -83.09690856933594],
    [0.0, 0.0, 0.0, 1.0]
],
  "dcmmeta_reorient_transform": [
    [0.0, -1.0, 0.0, 87.0],
    [1.0, 0.0, 0.0, 0.0],
    [0.0, 0.0, 1.0, 0.0],
    [0.0, 0.0, 0.0, 1.0]
],
  "dcmmeta_shape": [88, 88, 60, 125],
  "dcmmeta_slice_dim": 2,
  "dcmmeta_version": 0.6,
  "global": {
    "const": {
      "AcquisitionMatrix": [88, 0, 0, 88],
      "AngioFlag": "N",
      "BitsAllocated": 16,
      "BitsStored": 12,
      "BodyPartExamined": "BRAIN",
      "Columns": 704,
      "DeidentificationMethodCodeSequence": [
        {
          "CodeMeaning": "XNAT DicomEdit 6 Script",
          "CodeValue": "3",
          "CodingSchemeDesignator": "XNAT",
          "CodingSchemeVersion": "1.0"}
],
      "EchoNumbers": 1,
      "EchoTime": 33.0,
      "EchoTrainLength": 88,
      "FlipAngle": 62.0,
      "HighBit": 11,
      "ImageOrientationPatient": [0.99435488072662, -0.0500139544333, 0.09357871305532, 0.04932796464468, 0.99873620052865, 0.00963087003409],
      "ImagePositionPatient": [-879.34492431047, -806.06230199443, -161.32620301386],
      "ImageType": [
        "ORIGINAL",
        "PRIMARY",
        "M",
        "ND",
        "MOSAIC"
],
      "ImagedNucleus": "1H",
      "ImagingFrequency": 123.250743,
      "InPlanePhaseEncodingDirection": "COL",
      "MRAcquisitionType": "2D",
      "MagneticFieldStrength": 3.0,
      "Manufacturer": "SIEMENS",
      "ManufacturerModelName": "Prisma_fit",
      "Modality": "MR",
      "NumberOfAverages": 1.0,
      "NumberOfPhaseEncodingSteps": 88,
      "PercentPhaseFieldOfView": 100.0,
      "PercentSampling": 100.0,
      "PerformedProcedureStepStartTime": "144128.036000",
      "PhotometricInterpretation": "MONOCHROME2",
      "PixelBandwidth": 2185.0,
      "PixelRepresentation": 0,
      "PixelSpacing": [2.3977272510529, 2.3977272510529],
      "ProtocolName": "func-bold_task-RDMmotion_run-01",
      "RepetitionTime": 1200.0,
      "Rows": 704,
      "SAR": 0.0457338889622,
      "SamplesPerPixel": 1,
      "ScanOptions": "FS",
      "ScanningSequence": "EP",
      "SequenceName": "*epfid2d1_88",
      "SequenceVariant": "SK",
      "SeriesDescription": "func-bold_task-RDMmotion_run-01",
      "SeriesNumber": 7,
      "SeriesTime": "150655.495000",
      "SliceLocation": -74.004802255241,
      "SliceThickness": 2.4000000953674,
      "SmallestImagePixelValue": 0,
      "SoftwareVersions": "syngo MR E11",
      "SpacingBetweenSlices": 2.3999999856663,
      "SpecificCharacterSet": "ISO_IR 100",
      "StudyID": "1",
      "StudyTime": "144127.968000",
      "TransmitCoilName": "Body",
      "VariableFlipAngleFlag": "N",
      "WindowCenterWidthExplanation": "Algo1",
      "dBdt": 0.0},
    "slices": {}
  },
  "time": {
    "samples": {
      "AcquisitionNumber": [1, 2, 3, 4, 5, 6, 7, 8, 9, 10, 11, 12, 13, 14, 15, 16, 17, 18, 19, 20, 21, 22, 23, 24, 25, 26, 27, 28, 29, 30, 31, 32, 33, 34, 35, 36, 37, 38, 39, 40, 41, 42, 43, 44, 45, 46, 47, 48, 49, 50, 51, 52, 53, 54, 55, 56, 57, 58, 59, 60, 61, 62, 63, 64, 65, 66, 67, 68, 69, 70, 71, 72, 73, 74, 75, 76, 77, 78, 79, 80, 81, 82, 83, 84, 85, 86, 87, 88, 89, 90, 91, 92, 93, 94, 95, 96, 97, 98, 99, 100, 101, 102, 103, 104, 105, 106, 107, 108, 109, 110, 111, 112, 113, 114, 115, 116, 117, 118, 119, 120, 121, 122, 123, 124, 125],
      "AcquisitionTime": ["150627.640000", "150628.840000", "150630.040000", "150631.240000", "150632.440000", "150633.640000", "150634.840000", "150636.040000", "150637.240000", "150638.440000", "150639.640000", "150640.840000", "150642.040000", "150643.240000", "150644.440000", "150645.640000", "150646.840000", "150648.040000", "150649.240000", "150650.440000", "150651.640000", "150652.840000", "150654.040000", "150655.240000", "150656.440000", "150657.640000", "150658.840000", "150700.040000", "150701.240000", "150702.440000", "150703.640000", "150704.840000", "150706.040000", "150707.240000", "150708.440000", "150709.640000", "150710.840000", "150712.040000", "150713.240000", "150714.440000", "150715.640000", "150716.840000", "150718.040000", "150719.240000", "150720.440000", "150721.640000", "150722.840000", "150724.040000", "150725.240000", "150726.440000", "150727.640000", "150728.840000", "150730.040000", "150731.240000", "150732.440000", "150733.640000", "150734.840000", "150736.040000", "150737.240000", "150738.440000", "150739.640000", "150740.840000", "150742.040000", "150743.240000", "150744.440000", "150745.640000", "150746.840000", "150748.040000", "150749.240000", "150750.440000", "150751.640000", "150752.840000", "150754.040000", "150755.240000", "150756.440000", "150757.640000", "150758.840000", "150800.040000", "150801.240000", "150802.440000", "150803.640000", "150804.840000", "150806.040000", "150807.240000", "150808.440000", "150809.640000", "150810.840000", "150812.040000", "150813.240000", "150814.440000", "150815.640000", "150816.840000", "150818.040000", "150819.240000", "150820.440000", "150821.640000", "150822.840000", "150824.040000", "150825.240000", "150826.440000", "150827.640000", "150828.840000", "150830.040000", "150831.240000", "150832.440000", "150833.640000", "150834.840000", "150836.040000", "150837.240000", "150838.440000", "150839.640000", "150840.840000", "150842.040000", "150843.240000", "150844.440000", "150845.640000", "150846.840000", "150848.040000", "150849.240000", "150850.440000", "150851.640000", "150852.840000", "150854.040000", "150855.240000", "150856.440000"],
      "ContentTime": ["150655.498000", "150655.501000", "150655.514000", "150655.516000", "150655.519000", "150655.521000", "150655.524000", "150655.526000", "150655.535000", "150655.537000", "150655.540000", "150655.542000", "150655.545000", "150655.548000", "150655.550000", "150655.553000", "150655.555000", "150655.558000", "150655.560000", "150655.563000", "150655.565000", "150655.568000", "150735.493000", "150735.496000", "150735.499000", "150735.501000", "150735.504000", "150735.507000", "150735.509000", "150735.512000", "150735.515000", "150735.517000", "150735.520000", "150735.523000", "150735.525000", "150735.528000", "150735.530000", "150735.533000", "150735.535000", "150735.538000", "150735.541000", "150735.543000", "150735.546000", "150735.548000", "150735.551000", "150735.553000", "150735.556000", "150735.558000", "150735.561000", "150735.563000", "150735.566000", "150735.568000", "150735.571000", "150735.573000", "150735.576000", "150815.493000", "150815.495000", "150815.498000", "150815.500000", "150815.503000", "150815.505000", "150815.508000", "150815.511000", "150815.513000", "150815.516000", "150815.518000", "150815.521000", "150815.523000", "150815.526000", "150815.528000", "150815.531000", "150815.534000", "150815.536000", "150815.539000", "150815.541000", "150815.544000", "150815.573000", "150815.575000", "150815.578000", "150815.581000", "150815.583000", "150815.586000", "150815.588000", "150815.591000", "150815.593000", "150815.596000", "150815.598000", "150815.601000", "150815.603000", "150855.494000", "150855.496000", "150855.499000", "150855.502000", "150855.504000", "150855.507000", "150855.509000", "150855.512000", "150855.514000", "150855.517000", "150855.520000", "150855.522000", "150855.525000", "150855.527000", "150855.530000", "150855.532000", "150855.535000", "150855.537000", "150855.540000", "150855.542000", "150855.545000", "150855.547000", "150855.550000", "150855.552000", "150855.555000", "150855.566000", "150855.568000", "150855.571000", "150855.573000", "150855.576000", "150855.578000", "150855.581000", "150855.583000", "150858.258000", "150858.261000", "150858.264000"],
      "InstanceCreationTime": ["150655.498000", "150655.501000", "150655.514000", "150655.516000", "150655.519000", "150655.521000", "150655.524000", "150655.526000", "150655.535000", "150655.537000", "150655.540000", "150655.542000", "150655.545000", "150655.548000", "150655.550000", "150655.553000", "150655.555000", "150655.558000", "150655.560000", "150655.563000", "150655.565000", "150655.568000", "150735.493000", "150735.496000", "150735.499000", "150735.501000", "150735.504000", "150735.507000", "150735.509000", "150735.512000", "150735.515000", "150735.517000", "150735.520000", "150735.523000", "150735.525000", "150735.528000", "150735.530000", "150735.533000", "150735.535000", "150735.538000", "150735.541000", "150735.543000", "150735.546000", "150735.548000", "150735.551000", "150735.553000", "150735.556000", "150735.558000", "150735.561000", "150735.563000", "150735.566000", "150735.568000", "150735.571000", "150735.573000", "150735.576000", "150815.493000", "150815.495000", "150815.498000", "150815.500000", "150815.503000", "150815.505000", "150815.508000", "150815.511000", "150815.513000", "150815.516000", "150815.518000", "150815.521000", "150815.523000", "150815.526000", "150815.528000", "150815.531000", "150815.534000", "150815.536000", "150815.539000", "150815.541000", "150815.544000", "150815.573000", "150815.575000", "150815.578000", "150815.581000", "150815.583000", "150815.586000", "150815.588000", "150815.591000", "150815.593000", "150815.596000", "150815.598000", "150815.601000", "150815.603000", "150855.494000", "150855.496000", "150855.499000", "150855.502000", "150855.504000", "150855.507000", "150855.509000", "150855.512000", "150855.514000", "150855.517000", "150855.520000", "150855.522000", "150855.525000", "150855.527000", "150855.530000", "150855.532000", "150855.535000", "150855.537000", "150855.540000", "150855.542000", "150855.545000", "150855.547000", "150855.550000", "150855.552000", "150855.555000", "150855.566000", "150855.568000", "150855.571000", "150855.573000", "150855.576000", "150855.578000", "150855.581000", "150855.583000", "150858.258000", "150858.261000", "150858.264000"],
      "InstanceNumber": [1, 2, 3, 4, 5, 6, 7, 8, 9, 10, 11, 12, 13, 14, 15, 16, 17, 18, 19, 20, 21, 22, 23, 24, 25, 26, 27, 28, 29, 30, 31, 32, 33, 34, 35, 36, 37, 38, 39, 40, 41, 42, 43, 44, 45, 46, 47, 48, 49, 50, 51, 52, 53, 54, 55, 56, 57, 58, 59, 60, 61, 62, 63, 64, 65, 66, 67, 68, 69, 70, 71, 72, 73, 74, 75, 76, 77, 78, 79, 80, 81, 82, 83, 84, 85, 86, 87, 88, 89, 90, 91, 92, 93, 94, 95, 96, 97, 98, 99, 100, 101, 102, 103, 104, 105, 106, 107, 108, 109, 110, 111, 112, 113, 114, 115, 116, 117, 118, 119, 120, 121, 122, 123, 124, 125],
      "LargestImagePixelValue": [2064, 1984, 1937, 1914, 1918, 1905, 1913, 1906, 1918, 1904, 1932, 1906, 1916, 1898, 1905, 1897, 1907, 1893, 1920, 1908, 1915, 1928, 1893, 1929, 1895, 1919, 1905, 1903, 1898, 1899, 1922, 1903, 1929, 1889, 1915, 1902, 1908, 1891, 1909, 1900, 1915, 1897, 1915, 1927, 1940, 1921, 1911, 1898, 1908, 1907, 1903, 1905, 1906, 1906, 1903, 1909, 1894, 1913, 1915, 1913, 1909, 1923, 1905, 1908, 1893, 1908, 1925, 1893, 1922, 1911, 1910, 1922, 1891, 1919, 1900, 1909, 1898, 1900, 1930, 1911, 1913, 1903, 1912, 1911, 1912, 1894, 1902, 1910, 1907, 1929, 1921, 1941, 1919, 1933, 1907, 1926, 1933, 1925, 1923, 1927, 1934, 1917, 1920, 1922, 1931, 1905, 1931, 1914, 1928, 1906, 1940, 1908, 1907, 1944, 1907, 1902, 1910, 1916, 1920, 1947, 1913, 1921, 1928, 1919, 1920],
      "WindowCenter": [602.0, 600.0, 597.0, 597.0, 596.0, 596.0, 597.0, 596.0, 596.0, 596.0, 597.0, 596.0, 597.0, 597.0, 597.0, 597.0, 596.0, 596.0, 596.0, 596.0, 596.0, 596.0, 595.0, 596.0, 595.0, 596.0, 595.0, 596.0, 596.0, 596.0, 597.0, 596.0, 597.0, 595.0, 596.0, 595.0, 595.0, 595.0, 595.0, 595.0, 596.0, 596.0, 596.0, 596.0, 597.0, 597.0, 596.0, 596.0, 595.0, 595.0, 595.0, 596.0, 595.0, 595.0, 594.0, 595.0, 595.0, 596.0, 596.0, 596.0, 596.0, 597.0, 597.0, 596.0, 595.0, 595.0, 595.0, 594.0, 595.0, 595.0, 595.0, 595.0, 595.0, 595.0, 595.0, 595.0, 595.0, 594.0, 595.0, 595.0, 595.0, 595.0, 596.0, 596.0, 596.0, 595.0, 595.0, 595.0, 595.0, 595.0, 595.0, 596.0, 596.0, 597.0, 596.0, 596.0, 595.0, 595.0, 596.0, 596.0, 597.0, 596.0, 596.0, 596.0, 596.0, 595.0, 596.0, 596.0, 596.0, 595.0, 596.0, 596.0, 596.0, 597.0, 596.0, 596.0, 596.0, 595.0, 595.0, 596.0, 595.0, 595.0, 595.0, 595.0, 595.0],
      "WindowWidth": [1286.0, 1280.0, 1275.0, 1273.0, 1272.0, 1272.0, 1273.0, 1271.0, 1272.0, 1271.0, 1273.0, 1271.0, 1274.0, 1273.0, 1273.0, 1273.0, 1272.0, 1272.0, 1272.0, 1271.0, 1270.0, 1270.0, 1268.0, 1270.0, 1269.0, 1270.0, 1270.0, 1270.0, 1270.0, 1272.0, 1272.0, 1271.0, 1272.0, 1269.0, 1271.0, 1270.0, 1270.0, 1269.0, 1269.0, 1269.0, 1270.0, 1271.0, 1271.0, 1271.0, 1273.0, 1272.0, 1272.0, 1270.0, 1269.0, 1270.0, 1269.0, 1270.0, 1269.0, 1269.0, 1268.0, 1269.0, 1269.0, 1271.0, 1271.0, 1272.0, 1271.0, 1272.0, 1272.0, 1271.0, 1269.0, 1268.0, 1269.0, 1267.0, 1269.0, 1268.0, 1269.0, 1269.0, 1268.0, 1270.0, 1269.0, 1269.0, 1268.0, 1268.0, 1269.0, 1268.0, 1270.0, 1269.0, 1271.0, 1271.0, 1270.0, 1268.0, 1268.0, 1269.0, 1269.0, 1269.0, 1270.0, 1271.0, 1270.0, 1272.0, 1271.0, 1271.0, 1270.0, 1270.0, 1270.0, 1270.0, 1272.0, 1271.0, 1270.0, 1270.0, 1271.0, 1270.0, 1271.0, 1271.0, 1271.0, 1270.0, 1272.0, 1270.0, 1272.0, 1274.0, 1272.0, 1272.0, 1271.0, 1269.0, 1268.0, 1270.0, 1269.0, 1269.0, 1269.0, 1268.0, 1270.0]
    },
    "slices": {}
  }
}