{
  "AcquisitionMatrixPE": 88,
  "AcquisitionNumber": 1,
  "AcquisitionTime": "15:32:39.320000",
  "BandwidthPerPixelPhaseEncode": 19.592,
  "BaseResolution": 88,
  "BodyPartExamined": "BRAIN",
  "ConsistencyInfo": "N4_VE11C_LATEST_20160120",
  "ConversionSoftware": "dcm2niix",
  "ConversionSoftwareVersion": "v1.0.20190902",
  "DerivedVendorReportedEchoSpacing": 0.000580014,
  "DeviceSerialNumber": "67050",
  "DwellTime": 2.6e-06,
  "EchoTime": 0.033,
  "EchoTrainLength": 88,
  "EffectiveEchoSpacing": 0.000580014,
  "FlipAngle": 62,
  "ImageOrientationPatientDICOM": [0.998846, 0.0440895, -0.0190532, -0.0465803, 0.985949, -0.16042],
  "ImageType": [
    "ORIGINAL",
    "PRIMARY",
    "M",
    "ND",
    "MOSAIC"
],
  "ImagingFrequency": 123.25,
  "InPlanePhaseEncodingDirectionDICOM": "COL",
  "InstitutionAddress": "Olive_Street_60_Providence_RI_US_02912",
  "InstitutionName": "BROWN_UNIVERSITY_MRF",
  "InstitutionalDepartmentName": "Department",
  "MRAcquisitionType": "2D",
  "MagneticFieldStrength": 3,
  "Manufacturer": "Siemens",
  "ManufacturersModelName": "Prisma_fit",
  "Modality": "MR",
  "MultibandAccelerationFactor": 4,
  "PartialFourier": 1,
  "PatientPosition": "HFS",
  "PercentPhaseFOV": 100,
  "PhaseEncodingDirection": "j-",
  "PhaseEncodingSteps": 88,
  "PhaseResolution": 1,
  "PixelBandwidth": 2185,
  "ProcedureStepDescription": "ASHENHAV_1222",
  "ProtocolName": "func-bold_task-RDMmotion_run-02",
  "PulseSequenceDetails": "%SiemensSeq%_ep2d_bold",
  "ReceiveCoilActiveElements": "HC1-7;NC1",
  "ReceiveCoilName": "HeadNeck_64",
  "ReconMatrixPE": 88,
  "RefLinesPE": 8,
  "RepetitionTime": 1.2,
  "SAR": 0.0442336,
  "ScanOptions": "FS",
  "ScanningSequence": "EP",
  "SequenceName": "_epfid2d1_88",
  "SequenceVariant": "SK",
  "SeriesDescription": "func-bold_task-RDMmotion_run-02",
  "SeriesNumber": 9,
  "ShimSetting": [1747, -9098, 4389, 591, -72, -377, -51, -2],
  "SliceThickness": 2.4,
  "SliceTiming": [0.55, 0, 0.6275, 0.0775, 0.7075, 0.1575, 0.785, 0.235, 0.865, 0.3125, 0.9425, 0.3925, 1.0225, 0.47, 1.1, 0.55, 0, 0.6275, 0.0775, 0.7075, 0.1575, 0.785, 0.235, 0.865, 0.3125, 0.9425, 0.3925, 1.0225, 0.47, 1.1, 0.55, 0, 0.6275, 0.0775, 0.7075, 0.1575, 0.785, 0.235, 0.865, 0.3125, 0.9425, 0.3925, 1.0225, 0.47, 1.1, 0.55, 0, 0.6275, 0.0775, 0.7075, 0.1575, 0.785, 0.235, 0.865, 0.3125, 0.9425, 0.3925, 1.0225, 0.47, 1.1],
  "SoftwareVersions": "syngo_MR_E11",
  "SpacingBetweenSlices": 2.4,
  "StationName": "AWP67050",
  "TaskName": "RDMmotion",
  "TotalReadoutTime": 0.0504612,
  "TxRefAmp": 219.976,
  "dcmmeta_affine": [
    [-2.3949599266052246, -0.11168679594993591, -0.028110405430197716, 111.6758041381836],
    [-0.1057145819067955, 2.364037275314331, -0.3866933584213257, -82.14633178710938],
    [-0.04568440839648247, 0.3846430778503418, 2.368475914001465, -82.95899200439453],
    [0.0, 0.0, 0.0, 1.0]
],
  "dcmmeta_reorient_transform": [
    [0.0, -1.0, 0.0, 87.0],
    [1.0, 0.0, 0.0, 0.0],
    [0.0, 0.0, 1.0, 0.0],
    [0.0, 0.0, 0.0, 1.0]
],
  "dcmmeta_shape": [88, 88, 60, 125],
  "dcmmeta_slice_dim": 2,
  "dcmmeta_version": 0.6,
  "global": {
    "const": {
      "AcquisitionMatrix": [88, 0, 0, 88],
      "AngioFlag": "N",
      "BitsAllocated": 16,
      "BitsStored": 12,
      "BodyPartExamined": "BRAIN",
      "Columns": 704,
      "DeidentificationMethodCodeSequence": [
        {
          "CodeMeaning": "XNAT DicomEdit 6 Script",
          "CodeValue": "3",
          "CodingSchemeDesignator": "XNAT",
          "CodingSchemeVersion": "1.0"}
],
      "EchoNumbers": 1,
      "EchoTime": 33.0,
      "EchoTrainLength": 88,
      "FlipAngle": 62.0,
      "HighBit": 11,
      "ImageOrientationPatient": [0.99884587972585, 0.04408949545136, -0.0190532135228, -0.0465802741863, 0.98594915906, -0.160419867241],
      "ImagePositionPatient": [-805.20719874325, -884.20844388056, 83.045827806594],
      "ImageType": [
        "ORIGINAL",
        "PRIMARY",
        "M",
        "ND",
        "MOSAIC"
],
      "ImagedNucleus": "1H",
      "ImagingFrequency": 123.249996,
      "InPlanePhaseEncodingDirection": "COL",
      "MRAcquisitionType": "2D",
      "MagneticFieldStrength": 3.0,
      "Manufacturer": "SIEMENS",
      "ManufacturerModelName": "Prisma_fit",
      "Modality": "MR",
      "NumberOfAverages": 1.0,
      "NumberOfPhaseEncodingSteps": 88,
      "PercentPhaseFieldOfView": 100.0,
      "PercentSampling": 100.0,
      "PerformedProcedureStepStartTime": "150517.931000",
      "PhotometricInterpretation": "MONOCHROME2",
      "PixelBandwidth": 2185.0,
      "PixelRepresentation": 0,
      "PixelSpacing": [2.3977272510529, 2.3977272510529],
      "ProtocolName": "func-bold_task-RDMmotion_run-02",
      "RepetitionTime": 1200.0,
      "Rows": 704,
      "SAR": 0.04423360548933,
      "SamplesPerPixel": 1,
      "ScanOptions": "FS",
      "ScanningSequence": "EP",
      "SequenceName": "*epfid2d1_88",
      "SequenceVariant": "SK",
      "SeriesDescription": "func-bold_task-RDMmotion_run-02",
      "SeriesNumber": 9,
      "SeriesTime": "153323.226000",
      "SliceLocation": -69.941741972124,
      "SliceThickness": 2.4000000953674,
      "SmallestImagePixelValue": 0,
      "SoftwareVersions": "syngo MR E11",
      "SpacingBetweenSlices": 2.4000000679793,
      "SpecificCharacterSet": "ISO_IR 100",
      "StudyID": "1",
      "StudyTime": "150517.870000",
      "TransmitCoilName": "Body",
      "VariableFlipAngleFlag": "N",
      "WindowCenterWidthExplanation": "Algo1",
      "dBdt": 0.0},
    "slices": {}
  },
  "time": {
    "samples": {
      "AcquisitionNumber": [1, 2, 3, 4, 5, 6, 7, 8, 9, 10, 11, 12, 13, 14, 15, 16, 17, 18, 19, 20, 21, 22, 23, 24, 25, 26, 27, 28, 29, 30, 31, 32, 33, 34, 35, 36, 37, 38, 39, 40, 41, 42, 43, 44, 45, 46, 47, 48, 49, 50, 51, 52, 53, 54, 55, 56, 57, 58, 59, 60, 61, 62, 63, 64, 65, 66, 67, 68, 69, 70, 71, 72, 73, 74, 75, 76, 77, 78, 79, 80, 81, 82, 83, 84, 85, 86, 87, 88, 89, 90, 91, 92, 93, 94, 95, 96, 97, 98, 99, 100, 101, 102, 103, 104, 105, 106, 107, 108, 109, 110, 111, 112, 113, 114, 115, 116, 117, 118, 119, 120, 121, 122, 123, 124, 125],
      "AcquisitionTime": ["153239.320000", "153240.520000", "153241.720000", "153242.920000", "153244.120000", "153245.320000", "153246.520000", "153247.720000", "153248.920000", "153250.120000", "153251.320000", "153252.520000", "153253.720000", "153254.920000", "153256.120000", "153257.320000", "153258.520000", "153259.720000", "153300.920000", "153302.120000", "153303.320000", "153304.520000", "153305.720000", "153306.920000", "153308.120000", "153309.320000", "153310.520000", "153311.720000", "153312.920000", "153314.120000", "153315.320000", "153316.520000", "153317.720000", "153318.920000", "153320.120000", "153321.320000", "153322.520000", "153323.720000", "153324.920000", "153326.120000", "153327.320000", "153328.520000", "153329.720000", "153330.920000", "153332.120000", "153333.320000", "153334.520000", "153335.720000", "153336.920000", "153338.120000", "153339.320000", "153340.520000", "153341.720000", "153342.920000", "153344.120000", "153345.320000", "153346.520000", "153347.720000", "153348.920000", "153350.120000", "153351.320000", "153352.520000", "153353.720000", "153354.920000", "153356.120000", "153357.320000", "153358.520000", "153359.720000", "153400.920000", "153402.120000", "153403.320000", "153404.520000", "153405.720000", "153406.920000", "153408.120000", "153409.320000", "153410.520000", "153411.720000", "153412.920000", "153414.120000", "153415.320000", "153416.520000", "153417.720000", "153418.920000", "153420.120000", "153421.320000", "153422.520000", "153423.720000", "153424.920000", "153426.120000", "153427.320000", "153428.520000", "153429.720000", "153430.920000", "153432.120000", "153433.320000", "153434.520000", "153435.720000", "153436.920000", "153438.120000", "153439.320000", "153440.520000", "153441.720000", "153442.920000", "153444.120000", "153445.320000", "153446.520000", "153447.720000", "153448.920000", "153450.120000", "153451.320000", "153452.520000", "153453.720000", "153454.920000", "153456.120000", "153457.320000", "153458.520000", "153459.720000", "153500.920000", "153502.120000", "153503.320000", "153504.520000", "153505.720000", "153506.920000", "153508.120000"],
      "ContentTime": ["153323.229000", "153323.232000", "153323.235000", "153323.237000", "153323.240000", "153323.243000", "153323.245000", "153323.248000", "153323.250000", "153323.259000", "153323.262000", "153323.264000", "153323.267000", "153323.270000", "153323.272000", "153323.275000", "153323.277000", "153323.280000", "153323.283000", "153323.285000", "153323.288000", "153323.290000", "153323.293000", "153323.295000", "153323.298000", "153323.301000", "153323.303000", "153323.306000", "153323.308000", "153323.311000", "153323.314000", "153323.316000", "153323.319000", "153323.322000", "153323.324000", "153403.224000", "153403.227000", "153403.230000", "153403.232000", "153403.235000", "153403.238000", "153403.240000", "153403.243000", "153403.246000", "153403.248000", "153403.251000", "153403.253000", "153403.256000", "153403.258000", "153403.261000", "153403.264000", "153403.266000", "153403.269000", "153403.271000", "153403.274000", "153403.277000", "153403.279000", "153403.282000", "153403.285000", "153403.287000", "153403.290000", "153403.292000", "153403.295000", "153403.298000", "153403.300000", "153403.303000", "153403.305000", "153403.308000", "153403.310000", "153443.226000", "153443.228000", "153443.231000", "153443.234000", "153443.237000", "153443.239000", "153443.242000", "153443.244000", "153443.247000", "153443.264000", "153443.266000", "153443.269000", "153443.271000", "153443.274000", "153443.277000", "153443.279000", "153443.290000", "153443.292000", "153443.295000", "153443.298000", "153443.300000", "153443.303000", "153443.305000", "153443.308000", "153443.311000", "153443.313000", "153443.316000", "153443.319000", "153443.321000", "153443.324000", "153443.326000", "153443.329000", "153443.331000", "153510.212000", "153510.215000", "153510.217000", "153510.220000", "153510.223000", "153510.225000", "153510.228000", "153510.230000", "153510.233000", "153510.236000", "153510.238000", "153510.241000", "153510.243000", "153510.246000", "153510.248000", "153510.251000", "153510.253000", "153510.256000", "153510.259000", "153510.261000", "153510.264000", "153510.266000", "153510.269000"],
      "InstanceCreationTime": ["153323.229000", "153323.232000", "153323.235000", "153323.237000", "153323.240000", "153323.243000", "153323.245000", "153323.248000", "153323.250000", "153323.259000", "153323.262000", "153323.264000", "153323.267000", "153323.270000", "153323.272000", "153323.275000", "153323.277000", "153323.280000", "153323.283000", "153323.285000", "153323.288000", "153323.290000", "153323.293000", "153323.295000", "153323.298000", "153323.301000", "153323.303000", "153323.306000", "153323.308000", "153323.311000", "153323.314000", "153323.316000", "153323.319000", "153323.322000", "153323.324000", "153403.224000", "153403.227000", "153403.230000", "153403.232000", "153403.235000", "153403.238000", "153403.240000", "153403.243000", "153403.246000", "153403.248000", "153403.251000", "153403.253000", "153403.256000", "153403.258000", "153403.261000", "153403.264000", "153403.266000", "153403.269000", "153403.271000", "153403.274000", "153403.277000", "153403.279000", "153403.282000", "153403.285000", "153403.287000", "153403.290000", "153403.292000", "153403.295000", "153403.298000", "153403.300000", "153403.303000", "153403.305000", "153403.308000", "153403.310000", "153443.226000", "153443.228000", "153443.231000", "153443.234000", "153443.237000", "153443.239000", "153443.242000", "153443.244000", "153443.247000", "153443.264000", "153443.266000", "153443.269000", "153443.271000", "153443.274000", "153443.277000", "153443.279000", "153443.290000", "153443.292000", "153443.295000", "153443.298000", "153443.300000", "153443.303000", "153443.305000", "153443.308000", "153443.311000", "153443.313000", "153443.316000", "153443.319000", "153443.321000", "153443.324000", "153443.326000", "153443.329000", "153443.331000", "153510.212000", "153510.215000", "153510.217000", "153510.220000", "153510.223000", "153510.225000", "153510.228000", "153510.230000", "153510.233000", "153510.236000", "153510.238000", "153510.241000", "153510.243000", "153510.246000", "153510.248000", "153510.251000", "153510.253000", "153510.256000", "153510.259000", "153510.261000", "153510.264000", "153510.266000", "153510.269000"],
      "InstanceNumber": [1, 2, 3, 4, 5, 6, 7, 8, 9, 10, 11, 12, 13, 14, 15, 16, 17, 18, 19, 20, 21, 22, 23, 24, 25, 26, 27, 28, 29, 30, 31, 32, 33, 34, 35, 36, 37, 38, 39, 40, 41, 42, 43, 44, 45, 46, 47, 48, 49, 50, 51, 52, 53, 54, 55, 56, 57, 58, 59, 60, 61, 62, 63, 64, 65, 66, 67, 68, 69, 70, 71, 72, 73, 74, 75, 76, 77, 78, 79, 80, 81, 82, 83, 84, 85, 86, 87, 88, 89, 90, 91, 92, 93, 94, 95, 96, 97, 98, 99, 100, 101, 102, 103, 104, 105, 106, 107, 108, 109, 110, 111, 112, 113, 114, 115, 116, 117, 118, 119, 120, 121, 122, 123, 124, 125],
      "LargestImagePixelValue": [1907, 1903, 1890, 1873, 1866, 1846, 1848, 1816, 1827, 1899, 1874, 1897, 1892, 1866, 1841, 1837, 1844, 1900, 1881, 1872, 1874, 1885, 1887, 1878, 1879, 1875, 1853, 1856, 1844, 1837, 1865, 1853, 1883, 1853, 1870, 1860, 1841, 1843, 1817, 1817, 1834, 1813, 1834, 1821, 1837, 1839, 1828, 1823, 1819, 1807, 1819, 1829, 1806, 1828, 1813, 1830, 1827, 1853, 1857, 1870, 1849, 1883, 1878, 1875, 1885, 1870, 1873, 1867, 1855, 1870, 1862, 1856, 1836, 1842, 1850, 1888, 1876, 1874, 1877, 1884, 1885, 1885, 1885, 1851, 1835, 1885, 1880, 1881, 1875, 1878, 1869, 1866, 1853, 1830, 1835, 1833, 1824, 1820, 1874, 1866, 1862, 1857, 1821, 1823, 1846, 1884, 1875, 1881, 1870, 1886, 1857, 1837, 1823, 1855, 1811, 1816, 1832, 1813, 1847, 1876, 1856, 1810, 1796, 1815, 1812],
      "WindowCenter": [596.0, 593.0, 592.0, 592.0, 591.0, 592.0, 593.0, 593.0, 594.0, 595.0, 594.0, 593.0, 593.0, 593.0, 593.0, 593.0, 593.0, 594.0, 594.0, 594.0, 594.0, 594.0, 594.0, 594.0, 594.0, 595.0, 594.0, 594.0, 594.0, 594.0, 595.0, 595.0, 596.0, 595.0, 596.0, 594.0, 594.0, 593.0, 593.0, 593.0, 593.0, 593.0, 593.0, 593.0, 594.0, 594.0, 594.0, 593.0, 594.0, 593.0, 594.0, 594.0, 593.0, 594.0, 593.0, 594.0, 593.0, 594.0, 594.0, 595.0, 594.0, 595.0, 595.0, 595.0, 594.0, 595.0, 595.0, 594.0, 594.0, 594.0, 594.0, 594.0, 594.0, 594.0, 595.0, 595.0, 595.0, 595.0, 594.0, 593.0, 593.0, 593.0, 594.0, 594.0, 594.0, 594.0, 594.0, 593.0, 593.0, 593.0, 593.0, 594.0, 594.0, 593.0, 593.0, 593.0, 593.0, 593.0, 594.0, 594.0, 593.0, 594.0, 594.0, 594.0, 595.0, 595.0, 595.0, 594.0, 594.0, 594.0, 594.0, 594.0, 593.0, 594.0, 593.0, 593.0, 593.0, 593.0, 594.0, 594.0, 594.0, 593.0, 593.0, 593.0, 593.0],
      "WindowWidth": [1272.0, 1266.0, 1263.0, 1263.0, 1261.0, 1263.0, 1266.0, 1267.0, 1268.0, 1270.0, 1268.0, 1267.0, 1265.0, 1265.0, 1266.0, 1266.0, 1267.0, 1268.0, 1267.0, 1267.0, 1268.0, 1267.0, 1267.0, 1268.0, 1268.0, 1269.0, 1268.0, 1269.0, 1268.0, 1269.0, 1270.0, 1270.0, 1271.0, 1271.0, 1271.0, 1268.0, 1268.0, 1267.0, 1266.0, 1266.0, 1266.0, 1265.0, 1266.0, 1266.0, 1268.0, 1268.0, 1267.0, 1267.0, 1267.0, 1267.0, 1268.0, 1267.0, 1267.0, 1267.0, 1267.0, 1268.0, 1266.0, 1268.0, 1268.0, 1270.0, 1269.0, 1270.0, 1269.0, 1269.0, 1269.0, 1269.0, 1270.0, 1268.0, 1269.0, 1268.0, 1267.0, 1267.0, 1267.0, 1268.0, 1270.0, 1271.0, 1269.0, 1269.0, 1267.0, 1266.0, 1266.0, 1266.0, 1267.0, 1267.0, 1267.0, 1268.0, 1267.0, 1266.0, 1266.0, 1266.0, 1265.0, 1267.0, 1267.0, 1266.0, 1266.0, 1266.0, 1267.0, 1266.0, 1267.0, 1267.0, 1266.0, 1269.0, 1268.0, 1269.0, 1269.0, 1270.0, 1269.0, 1268.0, 1268.0, 1268.0, 1267.0, 1268.0, 1267.0, 1269.0, 1267.0, 1267.0, 1267.0, 1267.0, 1267.0, 1268.0, 1267.0, 1266.0, 1266.0, 1266.0, 1267.0]
    },
    "slices": {}
  }
}