{
  "AcquisitionMatrixPE": 88,
  "AcquisitionNumber": 1,
  "AcquisitionTime": "10:35:11.230000",
  "BandwidthPerPixelPhaseEncode": 19.592,
  "BaseResolution": 88,
  "BodyPartExamined": "BRAIN",
  "ConsistencyInfo": "N4_VE11C_LATEST_20160120",
  "ConversionSoftware": "dcm2niix",
  "ConversionSoftwareVersion": "v1.0.20190902",
  "DerivedVendorReportedEchoSpacing": 0.000580014,
  "DeviceSerialNumber": "67050",
  "DwellTime": 2.6e-06,
  "EchoTime": 0.033,
  "EchoTrainLength": 88,
  "EffectiveEchoSpacing": 0.000580014,
  "FlipAngle": 62,
  "ImageOrientationPatientDICOM": [0.991968, -0.040582, 0.119806, 0.046086, 0.997988, -0.0435323],
  "ImageType": [
    "ORIGINAL",
    "PRIMARY",
    "M",
    "ND",
    "MOSAIC"
],
  "ImagingFrequency": 123.25,
  "InPlanePhaseEncodingDirectionDICOM": "COL",
  "InstitutionAddress": "Olive_Street_60_Providence_RI_US_02912",
  "InstitutionName": "BROWN_UNIVERSITY_MRF",
  "InstitutionalDepartmentName": "Department",
  "MRAcquisitionType": "2D",
  "MagneticFieldStrength": 3,
  "Manufacturer": "Siemens",
  "ManufacturersModelName": "Prisma_fit",
  "Modality": "MR",
  "MultibandAccelerationFactor": 4,
  "PartialFourier": 1,
  "PatientPosition": "HFS",
  "PercentPhaseFOV": 100,
  "PhaseEncodingDirection": "j-",
  "PhaseEncodingSteps": 88,
  "PhaseResolution": 1,
  "PixelBandwidth": 2185,
  "ProcedureStepDescription": "ASHENHAV_1222",
  "ProtocolName": "func-bold_task-RDMcolor_run-04",
  "PulseSequenceDetails": "%SiemensSeq%_ep2d_bold",
  "ReceiveCoilActiveElements": "HC1-7;NC1",
  "ReceiveCoilName": "HeadNeck_64",
  "ReconMatrixPE": 88,
  "RefLinesPE": 8,
  "RepetitionTime": 1.2,
  "SAR": 0.0448937,
  "ScanOptions": "FS",
  "ScanningSequence": "EP",
  "SequenceName": "_epfid2d1_88",
  "SequenceVariant": "SK",
  "SeriesDescription": "func-bold_task-RDMcolor_run-04",
  "SeriesNumber": 14,
  "ShimSetting": [1754, -9132, 4447, 592, -215, -218, -40, 12],
  "SliceThickness": 2.4,
  "SliceTiming": [0.5525, 0, 0.63, 0.08, 0.71, 0.1575, 0.7875, 0.2375, 0.8675, 0.315, 0.945, 0.395, 1.025, 0.4725, 1.1025, 0.5525, 0, 0.63, 0.08, 0.71, 0.1575, 0.7875, 0.2375, 0.8675, 0.315, 0.945, 0.395, 1.025, 0.4725, 1.1025, 0.5525, 0, 0.63, 0.08, 0.71, 0.1575, 0.7875, 0.2375, 0.8675, 0.315, 0.945, 0.395, 1.025, 0.4725, 1.1025, 0.5525, 0, 0.63, 0.08, 0.71, 0.1575, 0.7875, 0.2375, 0.8675, 0.315, 0.945, 0.395, 1.025, 0.4725, 1.1025],
  "SoftwareVersions": "syngo_MR_E11",
  "SpacingBetweenSlices": 2.4,
  "StationName": "AWP67050",
  "TaskName": "RDMcolor",
  "TotalReadoutTime": 0.0504612,
  "TxRefAmp": 217.084,
  "dcmmeta_affine": [
    [-2.3784677982330322, 0.11050157994031906, 0.2827153503894806, 95.86100769042969],
    [0.0973045825958252, 2.392904281616211, -0.11688947677612305, -93.6602783203125],
    [0.28726133704185486, 0.10437847673892975, 2.3804221153259277, -68.33333587646484],
    [0.0, 0.0, 0.0, 1.0]
],
  "dcmmeta_reorient_transform": [
    [0.0, -1.0, 0.0, 87.0],
    [1.0, 0.0, 0.0, 0.0],
    [0.0, 0.0, 1.0, 0.0],
    [0.0, 0.0, 0.0, 1.0]
],
  "dcmmeta_shape": [88, 88, 60, 392],
  "dcmmeta_slice_dim": 2,
  "dcmmeta_version": 0.6,
  "global": {
    "const": {
      "AcquisitionMatrix": [88, 0, 0, 88],
      "AngioFlag": "N",
      "BitsAllocated": 16,
      "BitsStored": 12,
      "BodyPartExamined": "BRAIN",
      "Columns": 704,
      "DeidentificationMethodCodeSequence": [
        {
          "CodeMeaning": "XNAT DicomEdit 6 Script",
          "CodeValue": "3",
          "CodingSchemeDesignator": "XNAT",
          "CodingSchemeVersion": "1.0"}
],
      "EchoNumbers": 1,
      "EchoTime": 33.0,
      "EchoTrainLength": 88,
      "FlipAngle": 62.0,
      "HighBit": 11,
      "ImageOrientationPatient": [0.99196759010785, -0.0405820056992, 0.11980568012013, 0.04608596755381, 0.99798849003879, -0.0435322563707],
      "ImagePositionPatient": [-872.07718810915, -821.56706908689, -115.58032783942],
      "ImageType": [
        "ORIGINAL",
        "PRIMARY",
        "M",
        "ND",
        "MOSAIC"
],
      "ImagedNucleus": "1H",
      "ImagingFrequency": 123.250493,
      "InPlanePhaseEncodingDirection": "COL",
      "MRAcquisitionType": "2D",
      "MagneticFieldStrength": 3.0,
      "Manufacturer": "SIEMENS",
      "ManufacturerModelName": "Prisma_fit",
      "Modality": "MR",
      "NumberOfAverages": 1.0,
      "NumberOfPhaseEncodingSteps": 88,
      "PercentPhaseFieldOfView": 100.0,
      "PercentSampling": 100.0,
      "PerformedProcedureStepStartTime": "094920.742000",
      "PhotometricInterpretation": "MONOCHROME2",
      "PixelBandwidth": 2185.0,
      "PixelRepresentation": 0,
      "PixelSpacing": [2.3977272510529, 2.3977272510529],
      "ProtocolName": "func-bold_task-RDMcolor_run-04",
      "RepetitionTime": 1200.0,
      "Rows": 704,
      "SAR": 0.04489371860189,
      "SamplesPerPixel": 1,
      "ScanOptions": "FS",
      "ScanningSequence": "EP",
      "SequenceName": "*epfid2d1_88",
      "SequenceVariant": "SK",
      "SeriesDescription": "func-bold_task-RDMcolor_run-04",
      "SeriesNumber": 14,
      "SeriesTime": "103539.012000",
      "SliceLocation": -51.922037047307,
      "SliceThickness": 2.4000000953674,
      "SmallestImagePixelValue": 0,
      "SoftwareVersions": "syngo MR E11",
      "SpacingBetweenSlices": 2.4000000470758,
      "SpecificCharacterSet": "ISO_IR 100",
      "StudyID": "1",
      "StudyTime": "094920.527000",
      "TransmitCoilName": "Body",
      "VariableFlipAngleFlag": "N",
      "WindowCenterWidthExplanation": "Algo1",
      "dBdt": 0.0},
    "slices": {}
  },
  "time": {
    "samples": {
      "AcquisitionNumber": [1, 2, 3, 4, 5, 6, 7, 8, 9, 10, 11, 12, 13, 14, 15, 16, 17, 18, 19, 20, 21, 22, 23, 24, 25, 26, 27, 28, 29, 30, 31, 32, 33, 34, 35, 36, 37, 38, 39, 40, 41, 42, 43, 44, 45, 46, 47, 48, 49, 50, 51, 52, 53, 54, 55, 56, 57, 58, 59, 60, 61, 62, 63, 64, 65, 66, 67, 68, 69, 70, 71, 72, 73, 74, 75, 76, 77, 78, 79, 80, 81, 82, 83, 84, 85, 86, 87, 88, 89, 90, 91, 92, 93, 94, 95, 96, 97, 98, 99, 100, 101, 102, 103, 104, 105, 106, 107, 108, 109, 110, 111, 112, 113, 114, 115, 116, 117, 118, 119, 120, 121, 122, 123, 124, 125, 126, 127, 128, 129, 130, 131, 132, 133, 134, 135, 136, 137, 138, 139, 140, 141, 142, 143, 144, 145, 146, 147, 148, 149, 150, 151, 152, 153, 154, 155, 156, 157, 158, 159, 160, 161, 162, 163, 164, 165, 166, 167, 168, 169, 170, 171, 172, 173, 174, 175, 176, 177, 178, 179, 180, 181, 182, 183, 184, 185, 186, 187, 188, 189, 190, 191, 192, 193, 194, 195, 196, 197, 198, 199, 200, 201, 202, 203, 204, 205, 206, 207, 208, 209, 210, 211, 212, 213, 214, 215, 216, 217, 218, 219, 220, 221, 222, 223, 224, 225, 226, 227, 228, 229, 230, 231, 232, 233, 234, 235, 236, 237, 238, 239, 240, 241, 242, 243, 244, 245, 246, 247, 248, 249, 250, 251, 252, 253, 254, 255, 256, 257, 258, 259, 260, 261, 262, 263, 264, 265, 266, 267, 268, 269, 270, 271, 272, 273, 274, 275, 276, 277, 278, 279, 280, 281, 282, 283, 284, 285, 286, 287, 288, 289, 290, 291, 292, 293, 294, 295, 296, 297, 298, 299, 300, 301, 302, 303, 304, 305, 306, 307, 308, 309, 310, 311, 312, 313, 314, 315, 316, 317, 318, 319, 320, 321, 322, 323, 324, 325, 326, 327, 328, 329, 330, 331, 332, 333, 334, 335, 336, 337, 338, 339, 340, 341, 342, 343, 344, 345, 346, 347, 348, 349, 350, 351, 352, 353, 354, 355, 356, 357, 358, 359, 360, 361, 362, 363, 364, 365, 366, 367, 368, 369, 370, 371, 372, 373, 374, 375, 376, 377, 378, 379, 380, 381, 382, 383, 384, 385, 386, 387, 388, 389, 390, 391, 392],
      "AcquisitionTime": ["103511.230000", "103512.430000", "103513.630000", "103514.830000", "103516.030000", "103517.230000", "103518.430000", "103519.630000", "103520.830000", "103522.030000", "103523.230000", "103524.430000", "103525.630000", "103526.830000", "103528.030000", "103529.230000", "103530.430000", "103531.630000", "103532.830000", "103534.030000", "103535.230000", "103536.430000", "103537.630000", "103538.830000", "103540.030000", "103541.230000", "103542.430000", "103543.630000", "103544.830000", "103546.030000", "103547.230000", "103548.430000", "103549.630000", "103550.830000", "103552.030000", "103553.230000", "103554.430000", "103555.630000", "103556.830000", "103558.030000", "103559.230000", "103600.430000", "103601.630000", "103602.830000", "103604.030000", "103605.230000", "103606.430000", "103607.630000", "103608.830000", "103610.030000", "103611.230000", "103612.430000", "103613.630000", "103614.830000", "103616.030000", "103617.230000", "103618.430000", "103619.630000", "103620.830000", "103622.030000", "103623.230000", "103624.430000", "103625.630000", "103626.830000", "103628.030000", "103629.230000", "103630.430000", "103631.630000", "103632.830000", "103634.030000", "103635.230000", "103636.430000", "103637.630000", "103638.830000", "103640.030000", "103641.230000", "103642.430000", "103643.630000", "103644.830000", "103646.030000", "103647.230000", "103648.430000", "103649.630000", "103650.830000", "103652.030000", "103653.230000", "103654.430000", "103655.630000", "103656.830000", "103658.030000", "103659.230000", "103700.430000", "103701.630000", "103702.830000", "103704.030000", "103705.230000", "103706.430000", "103707.630000", "103708.830000", "103710.030000", "103711.230000", "103712.430000", "103713.630000", "103714.830000", "103716.030000", "103717.230000", "103718.430000", "103719.630000", "103720.830000", "103722.030000", "103723.230000", "103724.430000", "103725.630000", "103726.830000", "103728.030000", "103729.230000", "103730.430000", "103731.630000", "103732.830000", "103734.030000", "103735.230000", "103736.430000", "103737.630000", "103738.830000", "103740.030000", "103741.230000", "103742.430000", "103743.630000", "103744.830000", "103746.030000", "103747.230000", "103748.430000", "103749.630000", "103750.830000", "103752.030000", "103753.230000", "103754.430000", "103755.630000", "103756.830000", "103758.030000", "103759.230000", "103800.430000", "103801.630000", "103802.830000", "103804.030000", "103805.230000", "103806.430000", "103807.630000", "103808.830000", "103810.030000", "103811.230000", "103812.430000", "103813.630000", "103814.830000", "103816.030000", "103817.230000", "103818.430000", "103819.630000", "103820.830000", "103822.030000", "103823.230000", "103824.430000", "103825.630000", "103826.830000", "103828.030000", "103829.230000", "103830.430000", "103831.630000", "103832.830000", "103834.030000", "103835.230000", "103836.430000", "103837.630000", "103838.830000", "103840.030000", "103841.230000", "103842.430000", "103843.630000", "103844.830000", "103846.030000", "103847.230000", "103848.430000", "103849.630000", "103850.830000", "103852.030000", "103853.230000", "103854.430000", "103855.630000", "103856.830000", "103858.030000", "103859.230000", "103900.430000", "103901.630000", "103902.830000", "103904.030000", "103905.230000", "103906.430000", "103907.630000", "103908.830000", "103910.030000", "103911.230000", "103912.430000", "103913.630000", "103914.830000", "103916.030000", "103917.230000", "103918.430000", "103919.630000", "103920.830000", "103922.030000", "103923.230000", "103924.430000", "103925.630000", "103926.830000", "103928.030000", "103929.230000", "103930.430000", "103931.630000", "103932.830000", "103934.030000", "103935.230000", "103936.430000", "103937.630000", "103938.830000", "103940.030000", "103941.230000", "103942.430000", "103943.630000", "103944.830000", "103946.030000", "103947.230000", "103948.430000", "103949.630000", "103950.830000", "103952.030000", "103953.230000", "103954.430000", "103955.630000", "103956.830000", "103958.030000", "103959.230000", "104000.430000", "104001.630000", "104002.830000", "104004.030000", "104005.230000", "104006.430000", "104007.630000", "104008.830000", "104010.030000", "104011.230000", "104012.430000", "104013.630000", "104014.830000", "104016.030000", "104017.230000", "104018.430000", "104019.630000", "104020.830000", "104022.030000", "104023.230000", "104024.430000", "104025.630000", "104026.830000", "104028.030000", "104029.230000", "104030.430000", "104031.630000", "104032.830000", "104034.030000", "104035.230000", "104036.430000", "104037.630000", "104038.830000", "104040.030000", "104041.230000", "104042.430000", "104043.630000", "104044.830000", "104046.030000", "104047.230000", "104048.430000", "104049.630000", "104050.830000", "104052.030000", "104053.230000", "104054.430000", "104055.630000", "104056.830000", "104058.030000", "104059.230000", "104100.430000", "104101.630000", "104102.830000", "104104.030000", "104105.230000", "104106.430000", "104107.630000", "104108.830000", "104110.030000", "104111.230000", "104112.430000", "104113.630000", "104114.830000", "104116.030000", "104117.230000", "104118.430000", "104119.630000", "104120.830000", "104122.030000", "104123.230000", "104124.430000", "104125.630000", "104126.830000", "104128.030000", "104129.230000", "104130.430000", "104131.630000", "104132.830000", "104134.030000", "104135.230000", "104136.430000", "104137.630000", "104138.830000", "104140.030000", "104141.230000", "104142.430000", "104143.630000", "104144.830000", "104146.030000", "104147.230000", "104148.430000", "104149.630000", "104150.830000", "104152.030000", "104153.230000", "104154.430000", "104155.630000", "104156.830000", "104158.030000", "104159.230000", "104200.430000", "104201.630000", "104202.830000", "104204.030000", "104205.230000", "104206.430000", "104207.630000", "104208.830000", "104210.030000", "104211.230000", "104212.430000", "104213.630000", "104214.830000", "104216.030000", "104217.230000", "104218.430000", "104219.630000", "104220.830000", "104222.030000", "104223.230000", "104224.430000", "104225.630000", "104226.830000", "104228.030000", "104229.230000", "104230.430000", "104231.630000", "104232.830000", "104234.030000", "104235.230000", "104236.430000", "104237.630000", "104238.830000", "104240.030000", "104241.230000", "104242.430000", "104243.630000", "104244.830000", "104246.030000", "104247.230000", "104248.430000", "104249.630000", "104250.830000", "104252.030000", "104253.230000", "104254.430000", "104255.630000", "104256.830000", "104258.030000", "104259.230000", "104300.430000"],
      "ContentTime": ["103539.015000", "103539.019000", "103539.021000", "103539.024000", "103539.040000", "103539.042000", "103539.045000", "103539.048000", "103539.050000", "103539.053000", "103539.055000", "103539.064000", "103539.066000", "103539.069000", "103539.072000", "103539.074000", "103539.077000", "103539.088000", "103539.091000", "103539.094000", "103539.096000", "103539.099000", "103539.101000", "103619.009000", "103619.012000", "103619.015000", "103619.035000", "103619.038000", "103619.041000", "103619.043000", "103619.046000", "103619.048000", "103619.051000", "103619.053000", "103619.056000", "103619.059000", "103619.061000", "103619.064000", "103619.066000", "103619.069000", "103619.072000", "103619.074000", "103619.077000", "103619.079000", "103619.082000", "103619.085000", "103619.087000", "103619.090000", "103619.093000", "103619.105000", "103619.107000", "103619.110000", "103619.112000", "103619.115000", "103619.118000", "103619.120000", "103659.010000", "103659.013000", "103659.015000", "103659.018000", "103659.021000", "103659.023000", "103659.026000", "103659.028000", "103659.031000", "103659.034000", "103659.036000", "103659.039000", "103659.041000", "103659.044000", "103659.047000", "103659.049000", "103659.052000", "103659.054000", "103659.057000", "103659.060000", "103659.062000", "103659.065000", "103659.067000", "103659.070000", "103659.073000", "103659.075000", "103659.078000", "103659.080000", "103659.083000", "103659.086000", "103659.088000", "103659.091000", "103659.093000", "103719.010000", "103719.012000", "103719.015000", "103719.018000", "103719.020000", "103719.023000", "103719.025000", "103719.028000", "103719.031000", "103719.033000", "103719.036000", "103719.038000", "103719.041000", "103719.044000", "103719.046000", "103719.049000", "103719.052000", "103759.010000", "103759.013000", "103759.016000", "103759.019000", "103759.022000", "103759.024000", "103759.027000", "103759.030000", "103759.032000", "103759.035000", "103759.038000", "103759.040000", "103759.043000", "103759.046000", "103759.048000", "103759.051000", "103759.054000", "103759.056000", "103759.059000", "103759.062000", "103759.064000", "103759.067000", "103759.069000", "103759.072000", "103759.075000", "103759.077000", "103759.080000", "103759.083000", "103759.085000", "103759.088000", "103759.091000", "103759.093000", "103759.096000", "103839.010000", "103839.012000", "103839.027000", "103839.029000", "103839.032000", "103839.034000", "103839.037000", "103839.040000", "103839.042000", "103839.045000", "103839.048000", "103839.051000", "103839.053000", "103839.056000", "103839.059000", "103839.061000", "103839.064000", "103839.066000", "103839.069000", "103839.072000", "103839.074000", "103839.077000", "103839.080000", "103839.082000", "103839.085000", "103839.087000", "103839.090000", "103839.092000", "103839.095000", "103839.098000", "103839.100000", "103839.103000", "103839.106000", "103839.108000", "103919.009000", "103919.012000", "103919.015000", "103919.017000", "103919.020000", "103919.023000", "103919.025000", "103919.028000", "103919.031000", "103919.034000", "103919.036000", "103919.039000", "103919.041000", "103919.044000", "103919.047000", "103919.049000", "103919.052000", "103919.054000", "103919.057000", "103919.060000", "103919.062000", "103919.065000", "103919.067000", "103919.071000", "103919.073000", "103919.076000", "103919.078000", "103919.081000", "103919.084000", "103919.086000", "103919.089000", "103919.091000", "103919.094000", "103959.009000", "103959.012000", "103959.015000", "103959.017000", "103959.020000", "103959.023000", "103959.025000", "103959.028000", "103959.030000", "103959.033000", "103959.036000", "103959.038000", "103959.041000", "103959.052000", "103959.054000", "103959.057000", "103959.074000", "103959.077000", "103959.088000", "103959.091000", "103959.094000", "103959.096000", "103959.099000", "103959.102000", "103959.104000", "103959.107000", "103959.109000", "103959.112000", "103959.115000", "103959.117000", "103959.120000", "103959.122000", "103959.125000", "104039.011000", "104039.013000", "104039.016000", "104039.019000", "104039.021000", "104039.024000", "104039.026000", "104039.029000", "104039.031000", "104039.034000", "104039.037000", "104039.039000", "104039.042000", "104039.044000", "104039.047000", "104039.050000", "104039.052000", "104039.055000", "104039.058000", "104039.060000", "104039.063000", "104039.065000", "104039.068000", "104039.071000", "104039.073000", "104039.076000", "104039.078000", "104039.081000", "104039.083000", "104039.086000", "104039.088000", "104039.091000", "104039.094000", "104039.096000", "104119.009000", "104119.012000", "104119.015000", "104119.018000", "104119.020000", "104119.023000", "104119.025000", "104119.028000", "104119.031000", "104119.034000", "104119.036000", "104119.039000", "104119.042000", "104119.044000", "104119.047000", "104119.050000", "104119.052000", "104119.055000", "104119.057000", "104119.060000", "104119.063000", "104119.065000", "104119.068000", "104119.071000", "104119.073000", "104119.076000", "104119.078000", "104119.081000", "104119.084000", "104119.086000", "104119.089000", "104119.092000", "104119.094000", "104159.009000", "104159.012000", "104159.015000", "104159.018000", "104159.020000", "104159.023000", "104159.025000", "104159.028000", "104159.031000", "104159.033000", "104159.036000", "104159.039000", "104159.041000", "104159.044000", "104159.046000", "104159.049000", "104159.052000", "104159.054000", "104159.057000", "104159.059000", "104159.062000", "104159.065000", "104159.067000", "104159.070000", "104159.072000", "104159.075000", "104159.078000", "104159.080000", "104159.083000", "104159.085000", "104159.088000", "104159.091000", "104159.093000", "104239.011000", "104239.014000", "104239.016000", "104239.019000", "104239.022000", "104239.024000", "104239.032000", "104239.034000", "104239.037000", "104239.040000", "104239.042000", "104239.045000", "104239.048000", "104239.050000", "104239.053000", "104239.056000", "104239.058000", "104239.061000", "104239.064000", "104239.066000", "104239.069000", "104239.071000", "104239.074000", "104239.077000", "104239.079000", "104239.082000", "104239.084000", "104239.087000", "104239.090000", "104239.092000", "104239.095000", "104239.097000", "104239.100000", "104239.102000", "104301.796000", "104301.799000", "104301.802000", "104301.805000", "104301.807000", "104301.810000", "104301.813000", "104301.816000", "104301.818000", "104301.821000", "104301.824000", "104301.827000", "104301.829000", "104301.832000", "104301.835000", "104301.838000", "104301.840000", "104301.843000", "104301.846000"],
      "InstanceCreationTime": ["103539.015000", "103539.019000", "103539.021000", "103539.024000", "103539.040000", "103539.042000", "103539.045000", "103539.048000", "103539.050000", "103539.053000", "103539.055000", "103539.064000", "103539.066000", "103539.069000", "103539.072000", "103539.074000", "103539.077000", "103539.088000", "103539.091000", "103539.094000", "103539.096000", "103539.099000", "103539.101000", "103619.009000", "103619.012000", "103619.015000", "103619.035000", "103619.038000", "103619.041000", "103619.043000", "103619.046000", "103619.048000", "103619.051000", "103619.053000", "103619.056000", "103619.059000", "103619.061000", "103619.064000", "103619.066000", "103619.069000", "103619.072000", "103619.074000", "103619.077000", "103619.079000", "103619.082000", "103619.085000", "103619.087000", "103619.090000", "103619.093000", "103619.105000", "103619.107000", "103619.110000", "103619.112000", "103619.115000", "103619.118000", "103619.120000", "103659.010000", "103659.013000", "103659.015000", "103659.018000", "103659.021000", "103659.023000", "103659.026000", "103659.028000", "103659.031000", "103659.034000", "103659.036000", "103659.039000", "103659.041000", "103659.044000", "103659.047000", "103659.049000", "103659.052000", "103659.054000", "103659.057000", "103659.060000", "103659.062000", "103659.065000", "103659.067000", "103659.070000", "103659.073000", "103659.075000", "103659.078000", "103659.080000", "103659.083000", "103659.086000", "103659.088000", "103659.091000", "103659.093000", "103719.010000", "103719.012000", "103719.015000", "103719.018000", "103719.020000", "103719.023000", "103719.025000", "103719.028000", "103719.031000", "103719.033000", "103719.036000", "103719.038000", "103719.041000", "103719.044000", "103719.046000", "103719.049000", "103719.052000", "103759.010000", "103759.013000", "103759.016000", "103759.019000", "103759.022000", "103759.024000", "103759.027000", "103759.030000", "103759.032000", "103759.035000", "103759.038000", "103759.040000", "103759.043000", "103759.046000", "103759.048000", "103759.051000", "103759.054000", "103759.056000", "103759.059000", "103759.062000", "103759.064000", "103759.067000", "103759.069000", "103759.072000", "103759.075000", "103759.077000", "103759.080000", "103759.083000", "103759.085000", "103759.088000", "103759.091000", "103759.093000", "103759.096000", "103839.010000", "103839.012000", "103839.027000", "103839.029000", "103839.032000", "103839.034000", "103839.037000", "103839.040000", "103839.042000", "103839.045000", "103839.048000", "103839.051000", "103839.053000", "103839.056000", "103839.059000", "103839.061000", "103839.064000", "103839.066000", "103839.069000", "103839.072000", "103839.074000", "103839.077000", "103839.080000", "103839.082000", "103839.085000", "103839.087000", "103839.090000", "103839.092000", "103839.095000", "103839.098000", "103839.100000", "103839.103000", "103839.106000", "103839.108000", "103919.009000", "103919.012000", "103919.015000", "103919.017000", "103919.020000", "103919.023000", "103919.025000", "103919.028000", "103919.031000", "103919.034000", "103919.036000", "103919.039000", "103919.041000", "103919.044000", "103919.047000", "103919.049000", "103919.052000", "103919.054000", "103919.057000", "103919.060000", "103919.062000", "103919.065000", "103919.067000", "103919.071000", "103919.073000", "103919.076000", "103919.078000", "103919.081000", "103919.084000", "103919.086000", "103919.089000", "103919.091000", "103919.094000", "103959.009000", "103959.012000", "103959.015000", "103959.017000", "103959.020000", "103959.023000", "103959.025000", "103959.028000", "103959.030000", "103959.033000", "103959.036000", "103959.038000", "103959.041000", "103959.052000", "103959.054000", "103959.057000", "103959.074000", "103959.077000", "103959.088000", "103959.091000", "103959.094000", "103959.096000", "103959.099000", "103959.102000", "103959.104000", "103959.107000", "103959.109000", "103959.112000", "103959.115000", "103959.117000", "103959.120000", "103959.122000", "103959.125000", "104039.011000", "104039.013000", "104039.016000", "104039.019000", "104039.021000", "104039.024000", "104039.026000", "104039.029000", "104039.031000", "104039.034000", "104039.037000", "104039.039000", "104039.042000", "104039.044000", "104039.047000", "104039.050000", "104039.052000", "104039.055000", "104039.058000", "104039.060000", "104039.063000", "104039.065000", "104039.068000", "104039.071000", "104039.073000", "104039.076000", "104039.078000", "104039.081000", "104039.083000", "104039.086000", "104039.088000", "104039.091000", "104039.094000", "104039.096000", "104119.009000", "104119.012000", "104119.015000", "104119.018000", "104119.020000", "104119.023000", "104119.025000", "104119.028000", "104119.031000", "104119.034000", "104119.036000", "104119.039000", "104119.042000", "104119.044000", "104119.047000", "104119.050000", "104119.052000", "104119.055000", "104119.057000", "104119.060000", "104119.063000", "104119.065000", "104119.068000", "104119.071000", "104119.073000", "104119.076000", "104119.078000", "104119.081000", "104119.084000", "104119.086000", "104119.089000", "104119.092000", "104119.094000", "104159.009000", "104159.012000", "104159.015000", "104159.018000", "104159.020000", "104159.023000", "104159.025000", "104159.028000", "104159.031000", "104159.033000", "104159.036000", "104159.039000", "104159.041000", "104159.044000", "104159.046000", "104159.049000", "104159.052000", "104159.054000", "104159.057000", "104159.059000", "104159.062000", "104159.065000", "104159.067000", "104159.070000", "104159.072000", "104159.075000", "104159.078000", "104159.080000", "104159.083000", "104159.085000", "104159.088000", "104159.091000", "104159.093000", "104239.011000", "104239.014000", "104239.016000", "104239.019000", "104239.022000", "104239.024000", "104239.032000", "104239.034000", "104239.037000", "104239.040000", "104239.042000", "104239.045000", "104239.048000", "104239.050000", "104239.053000", "104239.056000", "104239.058000", "104239.061000", "104239.064000", "104239.066000", "104239.069000", "104239.071000", "104239.074000", "104239.077000", "104239.079000", "104239.082000", "104239.084000", "104239.087000", "104239.090000", "104239.092000", "104239.095000", "104239.097000", "104239.100000", "104239.102000", "104301.796000", "104301.799000", "104301.802000", "104301.805000", "104301.807000", "104301.810000", "104301.813000", "104301.816000", "104301.818000", "104301.821000", "104301.824000", "104301.827000", "104301.829000", "104301.832000", "104301.835000", "104301.838000", "104301.840000", "104301.843000", "104301.846000"],
      "InstanceNumber": [1, 2, 3, 4, 5, 6, 7, 8, 9, 10, 11, 12, 13, 14, 15, 16, 17, 18, 19, 20, 21, 22, 23, 24, 25, 26, 27, 28, 29, 30, 31, 32, 33, 34, 35, 36, 37, 38, 39, 40, 41, 42, 43, 44, 45, 46, 47, 48, 49, 50, 51, 52, 53, 54, 55, 56, 57, 58, 59, 60, 61, 62, 63, 64, 65, 66, 67, 68, 69, 70, 71, 72, 73, 74, 75, 76, 77, 78, 79, 80, 81, 82, 83, 84, 85, 86, 87, 88, 89, 90, 91, 92, 93, 94, 95, 96, 97, 98, 99, 100, 101, 102, 103, 104, 105, 106, 107, 108, 109, 110, 111, 112, 113, 114, 115, 116, 117, 118, 119, 120, 121, 122, 123, 124, 125, 126, 127, 128, 129, 130, 131, 132, 133, 134, 135, 136, 137, 138, 139, 140, 141, 142, 143, 144, 145, 146, 147, 148, 149, 150, 151, 152, 153, 154, 155, 156, 157, 158, 159, 160, 161, 162, 163, 164, 165, 166, 167, 168, 169, 170, 171, 172, 173, 174, 175, 176, 177, 178, 179, 180, 181, 182, 183, 184, 185, 186, 187, 188, 189, 190, 191, 192, 193, 194, 195, 196, 197, 198, 199, 200, 201, 202, 203, 204, 205, 206, 207, 208, 209, 210, 211, 212, 213, 214, 215, 216, 217, 218, 219, 220, 221, 222, 223, 224, 225, 226, 227, 228, 229, 230, 231, 232, 233, 234, 235, 236, 237, 238, 239, 240, 241, 242, 243, 244, 245, 246, 247, 248, 249, 250, 251, 252, 253, 254, 255, 256, 257, 258, 259, 260, 261, 262, 263, 264, 265, 266, 267, 268, 269, 270, 271, 272, 273, 274, 275, 276, 277, 278, 279, 280, 281, 282, 283, 284, 285, 286, 287, 288, 289, 290, 291, 292, 293, 294, 295, 296, 297, 298, 299, 300, 301, 302, 303, 304, 305, 306, 307, 308, 309, 310, 311, 312, 313, 314, 315, 316, 317, 318, 319, 320, 321, 322, 323, 324, 325, 326, 327, 328, 329, 330, 331, 332, 333, 334, 335, 336, 337, 338, 339, 340, 341, 342, 343, 344, 345, 346, 347, 348, 349, 350, 351, 352, 353, 354, 355, 356, 357, 358, 359, 360, 361, 362, 363, 364, 365, 366, 367, 368, 369, 370, 371, 372, 373, 374, 375, 376, 377, 378, 379, 380, 381, 382, 383, 384, 385, 386, 387, 388, 389, 390, 391, 392],
