{
  "AcquisitionMatrixPE": 88,
  "AcquisitionNumber": 1,
  "AcquisitionTime": "10:11:14.235000",
  "BandwidthPerPixelPhaseEncode": 19.592,
  "BaseResolution": 88,
  "BodyPartExamined": "BRAIN",
  "ConsistencyInfo": "N4_VE11C_LATEST_20160120",
  "ConversionSoftware": "dcm2niix",
  "ConversionSoftwareVersion": "v1.0.20190902",
  "DerivedVendorReportedEchoSpacing": 0.000580014,
  "DeviceSerialNumber": "67050",
  "DwellTime": 2.6e-06,
  "EchoTime": 0.033,
  "EchoTrainLength": 88,
  "EffectiveEchoSpacing": 0.000580014,
  "FlipAngle": 62,
  "ImageOrientationPatientDICOM": [0.991968, -0.040582, 0.119806, 0.046086, 0.997988, -0.0435323],
  "ImageType": [
    "ORIGINAL",
    "PRIMARY",
    "M",
    "ND",
    "MOSAIC"
],
  "ImagingFrequency": 123.25,
  "InPlanePhaseEncodingDirectionDICOM": "COL",
  "InstitutionAddress": "Olive_Street_60_Providence_RI_US_02912",
  "InstitutionName": "BROWN_UNIVERSITY_MRF",
  "InstitutionalDepartmentName": "Department",
  "MRAcquisitionType": "2D",
  "MagneticFieldStrength": 3,
  "Manufacturer": "Siemens",
  "ManufacturersModelName": "Prisma_fit",
  "Modality": "MR",
  "MultibandAccelerationFactor": 4,
  "PartialFourier": 1,
  "PatientPosition": "HFS",
  "PercentPhaseFOV": 100,
  "PhaseEncodingDirection": "j-",
  "PhaseEncodingSteps": 88,
  "PhaseResolution": 1,
  "PixelBandwidth": 2185,
  "ProcedureStepDescription": "ASHENHAV_1222",
  "ProtocolName": "func-bold_task-RDMcolor_run-02",
  "PulseSequenceDetails": "%SiemensSeq%_ep2d_bold",
  "ReceiveCoilActiveElements": "HC1-7;NC1",
  "ReceiveCoilName": "HeadNeck_64",
  "ReconMatrixPE": 88,
  "RefLinesPE": 8,
  "RepetitionTime": 1.2,
  "SAR": 0.0448937,
  "ScanOptions": "FS",
  "ScanningSequence": "EP",
  "SequenceName": "_epfid2d1_88",
  "SequenceVariant": "SK",
  "SeriesDescription": "func-bold_task-RDMcolor_run-02",
  "SeriesNumber": 10,
  "ShimSetting": [1754, -9132, 4447, 592, -215, -218, -40, 12],
  "SliceThickness": 2.4,
  "SliceTiming": [0.55, 0, 0.63, 0.08, 0.7075, 0.1575, 0.7875, 0.2375, 0.865, 0.315, 0.945, 0.3925, 1.0225, 0.4725, 1.1025, 0.55, 0, 0.63, 0.08, 0.7075, 0.1575, 0.7875, 0.2375, 0.865, 0.315, 0.945, 0.3925, 1.0225, 0.4725, 1.1025, 0.55, 0, 0.63, 0.08, 0.7075, 0.1575, 0.7875, 0.2375, 0.865, 0.315, 0.945, 0.3925, 1.0225, 0.4725, 1.1025, 0.55, 0, 0.63, 0.08, 0.7075, 0.1575, 0.7875, 0.2375, 0.865, 0.315, 0.945, 0.3925, 1.0225, 0.4725, 1.1025],
  "SoftwareVersions": "syngo_MR_E11",
  "SpacingBetweenSlices": 2.4,
  "StationName": "AWP67050",
  "TaskName": "RDMcolor",
  "TotalReadoutTime": 0.0504612,
  "TxRefAmp": 217.084,
  "dcmmeta_affine": [
    [-2.3784677982330322, 0.11050157994031906, 0.2827153503894806, 95.86100769042969],
    [0.0973045825958252, 2.392904281616211, -0.11688947677612305, -93.6602783203125],
    [0.28726133704185486, 0.10437847673892975, 2.3804221153259277, -68.33333587646484],
    [0.0, 0.0, 0.0, 1.0]
],
  "dcmmeta_reorient_transform": [
    [0.0, -1.0, 0.0, 87.0],
    [1.0, 0.0, 0.0, 0.0],
    [0.0, 0.0, 1.0, 0.0],
    [0.0, 0.0, 0.0, 1.0]
],
  "dcmmeta_shape": [88, 88, 60, 392],
  "dcmmeta_slice_dim": 2,
  "dcmmeta_version": 0.6,
  "global": {
    "const": {
      "AcquisitionMatrix": [88, 0, 0, 88],
      "AngioFlag": "N",
      "BitsAllocated": 16,
      "BitsStored": 12,
      "BodyPartExamined": "BRAIN",
      "Columns": 704,
      "DeidentificationMethodCodeSequence": [
        {
          "CodeMeaning": "XNAT DicomEdit 6 Script",
          "CodeValue": "3",
          "CodingSchemeDesignator": "XNAT",
          "CodingSchemeVersion": "1.0"}
],
      "EchoNumbers": 1,
      "EchoTime": 33.0,
      "EchoTrainLength": 88,
      "FlipAngle": 62.0,
      "HighBit": 11,
      "ImageOrientationPatient": [0.99196759010785, -0.0405820056992, 0.11980568012013, 0.04608596755381, 0.99798849003879, -0.0435322563707],
      "ImagePositionPatient": [-872.07718810915, -821.56706908689, -115.58032783942],
      "ImageType": [
        "ORIGINAL",
        "PRIMARY",
        "M",
        "ND",
        "MOSAIC"
],
      "ImagedNucleus": "1H",
      "ImagingFrequency": 123.250483,
      "InPlanePhaseEncodingDirection": "COL",
      "MRAcquisitionType": "2D",
      "MagneticFieldStrength": 3.0,
      "Manufacturer": "SIEMENS",
      "ManufacturerModelName": "Prisma_fit",
      "Modality": "MR",
      "NumberOfAverages": 1.0,
      "NumberOfPhaseEncodingSteps": 88,
      "PercentPhaseFieldOfView": 100.0,
      "PercentSampling": 100.0,
      "PerformedProcedureStepStartTime": "094920.742000",
      "PhotometricInterpretation": "MONOCHROME2",
      "PixelBandwidth": 2185.0,
      "PixelRepresentation": 0,
      "PixelSpacing": [2.3977272510529, 2.3977272510529],
      "ProtocolName": "func-bold_task-RDMcolor_run-02",
      "RepetitionTime": 1200.0,
      "Rows": 704,
      "SAR": 0.04489371860189,
      "SamplesPerPixel": 1,
      "ScanOptions": "FS",
      "ScanningSequence": "EP",
      "SequenceName": "*epfid2d1_88",
      "SequenceVariant": "SK",
      "SeriesDescription": "func-bold_task-RDMcolor_run-02",
      "SeriesNumber": 10,
      "SeriesTime": "101157.067000",
      "SliceLocation": -51.922037047307,
      "SliceThickness": 2.4000000953674,
      "SmallestImagePixelValue": 0,
      "SoftwareVersions": "syngo MR E11",
      "SpacingBetweenSlices": 2.4000000470758,
      "SpecificCharacterSet": "ISO_IR 100",
      "StudyID": "1",
      "StudyTime": "094920.527000",
      "TransmitCoilName": "Body",
      "VariableFlipAngleFlag": "N",
      "WindowCenterWidthExplanation": "Algo1",
      "dBdt": 0.0},
    "slices": {}
  },
  "time": {
    "samples": {
      "AcquisitionNumber": [1, 2, 3, 4, 5, 6, 7, 8, 9, 10, 11, 12, 13, 14, 15, 16, 17, 18, 19, 20, 21, 22, 23, 24, 25, 26, 27, 28, 29, 30, 31, 32, 33, 34, 35, 36, 37, 38, 39, 40, 41, 42, 43, 44, 45, 46, 47, 48, 49, 50, 51, 52, 53, 54, 55, 56, 57, 58, 59, 60, 61, 62, 63, 64, 65, 66, 67, 68, 69, 70, 71, 72, 73, 74, 75, 76, 77, 78, 79, 80, 81, 82, 83, 84, 85, 86, 87, 88, 89, 90, 91, 92, 93, 94, 95, 96, 97, 98, 99, 100, 101, 102, 103, 104, 105, 106, 107, 108, 109, 110, 111, 112, 113, 114, 115, 116, 117, 118, 119, 120, 121, 122, 123, 124, 125, 126, 127, 128, 129, 130, 131, 132, 133, 134, 135, 136, 137, 138, 139, 140, 141, 142, 143, 144, 145, 146, 147, 148, 149, 150, 151, 152, 153, 154, 155, 156, 157, 158, 159, 160, 161, 162, 163, 164, 165, 166, 167, 168, 169, 170, 171, 172, 173, 174, 175, 176, 177, 178, 179, 180, 181, 182, 183, 184, 185, 186, 187, 188, 189, 190, 191, 192, 193, 194, 195, 196, 197, 198, 199, 200, 201, 202, 203, 204, 205, 206, 207, 208, 209, 210, 211, 212, 213, 214, 215, 216, 217, 218, 219, 220, 221, 222, 223, 224, 225, 226, 227, 228, 229, 230, 231, 232, 233, 234, 235, 236, 237, 238, 239, 240, 241, 242, 243, 244, 245, 246, 247, 248, 249, 250, 251, 252, 253, 254, 255, 256, 257, 258, 259, 260, 261, 262, 263, 264, 265, 266, 267, 268, 269, 270, 271, 272, 273, 274, 275, 276, 277, 278, 279, 280, 281, 282, 283, 284, 285, 286, 287, 288, 289, 290, 291, 292, 293, 294, 295, 296, 297, 298, 299, 300, 301, 302, 303, 304, 305, 306, 307, 308, 309, 310, 311, 312, 313, 314, 315, 316, 317, 318, 319, 320, 321, 322, 323, 324, 325, 326, 327, 328, 329, 330, 331, 332, 333, 334, 335, 336, 337, 338, 339, 340, 341, 342, 343, 344, 345, 346, 347, 348, 349, 350, 351, 352, 353, 354, 355, 356, 357, 358, 359, 360, 361, 362, 363, 364, 365, 366, 367, 368, 369, 370, 371, 372, 373, 374, 375, 376, 377, 378, 379, 380, 381, 382, 383, 384, 385, 386, 387, 388, 389, 390, 391, 392],
      "AcquisitionTime": ["101114.235000", "101115.435000", "101116.635000", "101117.835000", "101119.035000", "101120.235000", "101121.435000", "101122.635000", "101123.835000", "101125.035000", "101126.235000", "101127.435000", "101128.635000", "101129.835000", "101131.035000", "101132.235000", "101133.435000", "101134.635000", "101135.835000", "101137.035000", "101138.235000", "101139.435000", "101140.635000", "101141.835000", "101143.035000", "101144.235000", "101145.435000", "101146.635000", "101147.835000", "101149.035000", "101150.235000", "101151.435000", "101152.635000", "101153.835000", "101155.035000", "101156.235000", "101157.435000", "101158.635000", "101159.835000", "101201.035000", "101202.235000", "101203.435000", "101204.635000", "101205.835000", "101207.035000", "101208.235000", "101209.435000", "101210.635000", "101211.835000", "101213.035000", "101214.235000", "101215.435000", "101216.635000", "101217.835000", "101219.035000", "101220.235000", "101221.435000", "101222.635000", "101223.835000", "101225.035000", "101226.235000", "101227.435000", "101228.635000", "101229.835000", "101231.035000", "101232.235000", "101233.435000", "101234.635000", "101235.835000", "101237.035000", "101238.235000", "101239.435000", "101240.635000", "101241.835000", "101243.035000", "101244.235000", "101245.435000", "101246.635000", "101247.835000", "101249.035000", "101250.235000", "101251.435000", "101252.635000", "101253.835000", "101255.035000", "101256.235000", "101257.435000", "101258.635000", "101259.835000", "101301.035000", "101302.235000", "101303.435000", "101304.635000", "101305.835000", "101307.035000", "101308.235000", "101309.435000", "101310.635000", "101311.835000", "101313.035000", "101314.235000", "101315.435000", "101316.635000", "101317.835000", "101319.035000", "101320.235000", "101321.435000", "101322.635000", "101323.835000", "101325.035000", "101326.235000", "101327.435000", "101328.635000", "101329.835000", "101331.035000", "101332.235000", "101333.435000", "101334.635000", "101335.835000", "101337.035000", "101338.235000", "101339.435000", "101340.635000", "101341.835000", "101343.035000", "101344.235000", "101345.435000", "101346.635000", "101347.835000", "101349.035000", "101350.235000", "101351.435000", "101352.635000", "101353.835000", "101355.035000", "101356.235000", "101357.435000", "101358.635000", "101359.835000", "101401.035000", "101402.235000", "101403.435000", "101404.635000", "101405.835000", "101407.035000", "101408.235000", "101409.435000", "101410.635000", "101411.835000", "101413.035000", "101414.235000", "101415.435000", "101416.635000", "101417.835000", "101419.035000", "101420.235000", "101421.435000", "101422.635000", "101423.835000", "101425.035000", "101426.235000", "101427.435000", "101428.635000", "101429.835000", "101431.035000", "101432.235000", "101433.435000", "101434.635000", "101435.835000", "101437.035000", "101438.235000", "101439.435000", "101440.635000", "101441.835000", "101443.035000", "101444.235000", "101445.435000", "101446.635000", "101447.835000", "101449.035000", "101450.235000", "101451.435000", "101452.635000", "101453.835000", "101455.035000", "101456.235000", "101457.435000", "101458.635000", "101459.835000", "101501.035000", "101502.235000", "101503.435000", "101504.635000", "101505.835000", "101507.035000", "101508.235000", "101509.435000", "101510.635000", "101511.835000", "101513.035000", "101514.235000", "101515.435000", "101516.635000", "101517.835000", "101519.035000", "101520.235000", "101521.435000", "101522.635000", "101523.835000", "101525.035000", "101526.235000", "101527.435000", "101528.635000", "101529.835000", "101531.035000", "101532.235000", "101533.435000", "101534.635000", "101535.835000", "101537.035000", "101538.235000", "101539.435000", "101540.635000", "101541.835000", "101543.035000", "101544.235000", "101545.435000", "101546.635000", "101547.835000", "101549.035000", "101550.235000", "101551.435000", "101552.635000", "101553.835000", "101555.035000", "101556.235000", "101557.435000", "101558.635000", "101559.835000", "101601.035000", "101602.235000", "101603.435000", "101604.635000", "101605.835000", "101607.035000", "101608.235000", "101609.435000", "101610.635000", "101611.835000", "101613.035000", "101614.235000", "101615.435000", "101616.635000", "101617.835000", "101619.035000", "101620.235000", "101621.435000", "101622.635000", "101623.835000", "101625.035000", "101626.235000", "101627.435000", "101628.635000", "101629.835000", "101631.035000", "101632.235000", "101633.435000", "101634.635000", "101635.835000", "101637.035000", "101638.235000", "101639.435000", "101640.635000", "101641.835000", "101643.035000", "101644.235000", "101645.435000", "101646.635000", "101647.835000", "101649.035000", "101650.235000", "101651.435000", "101652.635000", "101653.835000", "101655.035000", "101656.235000", "101657.435000", "101658.635000", "101659.835000", "101701.035000", "101702.235000", "101703.435000", "101704.635000", "101705.835000", "101707.035000", "101708.235000", "101709.435000", "101710.635000", "101711.835000", "101713.035000", "101714.235000", "101715.435000", "101716.635000", "101717.835000", "101719.035000", "101720.235000", "101721.435000", "101722.635000", "101723.835000", "101725.035000", "101726.235000", "101727.435000", "101728.635000", "101729.835000", "101731.035000", "101732.235000", "101733.435000", "101734.635000", "101735.835000", "101737.035000", "101738.235000", "101739.435000", "101740.635000", "101741.835000", "101743.035000", "101744.235000", "101745.435000", "101746.635000", "101747.835000", "101749.035000", "101750.235000", "101751.435000", "101752.635000", "101753.835000", "101755.035000", "101756.235000", "101757.435000", "101758.635000", "101759.835000", "101801.035000", "101802.235000", "101803.435000", "101804.635000", "101805.835000", "101807.035000", "101808.235000", "101809.435000", "101810.635000", "101811.835000", "101813.035000", "101814.235000", "101815.435000", "101816.635000", "101817.835000", "101819.035000", "101820.235000", "101821.435000", "101822.635000", "101823.835000", "101825.035000", "101826.235000", "101827.435000", "101828.635000", "101829.835000", "101831.035000", "101832.235000", "101833.435000", "101834.635000", "101835.835000", "101837.035000", "101838.235000", "101839.435000", "101840.635000", "101841.835000", "101843.035000", "101844.235000", "101845.435000", "101846.635000", "101847.835000", "101849.035000", "101850.235000", "101851.435000", "101852.635000", "101853.835000", "101855.035000", "101856.235000", "101857.435000", "101858.635000", "101859.835000", "101901.035000", "101902.235000", "101903.435000"],
      "ContentTime": ["101157.071000", "101157.074000", "101157.077000", "101157.080000", "101157.082000", "101157.085000", "101157.087000", "101157.090000", "101157.093000", "101157.106000", "101157.109000", "101157.111000", "101157.114000", "101157.117000", "101157.119000", "101157.122000", "101157.124000", "101157.127000", "101157.130000", "101157.132000", "101157.135000", "101157.137000", "101157.140000", "101157.142000", "101157.145000", "101157.148000", "101157.150000", "101157.153000", "101157.155000", "101157.158000", "101157.161000", "101157.163000", "101157.166000", "101157.169000", "101157.171000", "101237.067000", "101237.070000", "101237.073000", "101237.076000", "101237.078000", "101237.081000", "101237.083000", "101237.086000", "101237.089000", "101237.092000", "101237.094000", "101237.097000", "101237.099000", "101237.102000", "101237.105000", "101237.107000", "101237.110000", "101237.112000", "101237.115000", "101237.117000", "101237.120000", "101237.123000", "101237.125000", "101237.128000", "101237.130000", "101237.133000", "101237.136000", "101237.138000", "101237.141000", "101237.143000", "101237.146000", "101237.149000", "101237.151000", "101237.154000", "101317.066000", "101317.069000", "101317.072000", "101317.075000", "101317.077000", "101317.080000", "101317.082000", "101317.085000", "101317.087000", "101317.090000", "101317.093000", "101317.095000", "101317.098000", "101317.100000", "101317.103000", "101317.105000", "101317.108000", "101317.111000", "101317.113000", "101317.116000", "101317.118000", "101317.121000", "101317.124000", "101317.126000", "101317.134000", "101317.137000", "101317.139000", "101317.142000", "101317.144000", "101317.147000", "101317.150000", "101317.152000", "101317.155000", "101357.066000", "101357.069000", "101357.072000", "101357.075000", "101357.077000", "101357.089000", "101357.091000", "101357.094000", "101357.096000", "101357.100000", "101357.102000", "101357.105000", "101357.108000", "101357.110000", "101357.113000", "101357.115000", "101357.118000", "101357.121000", "101357.123000", "101357.126000", "101357.128000", "101357.131000", "101357.133000", "101357.136000", "101357.139000", "101357.141000", "101357.144000", "101357.146000", "101357.149000", "101357.152000", "101357.154000", "101357.157000", "101357.159000", "101437.066000", "101437.069000", "101437.072000", "101437.075000", "101437.077000", "101437.080000", "101437.082000", "101437.085000", "101437.088000", "101437.090000", "101437.093000", "101437.095000", "101437.098000", "101437.101000", "101437.103000", "101437.106000", "101437.108000", "101437.111000", "101437.114000", "101437.117000", "101437.119000", "101437.122000", "101437.141000", "101437.144000", "101437.146000", "101437.149000", "101437.151000", "101437.154000", "101437.157000", "101437.159000", "101437.162000", "101437.165000", "101437.167000", "101517.068000", "101517.070000", "101517.073000", "101517.076000", "101517.078000", "101517.081000", "101517.084000", "101517.086000", "101517.089000", "101517.092000", "101517.094000", "101517.097000", "101517.099000", "101517.102000", "101517.104000", "101517.107000", "101517.110000", "101517.112000", "101517.115000", "101517.118000", "101517.120000", "101517.123000", "101517.125000", "101517.128000", "101517.130000", "101517.133000", "101517.136000", "101517.138000", "101517.141000", "101517.143000", "101517.146000", "101517.149000", "101517.151000", "101517.154000", "101557.067000", "101557.070000", "101557.072000", "101557.075000", "101557.077000", "101557.080000", "101557.083000", "101557.085000", "101557.088000", "101557.091000", "101557.093000", "101557.096000", "101557.099000", "101557.102000", "101557.105000", "101557.107000", "101557.110000", "101557.113000", "101557.115000", "101557.118000", "101557.120000", "101557.123000", "101557.126000", "101557.128000", "101557.131000", "101557.134000", "101557.136000", "101557.139000", "101557.142000", "101557.144000", "101557.147000", "101557.149000", "101557.152000", "101637.067000", "101637.070000", "101637.072000", "101637.075000", "101637.077000", "101637.080000", "101637.083000", "101637.085000", "101637.088000", "101637.090000", "101637.093000", "101637.096000", "101637.098000", "101637.101000", "101637.104000", "101637.116000", "101637.119000", "101637.122000", "101637.124000", "101637.127000", "101637.130000", "101637.132000", "101637.135000", "101637.138000", "101637.140000", "101637.143000", "101637.145000", "101637.148000", "101637.151000", "101637.153000", "101637.156000", "101637.158000", "101637.161000", "101717.068000", "101717.070000", "101717.073000", "101717.076000", "101717.078000", "101717.081000", "101717.083000", "101717.086000", "101717.089000", "101717.091000", "101717.094000", "101717.096000", "101717.099000", "101717.102000", "101717.104000", "101717.107000", "101717.110000", "101717.112000", "101717.115000", "101717.117000", "101717.120000", "101717.123000", "101717.125000", "101717.128000", "101717.130000", "101717.133000", "101717.135000", "101717.138000", "101717.141000", "101717.143000", "101717.146000", "101717.148000", "101717.151000", "101717.154000", "101757.067000", "101757.069000", "101757.072000", "101757.075000", "101757.077000", "101757.080000", "101757.083000", "101757.085000", "101757.088000", "101757.091000", "101757.093000", "101757.096000", "101757.099000", "101757.102000", "101757.104000", "101757.107000", "101757.110000", "101757.113000", "101757.115000", "101757.118000", "101757.120000", "101757.123000", "101757.126000", "101757.128000", "101757.131000", "101757.133000", "101757.136000", "101757.139000", "101757.141000", "101757.144000", "101757.146000", "101757.149000", "101757.152000", "101837.067000", "101837.069000", "101837.072000", "101837.075000", "101837.077000", "101837.080000", "101837.083000", "101837.085000", "101837.088000", "101837.091000", "101837.093000", "101837.096000", "101837.099000", "101837.101000", "101837.104000", "101837.107000", "101837.109000", "101837.112000", "101837.115000", "101837.137000", "101837.140000", "101837.142000", "101837.145000", "101837.148000", "101837.150000", "101837.153000", "101837.155000", "101837.158000", "101837.161000", "101837.163000", "101837.166000", "101837.168000", "101837.171000", "101904.736000", "101904.739000", "101904.742000", "101904.744000", "101904.747000", "101904.750000", "101904.752000", "101904.755000", "101904.758000", "101904.760000", "101904.763000", "101904.766000", "101904.772000", "101904.774000", "101904.777000", "101904.780000", "101904.782000", "101904.785000", "101904.787000", "101904.790000", "101904.793000", "101904.795000", "101904.798000", "101904.819000"],
      "InstanceCreationTime": ["101157.071000", "101157.074000", "101157.077000", "101157.080000", "101157.082000", "101157.085000", "101157.087000", "101157.090000", "101157.093000", "101157.106000", "101157.109000", "101157.111000", "101157.114000", "101157.117000", "101157.119000", "101157.122000", "101157.124000", "101157.127000", "101157.130000", "101157.132000", "101157.135000", "101157.137000", "101157.140000", "101157.142000", "101157.145000", "101157.148000", "101157.150000", "101157.153000", "101157.155000", "101157.158000", "101157.161000", "101157.163000", "101157.166000", "101157.169000", "101157.171000", "101237.067000", "101237.070000", "101237.073000", "101237.076000", "101237.078000", "101237.081000", "101237.083000", "101237.086000", "101237.089000", "101237.092000", "101237.094000", "101237.097000", "101237.099000", "101237.102000", "101237.105000", "101237.107000", "101237.110000", "101237.112000", "101237.115000", "101237.117000", "101237.120000", "101237.123000", "101237.125000", "101237.128000", "101237.130000", "101237.133000", "101237.136000", "101237.138000", "101237.141000", "101237.143000", "101237.146000", "101237.149000", "101237.151000", "101237.154000", "101317.066000", "101317.069000", "101317.072000", "101317.075000", "101317.077000", "101317.080000", "101317.082000", "101317.085000", "101317.087000", "101317.090000", "101317.093000", "101317.095000", "101317.098000", "101317.100000", "101317.103000", "101317.105000", "101317.108000", "101317.111000", "101317.113000", "101317.116000", "101317.118000", "101317.121000", "101317.124000", "101317.126000", "101317.134000", "101317.137000", "101317.139000", "101317.142000", "101317.144000", "101317.147000", "101317.150000", "101317.152000", "101317.155000", "101357.066000", "101357.069000", "101357.072000", "101357.075000", "101357.077000", "101357.089000", "101357.091000", "101357.094000", "101357.096000", "101357.100000", "101357.102000", "101357.105000", "101357.108000", "101357.110000", "101357.113000", "101357.115000", "101357.118000", "101357.121000", "101357.123000", "101357.126000", "101357.128000", "101357.131000", "101357.133000", "101357.136000", "101357.139000", "101357.141000", "101357.144000", "101357.146000", "101357.149000", "101357.152000", "101357.154000", "101357.157000", "101357.159000", "101437.066000", "101437.069000", "101437.072000", "101437.075000", "101437.077000", "101437.080000", "101437.082000", "101437.085000", "101437.088000", "101437.090000", "101437.093000", "101437.095000", "101437.098000", "101437.101000", "101437.103000", "101437.106000", "101437.108000", "101437.111000", "101437.114000", "101437.117000", "101437.119000", "101437.122000", "101437.141000", "101437.144000", "101437.146000", "101437.149000", "101437.151000", "101437.154000", "101437.157000", "101437.159000", "101437.162000", "101437.165000", "101437.167000", "101517.068000", "101517.070000", "101517.073000", "101517.076000", "101517.078000", "101517.081000", "101517.084000", "101517.086000", "101517.089000", "101517.092000", "101517.094000", "101517.097000", "101517.099000", "101517.102000", "101517.104000", "101517.107000", "101517.110000", "101517.112000", "101517.115000", "101517.118000", "101517.120000", "101517.123000", "101517.125000", "101517.128000", "101517.130000", "101517.133000", "101517.136000", "101517.138000", "101517.141000", "101517.143000", "101517.146000", "101517.149000", "101517.151000", "101517.154000", "101557.067000", "101557.070000", "101557.072000", "101557.075000", "101557.077000", "101557.080000", "101557.083000", "101557.085000", "101557.088000", "101557.091000", "101557.093000", "101557.096000", "101557.099000", "101557.102000", "101557.105000", "101557.107000", "101557.110000", "101557.113000", "101557.115000", "101557.118000", "101557.120000", "101557.123000", "101557.126000", "101557.128000", "101557.131000", "101557.134000", "101557.136000", "101557.139000", "101557.142000", "101557.144000", "101557.147000", "101557.149000", "101557.152000", "101637.067000", "101637.070000", "101637.072000", "101637.075000", "101637.077000", "101637.080000", "101637.083000", "101637.085000", "101637.088000", "101637.090000", "101637.093000", "101637.096000", "101637.098000", "101637.101000", "101637.104000", "101637.116000", "101637.119000", "101637.122000", "101637.124000", "101637.127000", "101637.130000", "101637.132000", "101637.135000", "101637.138000", "101637.140000", "101637.143000", "101637.145000", "101637.148000", "101637.151000", "101637.153000", "101637.156000", "101637.158000", "101637.161000", "101717.068000", "101717.070000", "101717.073000", "101717.076000", "101717.078000", "101717.081000", "101717.083000", "101717.086000", "101717.089000", "101717.091000", "101717.094000", "101717.096000", "101717.099000", "101717.102000", "101717.104000", "101717.107000", "101717.110000", "101717.112000", "101717.115000", "101717.117000", "101717.120000", "101717.123000", "101717.125000", "101717.128000", "101717.130000", "101717.133000", "101717.135000", "101717.138000", "101717.141000", "101717.143000", "101717.146000", "101717.148000", "101717.151000", "101717.154000", "101757.067000", "101757.069000", "101757.072000", "101757.075000", "101757.077000", "101757.080000", "101757.083000", "101757.085000", "101757.088000", "101757.091000", "101757.093000", "101757.096000", "101757.099000", "101757.102000", "101757.104000", "101757.107000", "101757.110000", "101757.113000", "101757.115000", "101757.118000", "101757.120000", "101757.123000", "101757.126000", "101757.128000", "101757.131000", "101757.133000", "101757.136000", "101757.139000", "101757.141000", "101757.144000", "101757.146000", "101757.149000", "101757.152000", "101837.067000", "101837.069000", "101837.072000", "101837.075000", "101837.077000", "101837.080000", "101837.083000", "101837.085000", "101837.088000", "101837.091000", "101837.093000", "101837.096000", "101837.099000", "101837.101000", "101837.104000", "101837.107000", "101837.109000", "101837.112000", "101837.115000", "101837.137000", "101837.140000", "101837.142000", "101837.145000", "101837.148000", "101837.150000", "101837.153000", "101837.155000", "101837.158000", "101837.161000", "101837.163000", "101837.166000", "101837.168000", "101837.171000", "101904.736000", "101904.739000", "101904.742000", "101904.744000", "101904.747000", "101904.750000", "101904.752000", "101904.755000", "101904.758000", "101904.760000", "101904.763000", "101904.766000", "101904.772000", "101904.774000", "101904.777000", "101904.780000", "101904.782000", "101904.785000", "101904.787000", "101904.790000", "101904.793000", "101904.795000", "101904.798000", "101904.819000"],
      "InstanceNumber": [1, 2, 3, 4, 5, 6, 7, 8, 9, 10, 11, 12, 13, 14, 15, 16, 17, 18, 19, 20, 21, 22, 23, 24, 25, 26, 27, 28, 29, 30, 31, 32, 33, 34, 35, 36, 37, 38, 39, 40, 41, 42, 43, 44, 45, 46, 47, 48, 49, 50, 51, 52, 53, 54, 55, 56, 57, 58, 59, 60, 61, 62, 63, 64, 65, 66, 67, 68, 69, 70, 71, 72, 73, 74, 75, 76, 77, 78, 79, 80, 81, 82, 83, 84, 85, 86, 87, 88, 89, 90, 91, 92, 93, 94, 95, 96, 97, 98, 99, 100, 101, 102, 103, 104, 105, 106, 107, 108, 109, 110, 111, 112, 113, 114, 115, 116, 117, 118, 119, 120, 121, 122, 123, 124, 125, 126, 127, 128, 129, 130, 131, 132, 133, 134, 135, 136, 137, 138, 139, 140, 141, 142, 143, 144, 145, 146, 147, 148, 149, 150, 151, 152, 153, 154, 155, 156, 157, 158, 159, 160, 161, 162, 163, 164, 165, 166, 167, 168, 169, 170, 171, 172, 173, 174, 175, 176, 177, 178, 179, 180, 181, 182, 183, 184, 185, 186, 187, 188, 189, 190, 191, 192, 193, 194, 195, 196, 197, 198, 199, 200, 201, 202, 203, 204, 205, 206, 207, 208, 209, 210, 211, 212, 213, 214, 215, 216, 217, 218, 219, 220, 221, 222, 223, 224, 225, 226, 227, 228, 229, 230, 231, 232, 233, 234, 235, 236, 237, 238, 239, 240, 241, 242, 243, 244, 245, 246, 247, 248, 249, 250, 251, 252, 253, 254, 255, 256, 257, 258, 259, 260, 261, 262, 263, 264, 265, 266, 267, 268, 269, 270, 271, 272, 273, 274, 275, 276, 277, 278, 279, 280, 281, 282, 283, 284, 285, 286, 287, 288, 289, 290, 291, 292, 293, 294, 295, 296, 297, 298, 299, 300, 301, 302, 303, 304, 305, 306, 307, 308, 309, 310, 311, 312, 313, 314, 315, 316, 317, 318, 319, 320, 321, 322, 323, 324, 325, 326, 327, 328, 329, 330, 331, 332, 333, 334, 335, 336, 337, 338, 339, 340, 341, 342, 343, 344, 345, 346, 347, 348, 349, 350, 351, 352, 353, 354, 355, 356, 357, 358, 359, 360, 361, 362, 363, 364, 365, 366, 367, 368, 369, 370, 371, 372, 373, 374, 375, 376, 377, 378, 379, 380, 381, 382, 383, 384, 385, 386, 387, 388, 389, 390, 391, 392],
