{
  "AcquisitionMatrixPE": 88,
  "AcquisitionNumber": 1,
  "AcquisitionTime": "11:07:51.377500",
  "BandwidthPerPixelPhaseEncode": 19.592,
  "BaseResolution": 88,
  "BodyPartExamined": "BRAIN",
  "ConsistencyInfo": "N4_VE11C_LATEST_20160120",
  "ConversionSoftware": "dcm2niix",
  "ConversionSoftwareVersion": "v1.0.20190902",
  "DerivedVendorReportedEchoSpacing": 0.000580014,
  "DeviceSerialNumber": "67050",
  "DwellTime": 2.6e-06,
  "EchoTime": 0.033,
  "EchoTrainLength": 88,
  "EffectiveEchoSpacing": 0.000580014,
  "FlipAngle": 62,
  "ImageOrientationPatientDICOM": [0.991968, -0.040582, 0.119806, 0.046086, 0.997988, -0.0435323],
  "ImageType": [
    "ORIGINAL",
    "PRIMARY",
    "M",
    "ND",
    "MOSAIC"
],
  "ImagingFrequency": 123.251,
  "InPlanePhaseEncodingDirectionDICOM": "COL",
  "InstitutionAddress": "Olive_Street_60_Providence_RI_US_02912",
  "InstitutionName": "BROWN_UNIVERSITY_MRF",
  "InstitutionalDepartmentName": "Department",
  "MRAcquisitionType": "2D",
  "MagneticFieldStrength": 3,
  "Manufacturer": "Siemens",
  "ManufacturersModelName": "Prisma_fit",
  "Modality": "MR",
  "MultibandAccelerationFactor": 4,
  "PartialFourier": 1,
  "PatientPosition": "HFS",
  "PercentPhaseFOV": 100,
  "PhaseEncodingDirection": "j-",
  "PhaseEncodingSteps": 88,
  "PhaseResolution": 1,
  "PixelBandwidth": 2185,
  "ProcedureStepDescription": "ASHENHAV_1222",
  "ProtocolName": "func-bold_task-RDMlocalizer_run-01",
  "PulseSequenceDetails": "%SiemensSeq%_ep2d_bold",
  "ReceiveCoilActiveElements": "HC1-7;NC1",
  "ReceiveCoilName": "HeadNeck_64",
  "ReconMatrixPE": 88,
  "RefLinesPE": 8,
  "RepetitionTime": 1.2,
  "SAR": 0.0446741,
  "ScanOptions": "FS",
  "ScanningSequence": "EP",
  "SequenceName": "_epfid2d1_88",
  "SequenceVariant": "SK",
  "SeriesDescription": "func-bold_task-RDMlocalizer_run-01",
  "SeriesNumber": 19,
  "ShimSetting": [1754, -9132, 4447, 592, -215, -218, -40, 12],
  "SliceThickness": 2.4,
  "SliceTiming": [0.55, 0, 0.63, 0.0775, 0.7075, 0.1575, 0.7875, 0.235, 0.865, 0.315, 0.9425, 0.3925, 1.0225, 0.4725, 1.1, 0.55, 0, 0.63, 0.0775, 0.7075, 0.1575, 0.7875, 0.235, 0.865, 0.315, 0.9425, 0.3925, 1.0225, 0.4725, 1.1, 0.55, 0, 0.63, 0.0775, 0.7075, 0.1575, 0.7875, 0.235, 0.865, 0.315, 0.9425, 0.3925, 1.0225, 0.4725, 1.1, 0.55, 0, 0.63, 0.0775, 0.7075, 0.1575, 0.7875, 0.235, 0.865, 0.315, 0.9425, 0.3925, 1.0225, 0.4725, 1.1],
  "SoftwareVersions": "syngo_MR_E11",
  "SpacingBetweenSlices": 2.4,
  "StationName": "AWP67050",
  "TaskName": "RDMlocalizer",
  "TotalReadoutTime": 0.0504612,
  "TxRefAmp": 217.084,
  "dcmmeta_affine": [
    [-2.3784677982330322, 0.11050157994031906, 0.2827153503894806, 95.86100769042969],
    [0.0973045825958252, 2.392904281616211, -0.11688947677612305, -93.6602783203125],
    [0.28726133704185486, 0.10437847673892975, 2.3804221153259277, -68.33333587646484],
    [0.0, 0.0, 0.0, 1.0]
],
  "dcmmeta_reorient_transform": [
    [0.0, -1.0, 0.0, 87.0],
    [1.0, 0.0, 0.0, 0.0],
    [0.0, 0.0, 1.0, 0.0],
    [0.0, 0.0, 0.0, 1.0]
],
  "dcmmeta_shape": [88, 88, 60, 195],
  "dcmmeta_slice_dim": 2,
  "dcmmeta_version": 0.6,
  "global": {
    "const": {
      "AcquisitionMatrix": [88, 0, 0, 88],
      "AngioFlag": "N",
      "BitsAllocated": 16,
      "BitsStored": 12,
      "BodyPartExamined": "BRAIN",
      "Columns": 704,
      "DeidentificationMethodCodeSequence": [
        {
          "CodeMeaning": "XNAT DicomEdit 6 Script",
          "CodeValue": "3",
          "CodingSchemeDesignator": "XNAT",
          "CodingSchemeVersion": "1.0"}
],
      "EchoNumbers": 1,
      "EchoTime": 33.0,
      "EchoTrainLength": 88,
      "FlipAngle": 62.0,
      "HighBit": 11,
      "ImageOrientationPatient": [0.99196759010785, -0.0405820056992, 0.11980568012013, 0.04608596755381, 0.99798849003879, -0.0435322563707],
      "ImagePositionPatient": [-872.07718810915, -821.56706908689, -115.58032783942],
      "ImageType": [
        "ORIGINAL",
        "PRIMARY",
        "M",
        "ND",
        "MOSAIC"
],
      "ImagedNucleus": "1H",
      "ImagingFrequency": 123.250501,
      "InPlanePhaseEncodingDirection": "COL",
      "MRAcquisitionType": "2D",
      "MagneticFieldStrength": 3.0,
      "Manufacturer": "SIEMENS",
      "ManufacturerModelName": "Prisma_fit",
      "Modality": "MR",
      "NumberOfAverages": 1.0,
      "NumberOfPhaseEncodingSteps": 88,
      "PercentPhaseFieldOfView": 100.0,
      "PercentSampling": 100.0,
      "PerformedProcedureStepStartTime": "094920.742000",
      "PhotometricInterpretation": "MONOCHROME2",
      "PixelBandwidth": 2185.0,
      "PixelRepresentation": 0,
      "PixelSpacing": [2.3977272510529, 2.3977272510529],
      "ProtocolName": "func-bold_task-RDMlocalizer_run-01",
      "RepetitionTime": 1200.0,
      "Rows": 704,
      "SAR": 0.04467414438503,
      "SamplesPerPixel": 1,
      "ScanOptions": "FS",
      "ScanningSequence": "EP",
      "SequenceName": "*epfid2d1_88",
      "SequenceVariant": "SK",
      "SeriesDescription": "func-bold_task-RDMlocalizer_run-01",
      "SeriesNumber": 19,
      "SeriesTime": "110757.067000",
      "SliceLocation": -51.922037047307,
      "SliceThickness": 2.4000000953674,
      "SmallestImagePixelValue": 0,
      "SoftwareVersions": "syngo MR E11",
      "SpacingBetweenSlices": 2.4000000470758,
      "SpecificCharacterSet": "ISO_IR 100",
      "StudyID": "1",
      "StudyTime": "094920.527000",
      "TransmitCoilName": "Body",
      "VariableFlipAngleFlag": "N",
      "WindowCenterWidthExplanation": "Algo1",
      "dBdt": 0.0},
    "slices": {}
  },
  "time": {
    "samples": {
      "AcquisitionNumber": [1, 2, 3, 4, 5, 6, 7, 8, 9, 10, 11, 12, 13, 14, 15, 16, 17, 18, 19, 20, 21, 22, 23, 24, 25, 26, 27, 28, 29, 30, 31, 32, 33, 34, 35, 36, 37, 38, 39, 40, 41, 42, 43, 44, 45, 46, 47, 48, 49, 50, 51, 52, 53, 54, 55, 56, 57, 58, 59, 60, 61, 62, 63, 64, 65, 66, 67, 68, 69, 70, 71, 72, 73, 74, 75, 76, 77, 78, 79, 80, 81, 82, 83, 84, 85, 86, 87, 88, 89, 90, 91, 92, 93, 94, 95, 96, 97, 98, 99, 100, 101, 102, 103, 104, 105, 106, 107, 108, 109, 110, 111, 112, 113, 114, 115, 116, 117, 118, 119, 120, 121, 122, 123, 124, 125, 126, 127, 128, 129, 130, 131, 132, 133, 134, 135, 136, 137, 138, 139, 140, 141, 142, 143, 144, 145, 146, 147, 148, 149, 150, 151, 152, 153, 154, 155, 156, 157, 158, 159, 160, 161, 162, 163, 164, 165, 166, 167, 168, 169, 170, 171, 172, 173, 174, 175, 176, 177, 178, 179, 180, 181, 182, 183, 184, 185, 186, 187, 188, 189, 190, 191, 192, 193, 194, 195],
      "AcquisitionTime": ["110751.377500", "110752.577500", "110753.777500", "110754.977500", "110756.177500", "110757.377500", "110758.577500", "110759.777500", "110800.977500", "110802.177500", "110803.377500", "110804.577500", "110805.777500", "110806.977500", "110808.177500", "110809.377500", "110810.577500", "110811.777500", "110812.977500", "110814.177500", "110815.377500", "110816.577500", "110817.777500", "110818.977500", "110820.177500", "110821.377500", "110822.577500", "110823.777500", "110824.977500", "110826.177500", "110827.377500", "110828.577500", "110829.777500", "110830.977500", "110832.177500", "110833.377500", "110834.577500", "110835.777500", "110836.977500", "110838.177500", "110839.377500", "110840.577500", "110841.777500", "110842.977500", "110844.177500", "110845.377500", "110846.577500", "110847.777500", "110848.977500", "110850.177500", "110851.377500", "110852.577500", "110853.777500", "110854.977500", "110856.177500", "110857.377500", "110858.577500", "110859.777500", "110900.977500", "110902.177500", "110903.377500", "110904.577500", "110905.777500", "110906.977500", "110908.177500", "110909.377500", "110910.577500", "110911.777500", "110912.977500", "110914.177500", "110915.377500", "110916.577500", "110917.777500", "110918.977500", "110920.177500", "110921.377500", "110922.577500", "110923.777500", "110924.977500", "110926.177500", "110927.377500", "110928.577500", "110929.777500", "110930.977500", "110932.177500", "110933.377500", "110934.577500", "110935.777500", "110936.977500", "110938.177500", "110939.377500", "110940.577500", "110941.777500", "110942.977500", "110944.177500", "110945.377500", "110946.577500", "110947.777500", "110948.977500", "110950.177500", "110951.377500", "110952.577500", "110953.777500", "110954.977500", "110956.177500", "110957.377500", "110958.577500", "110959.777500", "111000.977500", "111002.177500", "111003.377500", "111004.577500", "111005.777500", "111006.977500", "111008.177500", "111009.377500", "111010.577500", "111011.777500", "111012.977500", "111014.177500", "111015.377500", "111016.577500", "111017.777500", "111018.977500", "111020.177500", "111021.377500", "111022.577500", "111023.777500", "111024.977500", "111026.177500", "111027.377500", "111028.577500", "111029.777500", "111030.977500", "111032.177500", "111033.377500", "111034.577500", "111035.777500", "111036.977500", "111038.177500", "111039.377500", "111040.577500", "111041.777500", "111042.977500", "111044.177500", "111045.377500", "111046.577500", "111047.777500", "111048.977500", "111050.177500", "111051.377500", "111052.577500", "111053.777500", "111054.977500", "111056.177500", "111057.377500", "111058.577500", "111059.777500", "111100.977500", "111102.177500", "111103.377500", "111104.577500", "111105.777500", "111106.977500", "111108.177500", "111109.377500", "111110.577500", "111111.777500", "111112.977500", "111114.177500", "111115.377500", "111116.577500", "111117.777500", "111118.977500", "111120.177500", "111121.377500", "111122.577500", "111123.777500", "111124.977500", "111126.177500", "111127.377500", "111128.577500", "111129.777500", "111130.977500", "111132.177500", "111133.377500", "111134.577500", "111135.777500", "111136.977500", "111138.177500", "111139.377500", "111140.577500", "111141.777500", "111142.977500", "111144.177500"],
      "ContentTime": ["110757.071000", "110757.074000", "110757.077000", "110757.079000", "110837.068000", "110837.070000", "110837.073000", "110837.075000", "110837.090000", "110837.093000", "110837.095000", "110837.098000", "110837.100000", "110837.103000", "110837.106000", "110837.108000", "110837.111000", "110837.113000", "110837.116000", "110837.119000", "110837.121000", "110837.124000", "110837.126000", "110837.129000", "110837.131000", "110837.134000", "110837.137000", "110837.139000", "110837.142000", "110837.144000", "110837.147000", "110837.149000", "110837.155000", "110837.158000", "110837.160000", "110837.163000", "110837.166000", "110917.066000", "110917.069000", "110917.072000", "110917.074000", "110917.077000", "110917.080000", "110917.082000", "110917.085000", "110917.088000", "110917.090000", "110917.093000", "110917.095000", "110917.098000", "110917.101000", "110917.103000", "110917.123000", "110917.126000", "110917.128000", "110917.131000", "110917.134000", "110917.136000", "110917.139000", "110917.141000", "110917.144000", "110917.146000", "110917.149000", "110917.151000", "110917.154000", "110917.157000", "110917.159000", "110917.162000", "110917.164000", "110917.167000", "110957.067000", "110957.069000", "110957.072000", "110957.075000", "110957.080000", "110957.082000", "110957.085000", "110957.088000", "110957.090000", "110957.093000", "110957.095000", "110957.098000", "110957.100000", "110957.103000", "110957.106000", "110957.108000", "110957.111000", "110957.113000", "110957.116000", "110957.118000", "110957.121000", "110957.124000", "110957.126000", "110957.129000", "110957.131000", "110957.134000", "110957.137000", "110957.139000", "110957.142000", "110957.144000", "110957.147000", "110957.150000", "110957.152000", "110957.155000", "111037.068000", "111037.070000", "111037.073000", "111037.076000", "111037.078000", "111037.081000", "111037.083000", "111037.086000", "111037.089000", "111037.091000", "111037.094000", "111037.096000", "111037.099000", "111037.102000", "111037.104000", "111037.107000", "111037.110000", "111037.112000", "111037.115000", "111037.117000", "111037.120000", "111037.122000", "111037.125000", "111037.127000", "111037.130000", "111037.144000", "111037.147000", "111037.150000", "111037.152000", "111037.155000", "111037.157000", "111037.160000", "111037.162000", "111117.067000", "111117.070000", "111117.072000", "111117.075000", "111117.077000", "111117.080000", "111117.082000", "111117.085000", "111117.088000", "111117.090000", "111117.093000", "111117.095000", "111117.098000", "111117.101000", "111117.103000", "111117.106000", "111117.108000", "111117.111000", "111117.113000", "111117.116000", "111117.119000", "111117.121000", "111117.124000", "111117.126000", "111117.129000", "111117.132000", "111117.134000", "111117.137000", "111117.140000", "111117.142000", "111117.145000", "111117.155000", "111117.157000", "111146.055000", "111146.058000", "111146.061000", "111146.064000", "111146.070000", "111146.073000", "111146.076000", "111146.079000", "111146.082000", "111146.085000", "111146.088000", "111146.090000", "111146.093000", "111146.096000", "111146.099000", "111146.101000", "111146.104000", "111146.107000", "111146.109000", "111146.112000", "111146.115000", "111146.117000", "111146.120000", "111146.123000", "111146.125000"],
      "InstanceCreationTime": ["110757.071000", "110757.074000", "110757.077000", "110757.079000", "110837.068000", "110837.070000", "110837.073000", "110837.075000", "110837.090000", "110837.093000", "110837.095000", "110837.098000", "110837.100000", "110837.103000", "110837.106000", "110837.108000", "110837.111000", "110837.113000", "110837.116000", "110837.119000", "110837.121000", "110837.124000", "110837.126000", "110837.129000", "110837.131000", "110837.134000", "110837.137000", "110837.139000", "110837.142000", "110837.144000", "110837.147000", "110837.149000", "110837.155000", "110837.158000", "110837.160000", "110837.163000", "110837.166000", "110917.066000", "110917.069000", "110917.072000", "110917.074000", "110917.077000", "110917.080000", "110917.082000", "110917.085000", "110917.088000", "110917.090000", "110917.093000", "110917.095000", "110917.098000", "110917.101000", "110917.103000", "110917.123000", "110917.126000", "110917.128000", "110917.131000", "110917.134000", "110917.136000", "110917.139000", "110917.141000", "110917.144000", "110917.146000", "110917.149000", "110917.151000", "110917.154000", "110917.157000", "110917.159000", "110917.162000", "110917.164000", "110917.167000", "110957.067000", "110957.069000", "110957.072000", "110957.075000", "110957.080000", "110957.082000", "110957.085000", "110957.088000", "110957.090000", "110957.093000", "110957.095000", "110957.098000", "110957.100000", "110957.103000", "110957.106000", "110957.108000", "110957.111000", "110957.113000", "110957.116000", "110957.118000", "110957.121000", "110957.124000", "110957.126000", "110957.129000", "110957.131000", "110957.134000", "110957.137000", "110957.139000", "110957.142000", "110957.144000", "110957.147000", "110957.150000", "110957.152000", "110957.155000", "111037.068000", "111037.070000", "111037.073000", "111037.076000", "111037.078000", "111037.081000", "111037.083000", "111037.086000", "111037.089000", "111037.091000", "111037.094000", "111037.096000", "111037.099000", "111037.102000", "111037.104000", "111037.107000", "111037.110000", "111037.112000", "111037.115000", "111037.117000", "111037.120000", "111037.122000", "111037.125000", "111037.127000", "111037.130000", "111037.144000", "111037.147000", "111037.150000", "111037.152000", "111037.155000", "111037.157000", "111037.160000", "111037.162000", "111117.067000", "111117.070000", "111117.072000", "111117.075000", "111117.077000", "111117.080000", "111117.082000", "111117.085000", "111117.088000", "111117.090000", "111117.093000", "111117.095000", "111117.098000", "111117.101000", "111117.103000", "111117.106000", "111117.108000", "111117.111000", "111117.113000", "111117.116000", "111117.119000", "111117.121000", "111117.124000", "111117.126000", "111117.129000", "111117.132000", "111117.134000", "111117.137000", "111117.140000", "111117.142000", "111117.145000", "111117.155000", "111117.157000", "111146.055000", "111146.058000", "111146.061000", "111146.064000", "111146.070000", "111146.073000", "111146.076000", "111146.079000", "111146.082000", "111146.085000", "111146.088000", "111146.090000", "111146.093000", "111146.096000", "111146.099000", "111146.101000", "111146.104000", "111146.107000", "111146.109000", "111146.112000", "111146.115000", "111146.117000", "111146.120000", "111146.123000", "111146.125000"],
      "InstanceNumber": [1, 2, 3, 4, 5, 6, 7, 8, 9, 10, 11, 12, 13, 14, 15, 16, 17, 18, 19, 20, 21, 22, 23, 24, 25, 26, 27, 28, 29, 30, 31, 32, 33, 34, 35, 36, 37, 38, 39, 40, 41, 42, 43, 44, 45, 46, 47, 48, 49, 50, 51, 52, 53, 54, 55, 56, 57, 58, 59, 60, 61, 62, 63, 64, 65, 66, 67, 68, 69, 70, 71, 72, 73, 74, 75, 76, 77, 78, 79, 80, 81, 82, 83, 84, 85, 86, 87, 88, 89, 90, 91, 92, 93, 94, 95, 96, 97, 98, 99, 100, 101, 102, 103, 104, 105, 106, 107, 108, 109, 110, 111, 112, 113, 114, 115, 116, 117, 118, 119, 120, 121, 122, 123, 124, 125, 126, 127, 128, 129, 130, 131, 132, 133, 134, 135, 136, 137, 138, 139, 140, 141, 142, 143, 144, 145, 146, 147, 148, 149, 150, 151, 152, 153, 154, 155, 156, 157, 158, 159, 160, 161, 162, 163, 164, 165, 166, 167, 168, 169, 170, 171, 172, 173, 174, 175, 176, 177, 178, 179, 180, 181, 182, 183, 184, 185, 186, 187, 188, 189, 190, 191, 192, 193, 194, 195],
      "LargestImagePixelValue": [1961, 1901, 1856, 1828, 1831, 1833, 1844, 1843, 1824, 1806, 1840, 1796, 1805, 1821, 1823, 1798, 1825, 1833, 1836, 1830, 1831, 1825, 1820, 1791, 1796, 1799, 1838, 1824, 1787, 1798, 1826, 1848, 1820, 1814, 1807, 1798, 1832, 1830, 1834, 1827, 1830, 1816, 1808, 1803, 1801, 1809, 1800, 1825, 1804, 1796, 1826, 1823, 1815, 1808, 1788, 1797, 1815, 1817, 1848, 1800, 1797, 1801, 1842, 1818, 1825, 1832, 1837, 1817, 1840, 1842, 1829, 1823, 1827, 1830, 1850, 1802, 1800, 1790, 1818, 1823, 1824, 1879, 1819, 1835, 1839, 1865, 1866, 1870, 1855, 1819, 1837, 1865, 1865, 1818, 1833, 1832, 1854, 1858, 1827, 1828, 1835, 1854, 1838, 1839, 1825, 1845, 1815, 1834, 1851, 1855, 1860, 1878, 1893, 1898, 1831, 1851, 1840, 1877, 1853, 1855, 1852, 1861, 1846, 1859, 1870, 1856, 1894, 1816, 1840, 1877, 1876, 1870, 1827, 1846, 1833, 1839, 1852, 1821, 1796, 1805, 1810, 1829, 1811, 1824, 1829, 1804, 1808, 1821, 1822, 1824, 1803, 1812, 1819, 1821, 1821, 1817, 1810, 1840, 1833, 1833, 1841, 1822, 1797, 1806, 1849, 1840, 1818, 1851, 1805, 1818, 1817, 1845, 1894, 1875, 1881, 1852, 1827, 1847, 1860, 1846, 1870, 1808, 1830, 1794, 1825, 1887, 1838, 1855, 1853, 1849, 1825, 1814, 1822, 1825, 1809],
      "WindowCenter": [607.0, 603.0, 601.0, 600.0, 599.0, 599.0, 600.0, 600.0, 599.0, 600.0, 601.0, 601.0, 600.0, 601.0, 600.0, 598.0, 598.0, 598.0, 599.0, 600.0, 600.0, 597.0, 596.0, 595.0, 595.0, 595.0, 596.0, 596.0, 594.0, 594.0, 595.0, 597.0, 599.0, 598.0, 596.0, 596.0, 596.0, 596.0, 595.0, 595.0, 596.0, 595.0, 595.0, 595.0, 597.0, 597.0, 596.0, 596.0, 596.0, 596.0, 596.0, 597.0, 599.0, 597.0, 597.0, 597.0, 597.0, 598.0, 598.0, 597.0, 598.0, 598.0, 598.0, 598.0, 599.0, 600.0, 600.0, 599.0, 600.0, 599.0, 598.0, 598.0, 599.0, 600.0, 599.0, 598.0, 598.0, 598.0, 598.0, 598.0, 599.0, 600.0, 599.0, 599.0, 601.0, 602.0, 600.0, 600.0, 600.0, 599.0, 599.0, 598.0, 597.0, 596.0, 597.0, 597.0, 598.0, 599.0, 598.0, 599.0, 599.0, 600.0, 600.0, 598.0, 597.0, 598.0, 598.0, 598.0, 598.0, 597.0, 599.0, 599.0, 598.0, 597.0, 597.0, 599.0, 600.0, 600.0, 598.0, 597.0, 597.0, 597.0, 597.0, 598.0, 598.0, 596.0, 597.0, 597.0, 598.0, 599.0, 597.0, 597.0, 597.0, 598.0, 600.0, 601.0, 600.0, 598.0, 597.0, 596.0, 595.0, 595.0, 595.0, 596.0, 597.0, 598.0, 597.0, 598.0, 599.0, 601.0, 599.0, 599.0, 599.0, 599.0, 599.0, 600.0, 599.0, 598.0, 597.0, 597.0, 596.0, 596.0, 596.0, 597.0, 597.0, 598.0, 598.0, 598.0, 597.0, 598.0, 598.0, 599.0, 601.0, 601.0, 601.0, 599.0, 598.0, 598.0, 597.0, 595.0, 596.0, 595.0, 595.0, 592.0, 593.0, 596.0, 595.0, 595.0, 596.0, 598.0, 597.0, 596.0, 596.0, 596.0, 596.0],
      "WindowWidth": [1290.0, 1281.0, 1276.0, 1273.0, 1271.0, 1271.0, 1272.0, 1273.0, 1272.0, 1273.0, 1276.0, 1275.0, 1274.0, 1276.0, 1273.0, 1269.0, 1269.0, 1269.0, 1271.0, 1274.0, 1272.0, 1267.0, 1265.0, 1263.0, 1263.0, 1262.0, 1264.0, 1263.0, 1260.0, 1260.0, 1262.0, 1266.0, 1270.0, 1268.0, 1265.0, 1264.0, 1264.0, 1263.0, 1261.0, 1263.0, 1263.0, 1261.0, 1261.0, 1263.0, 1266.0, 1266.0, 1264.0, 1264.0, 1264.0, 1264.0, 1265.0, 1266.0, 1270.0, 1267.0, 1266.0, 1266.0, 1267.0, 1268.0, 1268.0, 1267.0, 1269.0, 1269.0, 1270.0, 1269.0, 1270.0, 1272.0, 1272.0, 1270.0, 1272.0, 1271.0, 1269.0, 1268.0, 1270.0, 1272.0, 1271.0, 1268.0, 1268.0, 1269.0, 1269.0, 1269.0, 1270.0, 1274.0, 1270.0, 1272.0, 1275.0, 1276.0, 1273.0, 1273.0, 1272.0, 1271.0, 1270.0, 1269.0, 1266.0, 1264.0, 1265.0, 1266.0, 1268.0, 1269.0, 1270.0, 1270.0, 1271.0, 1272.0, 1272.0, 1269.0, 1266.0, 1268.0, 1269.0, 1269.0, 1267.0, 1266.0, 1270.0, 1269.0, 1267.0, 1266.0, 1265.0, 1269.0, 1272.0, 1273.0, 1268.0, 1266.0, 1266.0, 1266.0, 1267.0, 1269.0, 1268.0, 1265.0, 1266.0, 1266.0, 1269.0, 1270.0, 1267.0, 1266.0, 1267.0, 1269.0, 1274.0, 1275.0, 1272.0, 1268.0, 1266.0, 1263.0, 1262.0, 1261.0, 1262.0, 1264.0, 1268.0, 1268.0, 1267.0, 1269.0, 1271.0, 1276.0, 1272.0, 1270.0, 1270.0, 1271.0, 1271.0, 1273.0, 1271.0, 1268.0, 1266.0, 1265.0, 1264.0, 1264.0, 1264.0, 1266.0, 1267.0, 1268.0, 1269.0, 1268.0, 1265.0, 1268.0, 1269.0, 1272.0, 1276.0, 1276.0, 1275.0, 1271.0, 1268.0, 1268.0, 1267.0, 1263.0, 1263.0, 1262.0, 1261.0, 1256.0, 1258.0, 1264.0, 1262.0, 1262.0, 1265.0, 1268.0, 1267.0, 1265.0, 1263.0, 1264.0, 1265.0]
    },
    "slices": {}
  }
}