{
  "AcquisitionMatrixPE": 88,
  "AcquisitionNumber": 1,
  "AcquisitionTime": "10:43:46.747500",
  "BandwidthPerPixelPhaseEncode": 19.592,
  "BaseResolution": 88,
  "BodyPartExamined": "BRAIN",
  "ConsistencyInfo": "N4_VE11C_LATEST_20160120",
  "ConversionSoftware": "dcm2niix",
  "ConversionSoftwareVersion": "v1.0.20190902",
  "DerivedVendorReportedEchoSpacing": 0.000580014,
  "DeviceSerialNumber": "67050",
  "DwellTime": 2.6e-06,
  "EchoTime": 0.033,
  "EchoTrainLength": 88,
  "EffectiveEchoSpacing": 0.000580014,
  "FlipAngle": 62,
  "ImageOrientationPatientDICOM": [0.991968, -0.040582, 0.119806, 0.046086, 0.997988, -0.0435323],
  "ImageType": [
    "ORIGINAL",
    "PRIMARY",
    "M",
    "ND",
    "MOSAIC"
],
  "ImagingFrequency": 123.25,
  "InPlanePhaseEncodingDirectionDICOM": "COL",
  "InstitutionAddress": "Olive_Street_60_Providence_RI_US_02912",
  "InstitutionName": "BROWN_UNIVERSITY_MRF",
  "InstitutionalDepartmentName": "Department",
  "MRAcquisitionType": "2D",
  "MagneticFieldStrength": 3,
  "Manufacturer": "Siemens",
  "ManufacturersModelName": "Prisma_fit",
  "Modality": "MR",
  "MultibandAccelerationFactor": 4,
  "PartialFourier": 1,
  "PatientPosition": "HFS",
  "PercentPhaseFOV": 100,
  "PhaseEncodingDirection": "j-",
  "PhaseEncodingSteps": 88,
  "PhaseResolution": 1,
  "PixelBandwidth": 2185,
  "ProcedureStepDescription": "ASHENHAV_1222",
  "ProtocolName": "func-bold_task-RDMmotion_run-05",
  "PulseSequenceDetails": "%SiemensSeq%_ep2d_bold",
  "ReceiveCoilActiveElements": "HC1-7;NC1",
  "ReceiveCoilName": "HeadNeck_64",
  "ReconMatrixPE": 88,
  "RefLinesPE": 8,
  "RepetitionTime": 1.2,
  "SAR": 0.044438,
  "ScanOptions": "FS",
  "ScanningSequence": "EP",
  "SequenceName": "_epfid2d1_88",
  "SequenceVariant": "SK",
  "SeriesDescription": "func-bold_task-RDMmotion_run-05",
  "SeriesNumber": 15,
  "ShimSetting": [1754, -9132, 4447, 592, -215, -218, -40, 12],
  "SliceThickness": 2.4,
  "SliceTiming": [0.55, 0, 0.6275, 0.0775, 0.7075, 0.1575, 0.785, 0.235, 0.865, 0.3125, 0.9425, 0.3925, 1.0225, 0.47, 1.1, 0.55, 0, 0.6275, 0.0775, 0.7075, 0.1575, 0.785, 0.235, 0.865, 0.3125, 0.9425, 0.3925, 1.0225, 0.47, 1.1, 0.55, 0, 0.6275, 0.0775, 0.7075, 0.1575, 0.785, 0.235, 0.865, 0.3125, 0.9425, 0.3925, 1.0225, 0.47, 1.1, 0.55, 0, 0.6275, 0.0775, 0.7075, 0.1575, 0.785, 0.235, 0.865, 0.3125, 0.9425, 0.3925, 1.0225, 0.47, 1.1],
  "SoftwareVersions": "syngo_MR_E11",
  "SpacingBetweenSlices": 2.4,
  "StationName": "AWP67050",
  "TaskName": "RDMmotion",
  "TotalReadoutTime": 0.0504612,
  "TxRefAmp": 217.084,
  "dcmmeta_affine": [
    [-2.3784677982330322, 0.11050157994031906, 0.2827153503894806, 95.86100769042969],
    [0.0973045825958252, 2.392904281616211, -0.11688947677612305, -93.6602783203125],
    [0.28726133704185486, 0.10437847673892975, 2.3804221153259277, -68.33333587646484],
    [0.0, 0.0, 0.0, 1.0]
],
  "dcmmeta_reorient_transform": [
    [0.0, -1.0, 0.0, 87.0],
    [1.0, 0.0, 0.0, 0.0],
    [0.0, 0.0, 1.0, 0.0],
    [0.0, 0.0, 0.0, 1.0]
],
  "dcmmeta_shape": [88, 88, 60, 125],
  "dcmmeta_slice_dim": 2,
  "dcmmeta_version": 0.6,
  "global": {
    "const": {
      "AcquisitionMatrix": [88, 0, 0, 88],
      "AngioFlag": "N",
      "BitsAllocated": 16,
      "BitsStored": 12,
      "BodyPartExamined": "BRAIN",
      "Columns": 704,
      "DeidentificationMethodCodeSequence": [
        {
          "CodeMeaning": "XNAT DicomEdit 6 Script",
          "CodeValue": "3",
          "CodingSchemeDesignator": "XNAT",
          "CodingSchemeVersion": "1.0"}
],
      "EchoNumbers": 1,
      "EchoTime": 33.0,
      "EchoTrainLength": 88,
      "FlipAngle": 62.0,
      "HighBit": 11,
      "ImageOrientationPatient": [0.99196759010785, -0.0405820056992, 0.11980568012013, 0.04608596755381, 0.99798849003879, -0.0435322563707],
      "ImagePositionPatient": [-872.07718810915, -821.56706908689, -115.58032783942],
      "ImageType": [
        "ORIGINAL",
        "PRIMARY",
        "M",
        "ND",
        "MOSAIC"
],
      "ImagedNucleus": "1H",
      "ImagingFrequency": 123.250496,
      "InPlanePhaseEncodingDirection": "COL",
      "MRAcquisitionType": "2D",
      "MagneticFieldStrength": 3.0,
      "Manufacturer": "SIEMENS",
      "ManufacturerModelName": "Prisma_fit",
      "Modality": "MR",
      "NumberOfAverages": 1.0,
      "NumberOfPhaseEncodingSteps": 88,
      "PercentPhaseFieldOfView": 100.0,
      "PercentSampling": 100.0,
      "PerformedProcedureStepStartTime": "094920.742000",
      "PhotometricInterpretation": "MONOCHROME2",
      "PixelBandwidth": 2185.0,
      "PixelRepresentation": 0,
      "PixelSpacing": [2.3977272510529, 2.3977272510529],
      "ProtocolName": "func-bold_task-RDMmotion_run-05",
      "RepetitionTime": 1200.0,
      "Rows": 704,
      "SAR": 0.04443803117119,
      "SamplesPerPixel": 1,
      "ScanOptions": "FS",
      "ScanningSequence": "EP",
      "SequenceName": "*epfid2d1_88",
      "SequenceVariant": "SK",
      "SeriesDescription": "func-bold_task-RDMmotion_run-05",
      "SeriesNumber": 15,
      "SeriesTime": "104420.275000",
      "SliceLocation": -51.922037047307,
      "SliceThickness": 2.4000000953674,
      "SmallestImagePixelValue": 0,
      "SoftwareVersions": "syngo MR E11",
      "SpacingBetweenSlices": 2.4000000470758,
      "SpecificCharacterSet": "ISO_IR 100",
      "StudyID": "1",
      "StudyTime": "094920.527000",
      "TransmitCoilName": "Body",
      "VariableFlipAngleFlag": "N",
      "WindowCenterWidthExplanation": "Algo1",
      "dBdt": 0.0},
    "slices": {}
  },
  "time": {
    "samples": {
      "AcquisitionNumber": [1, 2, 3, 4, 5, 6, 7, 8, 9, 10, 11, 12, 13, 14, 15, 16, 17, 18, 19, 20, 21, 22, 23, 24, 25, 26, 27, 28, 29, 30, 31, 32, 33, 34, 35, 36, 37, 38, 39, 40, 41, 42, 43, 44, 45, 46, 47, 48, 49, 50, 51, 52, 53, 54, 55, 56, 57, 58, 59, 60, 61, 62, 63, 64, 65, 66, 67, 68, 69, 70, 71, 72, 73, 74, 75, 76, 77, 78, 79, 80, 81, 82, 83, 84, 85, 86, 87, 88, 89, 90, 91, 92, 93, 94, 95, 96, 97, 98, 99, 100, 101, 102, 103, 104, 105, 106, 107, 108, 109, 110, 111, 112, 113, 114, 115, 116, 117, 118, 119, 120, 121, 122, 123, 124, 125],
      "AcquisitionTime": ["104346.747500", "104347.947500", "104349.147500", "104350.347500", "104351.547500", "104352.747500", "104353.947500", "104355.147500", "104356.347500", "104357.547500", "104358.747500", "104359.947500", "104401.147500", "104402.347500", "104403.547500", "104404.747500", "104405.947500", "104407.147500", "104408.347500", "104409.547500", "104410.747500", "104411.947500", "104413.147500", "104414.347500", "104415.547500", "104416.747500", "104417.947500", "104419.147500", "104420.347500", "104421.547500", "104422.747500", "104423.947500", "104425.147500", "104426.347500", "104427.547500", "104428.747500", "104429.947500", "104431.147500", "104432.347500", "104433.547500", "104434.747500", "104435.947500", "104437.147500", "104438.347500", "104439.547500", "104440.747500", "104441.947500", "104443.147500", "104444.347500", "104445.547500", "104446.747500", "104447.947500", "104449.147500", "104450.347500", "104451.547500", "104452.747500", "104453.947500", "104455.147500", "104456.347500", "104457.547500", "104458.747500", "104459.947500", "104501.147500", "104502.347500", "104503.547500", "104504.747500", "104505.947500", "104507.147500", "104508.347500", "104509.547500", "104510.747500", "104511.947500", "104513.147500", "104514.347500", "104515.547500", "104516.747500", "104517.947500", "104519.147500", "104520.347500", "104521.547500", "104522.747500", "104523.947500", "104525.147500", "104526.347500", "104527.547500", "104528.747500", "104529.947500", "104531.147500", "104532.347500", "104533.547500", "104534.747500", "104535.947500", "104537.147500", "104538.347500", "104539.547500", "104540.747500", "104541.947500", "104543.147500", "104544.347500", "104545.547500", "104546.747500", "104547.947500", "104549.147500", "104550.347500", "104551.547500", "104552.747500", "104553.947500", "104555.147500", "104556.347500", "104557.547500", "104558.747500", "104559.947500", "104601.147500", "104602.347500", "104603.547500", "104604.747500", "104605.947500", "104607.147500", "104608.347500", "104609.547500", "104610.747500", "104611.947500", "104613.147500", "104614.347500", "104615.547500"],
      "ContentTime": ["104420.279000", "104420.282000", "104420.285000", "104420.287000", "104420.290000", "104420.292000", "104420.302000", "104420.305000", "104420.315000", "104420.318000", "104420.320000", "104420.323000", "104420.326000", "104420.329000", "104420.331000", "104420.334000", "104420.336000", "104420.339000", "104420.342000", "104420.344000", "104420.347000", "104420.349000", "104420.352000", "104420.354000", "104420.357000", "104420.360000", "104420.362000", "104500.275000", "104500.278000", "104500.281000", "104500.284000", "104500.286000", "104500.289000", "104500.291000", "104500.294000", "104500.297000", "104500.299000", "104500.302000", "104500.304000", "104500.307000", "104500.312000", "104500.314000", "104500.317000", "104500.319000", "104500.322000", "104500.325000", "104500.327000", "104500.330000", "104500.333000", "104500.335000", "104500.338000", "104500.340000", "104500.343000", "104500.346000", "104500.348000", "104500.351000", "104500.353000", "104500.356000", "104500.359000", "104500.362000", "104500.364000", "104540.274000", "104540.277000", "104540.280000", "104540.282000", "104540.285000", "104540.287000", "104540.290000", "104540.292000", "104540.295000", "104540.297000", "104540.300000", "104540.303000", "104540.305000", "104540.308000", "104540.310000", "104540.313000", "104540.323000", "104540.325000", "104540.328000", "104540.330000", "104540.333000", "104540.336000", "104540.338000", "104540.341000", "104540.343000", "104540.346000", "104540.348000", "104540.351000", "104540.354000", "104540.356000", "104540.359000", "104540.361000", "104540.364000", "104616.959000", "104616.962000", "104616.964000", "104616.967000", "104616.969000", "104616.972000", "104616.975000", "104616.977000", "104616.980000", "104616.989000", "104616.992000", "104616.995000", "104616.997000", "104617.001000", "104617.003000", "104617.006000", "104617.009000", "104617.011000", "104617.014000", "104617.016000", "104617.019000", "104617.021000", "104617.024000", "104617.027000", "104617.029000", "104617.032000", "104617.034000", "104617.037000", "104617.039000", "104617.042000", "104617.045000"],
      "InstanceCreationTime": ["104420.279000", "104420.282000", "104420.285000", "104420.287000", "104420.290000", "104420.292000", "104420.302000", "104420.305000", "104420.315000", "104420.318000", "104420.320000", "104420.323000", "104420.326000", "104420.329000", "104420.331000", "104420.334000", "104420.336000", "104420.339000", "104420.342000", "104420.344000", "104420.347000", "104420.349000", "104420.352000", "104420.354000", "104420.357000", "104420.360000", "104420.362000", "104500.275000", "104500.278000", "104500.281000", "104500.284000", "104500.286000", "104500.289000", "104500.291000", "104500.294000", "104500.297000", "104500.299000", "104500.302000", "104500.304000", "104500.307000", "104500.312000", "104500.314000", "104500.317000", "104500.319000", "104500.322000", "104500.325000", "104500.327000", "104500.330000", "104500.333000", "104500.335000", "104500.338000", "104500.340000", "104500.343000", "104500.346000", "104500.348000", "104500.351000", "104500.353000", "104500.356000", "104500.359000", "104500.362000", "104500.364000", "104540.274000", "104540.277000", "104540.280000", "104540.282000", "104540.285000", "104540.287000", "104540.290000", "104540.292000", "104540.295000", "104540.297000", "104540.300000", "104540.303000", "104540.305000", "104540.308000", "104540.310000", "104540.313000", "104540.323000", "104540.325000", "104540.328000", "104540.330000", "104540.333000", "104540.336000", "104540.338000", "104540.341000", "104540.343000", "104540.346000", "104540.348000", "104540.351000", "104540.354000", "104540.356000", "104540.359000", "104540.361000", "104540.364000", "104616.959000", "104616.962000", "104616.964000", "104616.967000", "104616.969000", "104616.972000", "104616.975000", "104616.977000", "104616.980000", "104616.989000", "104616.992000", "104616.995000", "104616.997000", "104617.001000", "104617.003000", "104617.006000", "104617.009000", "104617.011000", "104617.014000", "104617.016000", "104617.019000", "104617.021000", "104617.024000", "104617.027000", "104617.029000", "104617.032000", "104617.034000", "104617.037000", "104617.039000", "104617.042000", "104617.045000"],
      "InstanceNumber": [1, 2, 3, 4, 5, 6, 7, 8, 9, 10, 11, 12, 13, 14, 15, 16, 17, 18, 19, 20, 21, 22, 23, 24, 25, 26, 27, 28, 29, 30, 31, 32, 33, 34, 35, 36, 37, 38, 39, 40, 41, 42, 43, 44, 45, 46, 47, 48, 49, 50, 51, 52, 53, 54, 55, 56, 57, 58, 59, 60, 61, 62, 63, 64, 65, 66, 67, 68, 69, 70, 71, 72, 73, 74, 75, 76, 77, 78, 79, 80, 81, 82, 83, 84, 85, 86, 87, 88, 89, 90, 91, 92, 93, 94, 95, 96, 97, 98, 99, 100, 101, 102, 103, 104, 105, 106, 107, 108, 109, 110, 111, 112, 113, 114, 115, 116, 117, 118, 119, 120, 121, 122, 123, 124, 125],
      "LargestImagePixelValue": [1946, 1875, 1842, 1823, 1800, 1817, 1800, 1818, 1826, 1812, 1852, 1797, 1813, 1804, 1825, 1819, 1785, 1790, 1827, 1832, 1829, 1800, 1805, 1798, 1795, 1821, 1795, 1792, 1794, 1784, 1818, 1849, 1798, 1802, 1836, 1795, 1829, 1836, 1794, 1796, 1797, 1812, 1832, 1800, 1785, 1820, 1833, 1787, 1786, 1794, 1823, 1826, 1816, 1801, 1807, 1830, 1833, 1802, 1797, 1794, 1810, 1835, 1869, 1804, 1789, 1796, 1864, 1843, 1801, 1793, 1805, 1853, 1868, 1793, 1792, 1798, 1812, 1790, 1791, 1792, 1836, 1844, 1787, 1808, 1808, 1812, 1786, 1799, 1810, 1819, 1847, 1830, 1796, 1810, 1803, 1828, 1836, 1794, 1804, 1815, 1841, 1853, 1784, 1799, 1823, 1806, 1782, 1822, 1816, 1815, 1839, 1840, 1779, 1796, 1793, 1833, 1818, 1820, 1831, 1785, 1783, 1817, 1802, 1817, 1841],
      "WindowCenter": [605.0, 602.0, 601.0, 601.0, 601.0, 602.0, 603.0, 604.0, 602.0, 601.0, 602.0, 601.0, 602.0, 602.0, 602.0, 601.0, 601.0, 602.0, 601.0, 601.0, 601.0, 600.0, 601.0, 601.0, 601.0, 601.0, 600.0, 600.0, 601.0, 600.0, 601.0, 601.0, 600.0, 600.0, 600.0, 599.0, 600.0, 600.0, 600.0, 600.0, 601.0, 601.0, 602.0, 602.0, 601.0, 602.0, 602.0, 601.0, 601.0, 601.0, 602.0, 602.0, 601.0, 601.0, 601.0, 601.0, 601.0, 602.0, 602.0, 601.0, 601.0, 601.0, 601.0, 600.0, 600.0, 599.0, 600.0, 601.0, 600.0, 600.0, 599.0, 601.0, 601.0, 599.0, 599.0, 600.0, 601.0, 601.0, 600.0, 600.0, 601.0, 600.0, 600.0, 601.0, 601.0, 601.0, 600.0, 600.0, 601.0, 600.0, 600.0, 599.0, 599.0, 600.0, 600.0, 600.0, 600.0, 600.0, 601.0, 601.0, 602.0, 602.0, 601.0, 601.0, 601.0, 601.0, 601.0, 601.0, 600.0, 600.0, 600.0, 600.0, 599.0, 599.0, 599.0, 599.0, 599.0, 599.0, 600.0, 599.0, 599.0, 600.0, 599.0, 600.0, 600.0],
      "WindowWidth": [1286.0, 1278.0, 1276.0, 1276.0, 1275.0, 1278.0, 1280.0, 1282.0, 1277.0, 1275.0, 1276.0, 1275.0, 1276.0, 1277.0, 1276.0, 1276.0, 1275.0, 1277.0, 1275.0, 1274.0, 1275.0, 1273.0, 1274.0, 1276.0, 1276.0, 1275.0, 1274.0, 1274.0, 1274.0, 1274.0, 1275.0, 1276.0, 1274.0, 1273.0, 1272.0, 1271.0, 1272.0, 1273.0, 1273.0, 1274.0, 1275.0, 1276.0, 1277.0, 1276.0, 1276.0, 1277.0, 1277.0, 1276.0, 1276.0, 1276.0, 1277.0, 1277.0, 1275.0, 1274.0, 1275.0, 1276.0, 1276.0, 1276.0, 1277.0, 1275.0, 1276.0, 1276.0, 1275.0, 1273.0, 1272.0, 1272.0, 1273.0, 1274.0, 1273.0, 1272.0, 1271.0, 1274.0, 1274.0, 1270.0, 1270.0, 1273.0, 1276.0, 1275.0, 1273.0, 1273.0, 1274.0, 1273.0, 1273.0, 1274.0, 1274.0, 1276.0, 1274.0, 1273.0, 1274.0, 1274.0, 1273.0, 1270.0, 1270.0, 1272.0, 1272.0, 1274.0, 1274.0, 1273.0, 1275.0, 1275.0, 1277.0, 1278.0, 1275.0, 1276.0, 1276.0, 1274.0, 1275.0, 1276.0, 1274.0, 1272.0, 1273.0, 1273.0, 1270.0, 1271.0, 1271.0, 1271.0, 1270.0, 1271.0, 1272.0, 1271.0, 1271.0, 1273.0, 1272.0, 1273.0, 1274.0]
    },
    "slices": {}
  }
}