{
  "AcquisitionMatrixPE": 88,
  "AcquisitionNumber": 1,
  "AcquisitionTime": "10:22:58.495000",
  "BandwidthPerPixelPhaseEncode": 19.592,
  "BaseResolution": 88,
  "BodyPartExamined": "BRAIN",
  "ConsistencyInfo": "N4_VE11C_LATEST_20160120",
  "ConversionSoftware": "dcm2niix",
  "ConversionSoftwareVersion": "v1.0.20190902",
  "DerivedVendorReportedEchoSpacing": 0.000580014,
  "DeviceSerialNumber": "67050",
  "DwellTime": 2.6e-06,
  "EchoTime": 0.033,
  "EchoTrainLength": 88,
  "EffectiveEchoSpacing": 0.000580014,
  "FlipAngle": 62,
  "ImageOrientationPatientDICOM": [0.991968, -0.040582, 0.119806, 0.046086, 0.997988, -0.0435323],
  "ImageType": [
    "ORIGINAL",
    "PRIMARY",
    "M",
    "ND",
    "MOSAIC"
],
  "ImagingFrequency": 123.25,
  "InPlanePhaseEncodingDirectionDICOM": "COL",
  "InstitutionAddress": "Olive_Street_60_Providence_RI_US_02912",
  "InstitutionName": "BROWN_UNIVERSITY_MRF",
  "InstitutionalDepartmentName": "Department",
  "MRAcquisitionType": "2D",
  "MagneticFieldStrength": 3,
  "Manufacturer": "Siemens",
  "ManufacturersModelName": "Prisma_fit",
  "Modality": "MR",
  "MultibandAccelerationFactor": 4,
  "PartialFourier": 1,
  "PatientPosition": "HFS",
  "PercentPhaseFOV": 100,
  "PhaseEncodingDirection": "j-",
  "PhaseEncodingSteps": 88,
  "PhaseResolution": 1,
  "PixelBandwidth": 2185,
  "ProcedureStepDescription": "ASHENHAV_1222",
  "ProtocolName": "func-bold_task-RDMcolor_run-03",
  "PulseSequenceDetails": "%SiemensSeq%_ep2d_bold",
  "ReceiveCoilActiveElements": "HC1-7;NC1",
  "ReceiveCoilName": "HeadNeck_64",
  "ReconMatrixPE": 88,
  "RefLinesPE": 8,
  "RepetitionTime": 1.2,
  "SAR": 0.0448937,
  "ScanOptions": "FS",
  "ScanningSequence": "EP",
  "SequenceName": "_epfid2d1_88",
  "SequenceVariant": "SK",
  "SeriesDescription": "func-bold_task-RDMcolor_run-03",
  "SeriesNumber": 12,
  "ShimSetting": [1754, -9132, 4447, 592, -215, -218, -40, 12],
  "SliceThickness": 2.4,
  "SliceTiming": [0.55, 0, 0.6275, 0.0775, 0.7075, 0.1575, 0.785, 0.235, 0.865, 0.315, 0.9425, 0.3925, 1.0225, 0.47, 1.1, 0.55, 0, 0.6275, 0.0775, 0.7075, 0.1575, 0.785, 0.235, 0.865, 0.315, 0.9425, 0.3925, 1.0225, 0.47, 1.1, 0.55, 0, 0.6275, 0.0775, 0.7075, 0.1575, 0.785, 0.235, 0.865, 0.315, 0.9425, 0.3925, 1.0225, 0.47, 1.1, 0.55, 0, 0.6275, 0.0775, 0.7075, 0.1575, 0.785, 0.235, 0.865, 0.315, 0.9425, 0.3925, 1.0225, 0.47, 1.1],
  "SoftwareVersions": "syngo_MR_E11",
  "SpacingBetweenSlices": 2.4,
  "StationName": "AWP67050",
  "TaskName": "RDMcolor",
  "TotalReadoutTime": 0.0504612,
  "TxRefAmp": 217.084,
  "dcmmeta_affine": [
    [-2.3784677982330322, 0.11050157994031906, 0.2827153503894806, 95.86100769042969],
    [0.0973045825958252, 2.392904281616211, -0.11688947677612305, -93.6602783203125],
    [0.28726133704185486, 0.10437847673892975, 2.3804221153259277, -68.33333587646484],
    [0.0, 0.0, 0.0, 1.0]
],
  "dcmmeta_reorient_transform": [
    [0.0, -1.0, 0.0, 87.0],
    [1.0, 0.0, 0.0, 0.0],
    [0.0, 0.0, 1.0, 0.0],
    [0.0, 0.0, 0.0, 1.0]
],
  "dcmmeta_shape": [88, 88, 60, 392],
  "dcmmeta_slice_dim": 2,
  "dcmmeta_version": 0.6,
  "global": {
    "const": {
      "AcquisitionMatrix": [88, 0, 0, 88],
      "AngioFlag": "N",
      "BitsAllocated": 16,
      "BitsStored": 12,
      "BodyPartExamined": "BRAIN",
      "Columns": 704,
      "DeidentificationMethodCodeSequence": [
        {
          "CodeMeaning": "XNAT DicomEdit 6 Script",
          "CodeValue": "3",
          "CodingSchemeDesignator": "XNAT",
          "CodingSchemeVersion": "1.0"}
],
      "EchoNumbers": 1,
      "EchoTime": 33.0,
      "EchoTrainLength": 88,
      "FlipAngle": 62.0,
      "HighBit": 11,
      "ImageOrientationPatient": [0.99196759010785, -0.0405820056992, 0.11980568012013, 0.04608596755381, 0.99798849003879, -0.0435322563707],
      "ImagePositionPatient": [-872.07718810915, -821.56706908689, -115.58032783942],
      "ImageType": [
        "ORIGINAL",
        "PRIMARY",
        "M",
        "ND",
        "MOSAIC"
],
      "ImagedNucleus": "1H",
      "ImagingFrequency": 123.25049,
      "InPlanePhaseEncodingDirection": "COL",
      "MRAcquisitionType": "2D",
      "MagneticFieldStrength": 3.0,
      "Manufacturer": "SIEMENS",
      "ManufacturerModelName": "Prisma_fit",
      "Modality": "MR",
      "NumberOfAverages": 1.0,
      "NumberOfPhaseEncodingSteps": 88,
      "PercentPhaseFieldOfView": 100.0,
      "PercentSampling": 100.0,
      "PerformedProcedureStepStartTime": "094920.742000",
      "PhotometricInterpretation": "MONOCHROME2",
      "PixelBandwidth": 2185.0,
      "PixelRepresentation": 0,
      "PixelSpacing": [2.3977272510529, 2.3977272510529],
      "ProtocolName": "func-bold_task-RDMcolor_run-03",
      "RepetitionTime": 1200.0,
      "Rows": 704,
      "SAR": 0.04489371860189,
      "SamplesPerPixel": 1,
      "ScanOptions": "FS",
      "ScanningSequence": "EP",
      "SequenceName": "*epfid2d1_88",
      "SequenceVariant": "SK",
      "SeriesDescription": "func-bold_task-RDMcolor_run-03",
      "SeriesNumber": 12,
      "SeriesTime": "102340.276000",
      "SliceLocation": -51.922037047307,
      "SliceThickness": 2.4000000953674,
      "SmallestImagePixelValue": 0,
      "SoftwareVersions": "syngo MR E11",
      "SpacingBetweenSlices": 2.4000000470758,
      "SpecificCharacterSet": "ISO_IR 100",
      "StudyID": "1",
      "StudyTime": "094920.527000",
      "TransmitCoilName": "Body",
      "VariableFlipAngleFlag": "N",
      "WindowCenterWidthExplanation": "Algo1",
      "dBdt": 0.0},
    "slices": {}
  },
  "time": {
    "samples": {
      "AcquisitionNumber": [1, 2, 3, 4, 5, 6, 7, 8, 9, 10, 11, 12, 13, 14, 15, 16, 17, 18, 19, 20, 21, 22, 23, 24, 25, 26, 27, 28, 29, 30, 31, 32, 33, 34, 35, 36, 37, 38, 39, 40, 41, 42, 43, 44, 45, 46, 47, 48, 49, 50, 51, 52, 53, 54, 55, 56, 57, 58, 59, 60, 61, 62, 63, 64, 65, 66, 67, 68, 69, 70, 71, 72, 73, 74, 75, 76, 77, 78, 79, 80, 81, 82, 83, 84, 85, 86, 87, 88, 89, 90, 91, 92, 93, 94, 95, 96, 97, 98, 99, 100, 101, 102, 103, 104, 105, 106, 107, 108, 109, 110, 111, 112, 113, 114, 115, 116, 117, 118, 119, 120, 121, 122, 123, 124, 125, 126, 127, 128, 129, 130, 131, 132, 133, 134, 135, 136, 137, 138, 139, 140, 141, 142, 143, 144, 145, 146, 147, 148, 149, 150, 151, 152, 153, 154, 155, 156, 157, 158, 159, 160, 161, 162, 163, 164, 165, 166, 167, 168, 169, 170, 171, 172, 173, 174, 175, 176, 177, 178, 179, 180, 181, 182, 183, 184, 185, 186, 187, 188, 189, 190, 191, 192, 193, 194, 195, 196, 197, 198, 199, 200, 201, 202, 203, 204, 205, 206, 207, 208, 209, 210, 211, 212, 213, 214, 215, 216, 217, 218, 219, 220, 221, 222, 223, 224, 225, 226, 227, 228, 229, 230, 231, 232, 233, 234, 235, 236, 237, 238, 239, 240, 241, 242, 243, 244, 245, 246, 247, 248, 249, 250, 251, 252, 253, 254, 255, 256, 257, 258, 259, 260, 261, 262, 263, 264, 265, 266, 267, 268, 269, 270, 271, 272, 273, 274, 275, 276, 277, 278, 279, 280, 281, 282, 283, 284, 285, 286, 287, 288, 289, 290, 291, 292, 293, 294, 295, 296, 297, 298, 299, 300, 301, 302, 303, 304, 305, 306, 307, 308, 309, 310, 311, 312, 313, 314, 315, 316, 317, 318, 319, 320, 321, 322, 323, 324, 325, 326, 327, 328, 329, 330, 331, 332, 333, 334, 335, 336, 337, 338, 339, 340, 341, 342, 343, 344, 345, 346, 347, 348, 349, 350, 351, 352, 353, 354, 355, 356, 357, 358, 359, 360, 361, 362, 363, 364, 365, 366, 367, 368, 369, 370, 371, 372, 373, 374, 375, 376, 377, 378, 379, 380, 381, 382, 383, 384, 385, 386, 387, 388, 389, 390, 391, 392],
      "AcquisitionTime": ["102258.495000", "102259.695000", "102300.895000", "102302.095000", "102303.295000", "102304.495000", "102305.695000", "102306.895000", "102308.095000", "102309.295000", "102310.495000", "102311.695000", "102312.895000", "102314.095000", "102315.295000", "102316.495000", "102317.695000", "102318.895000", "102320.095000", "102321.295000", "102322.495000", "102323.695000", "102324.895000", "102326.095000", "102327.295000", "102328.495000", "102329.695000", "102330.895000", "102332.095000", "102333.295000", "102334.495000", "102335.695000", "102336.895000", "102338.095000", "102339.295000", "102340.495000", "102341.695000", "102342.895000", "102344.095000", "102345.295000", "102346.495000", "102347.695000", "102348.895000", "102350.095000", "102351.295000", "102352.495000", "102353.695000", "102354.895000", "102356.095000", "102357.295000", "102358.495000", "102359.695000", "102400.895000", "102402.095000", "102403.295000", "102404.495000", "102405.695000", "102406.895000", "102408.095000", "102409.295000", "102410.495000", "102411.695000", "102412.895000", "102414.095000", "102415.295000", "102416.495000", "102417.695000", "102418.895000", "102420.095000", "102421.295000", "102422.495000", "102423.695000", "102424.895000", "102426.095000", "102427.295000", "102428.495000", "102429.695000", "102430.895000", "102432.095000", "102433.295000", "102434.495000", "102435.695000", "102436.895000", "102438.095000", "102439.295000", "102440.495000", "102441.695000", "102442.895000", "102444.095000", "102445.295000", "102446.495000", "102447.695000", "102448.895000", "102450.095000", "102451.295000", "102452.495000", "102453.695000", "102454.895000", "102456.095000", "102457.295000", "102458.495000", "102459.695000", "102500.895000", "102502.095000", "102503.295000", "102504.495000", "102505.695000", "102506.895000", "102508.095000", "102509.295000", "102510.495000", "102511.695000", "102512.895000", "102514.095000", "102515.295000", "102516.495000", "102517.695000", "102518.895000", "102520.095000", "102521.295000", "102522.495000", "102523.695000", "102524.895000", "102526.095000", "102527.295000", "102528.495000", "102529.695000", "102530.895000", "102532.095000", "102533.295000", "102534.495000", "102535.695000", "102536.895000", "102538.095000", "102539.295000", "102540.495000", "102541.695000", "102542.895000", "102544.095000", "102545.295000", "102546.495000", "102547.695000", "102548.895000", "102550.095000", "102551.295000", "102552.495000", "102553.695000", "102554.895000", "102556.095000", "102557.295000", "102558.495000", "102559.695000", "102600.895000", "102602.095000", "102603.295000", "102604.495000", "102605.695000", "102606.895000", "102608.095000", "102609.295000", "102610.495000", "102611.695000", "102612.895000", "102614.095000", "102615.295000", "102616.495000", "102617.695000", "102618.895000", "102620.095000", "102621.295000", "102622.495000", "102623.695000", "102624.895000", "102626.095000", "102627.295000", "102628.495000", "102629.695000", "102630.895000", "102632.095000", "102633.295000", "102634.495000", "102635.695000", "102636.895000", "102638.095000", "102639.295000", "102640.495000", "102641.695000", "102642.895000", "102644.095000", "102645.295000", "102646.495000", "102647.695000", "102648.895000", "102650.095000", "102651.295000", "102652.495000", "102653.695000", "102654.895000", "102656.095000", "102657.295000", "102658.495000", "102659.695000", "102700.895000", "102702.095000", "102703.295000", "102704.495000", "102705.695000", "102706.895000", "102708.095000", "102709.295000", "102710.495000", "102711.695000", "102712.895000", "102714.095000", "102715.295000", "102716.495000", "102717.695000", "102718.895000", "102720.095000", "102721.295000", "102722.495000", "102723.695000", "102724.895000", "102726.095000", "102727.295000", "102728.495000", "102729.695000", "102730.895000", "102732.095000", "102733.295000", "102734.495000", "102735.695000", "102736.895000", "102738.095000", "102739.295000", "102740.495000", "102741.695000", "102742.895000", "102744.095000", "102745.295000", "102746.495000", "102747.695000", "102748.895000", "102750.095000", "102751.295000", "102752.495000", "102753.695000", "102754.895000", "102756.095000", "102757.295000", "102758.495000", "102759.695000", "102800.895000", "102802.095000", "102803.295000", "102804.495000", "102805.695000", "102806.895000", "102808.095000", "102809.295000", "102810.495000", "102811.695000", "102812.895000", "102814.095000", "102815.295000", "102816.495000", "102817.695000", "102818.895000", "102820.095000", "102821.295000", "102822.495000", "102823.695000", "102824.895000", "102826.095000", "102827.295000", "102828.495000", "102829.695000", "102830.895000", "102832.095000", "102833.295000", "102834.495000", "102835.695000", "102836.895000", "102838.095000", "102839.295000", "102840.495000", "102841.695000", "102842.895000", "102844.095000", "102845.295000", "102846.495000", "102847.695000", "102848.895000", "102850.095000", "102851.295000", "102852.495000", "102853.695000", "102854.895000", "102856.095000", "102857.295000", "102858.495000", "102859.695000", "102900.895000", "102902.095000", "102903.295000", "102904.495000", "102905.695000", "102906.895000", "102908.095000", "102909.295000", "102910.495000", "102911.695000", "102912.895000", "102914.095000", "102915.295000", "102916.495000", "102917.695000", "102918.895000", "102920.095000", "102921.295000", "102922.495000", "102923.695000", "102924.895000", "102926.095000", "102927.295000", "102928.495000", "102929.695000", "102930.895000", "102932.095000", "102933.295000", "102934.495000", "102935.695000", "102936.895000", "102938.095000", "102939.295000", "102940.495000", "102941.695000", "102942.895000", "102944.095000", "102945.295000", "102946.495000", "102947.695000", "102948.895000", "102950.095000", "102951.295000", "102952.495000", "102953.695000", "102954.895000", "102956.095000", "102957.295000", "102958.495000", "102959.695000", "103000.895000", "103002.095000", "103003.295000", "103004.495000", "103005.695000", "103006.895000", "103008.095000", "103009.295000", "103010.495000", "103011.695000", "103012.895000", "103014.095000", "103015.295000", "103016.495000", "103017.695000", "103018.895000", "103020.095000", "103021.295000", "103022.495000", "103023.695000", "103024.895000", "103026.095000", "103027.295000", "103028.495000", "103029.695000", "103030.895000", "103032.095000", "103033.295000", "103034.495000", "103035.695000", "103036.895000", "103038.095000", "103039.295000", "103040.495000", "103041.695000", "103042.895000", "103044.095000", "103045.295000", "103046.495000", "103047.695000"],
      "ContentTime": ["102340.280000", "102340.283000", "102340.286000", "102340.289000", "102340.292000", "102340.294000", "102340.297000", "102340.300000", "102340.302000", "102340.305000", "102340.307000", "102340.310000", "102340.314000", "102340.317000", "102340.319000", "102340.322000", "102340.325000", "102340.328000", "102340.330000", "102340.333000", "102340.335000", "102340.338000", "102340.340000", "102340.343000", "102340.346000", "102340.348000", "102340.351000", "102340.353000", "102340.356000", "102340.359000", "102340.361000", "102340.364000", "102340.366000", "102340.369000", "102420.275000", "102420.278000", "102420.280000", "102420.283000", "102420.285000", "102420.288000", "102420.291000", "102420.293000", "102420.296000", "102420.299000", "102420.301000", "102420.304000", "102420.306000", "102420.309000", "102420.324000", "102420.327000", "102420.329000", "102420.332000", "102420.335000", "102420.337000", "102420.340000", "102420.342000", "102420.345000", "102420.347000", "102420.350000", "102420.353000", "102420.356000", "102420.358000", "102420.361000", "102420.363000", "102420.366000", "102420.368000", "102420.371000", "102500.274000", "102500.277000", "102500.280000", "102500.282000", "102500.285000", "102500.288000", "102500.290000", "102500.293000", "102500.296000", "102500.298000", "102500.301000", "102500.303000", "102500.306000", "102500.309000", "102500.311000", "102500.314000", "102500.316000", "102500.319000", "102500.325000", "102500.328000", "102500.330000", "102500.333000", "102500.335000", "102500.338000", "102500.341000", "102500.343000", "102500.346000", "102500.348000", "102500.351000", "102500.354000", "102500.356000", "102500.359000", "102500.361000", "102500.364000", "102540.275000", "102540.277000", "102540.280000", "102540.283000", "102540.285000", "102540.288000", "102540.290000", "102540.293000", "102540.296000", "102540.298000", "102540.301000", "102540.304000", "102540.306000", "102540.309000", "102540.311000", "102540.314000", "102540.317000", "102540.319000", "102540.322000", "102540.324000", "102540.327000", "102540.330000", "102540.332000", "102540.335000", "102540.337000", "102540.340000", "102540.342000", "102540.345000", "102540.348000", "102540.350000", "102540.353000", "102540.356000", "102540.358000", "102620.276000", "102620.279000", "102620.281000", "102620.284000", "102620.286000", "102620.289000", "102620.292000", "102620.294000", "102620.297000", "102620.299000", "102620.302000", "102620.304000", "102620.307000", "102620.310000", "102620.312000", "102620.315000", "102620.317000", "102620.320000", "102620.323000", "102620.325000", "102620.328000", "102620.331000", "102620.333000", "102620.336000", "102620.338000", "102620.341000", "102620.344000", "102620.346000", "102620.349000", "102620.351000", "102620.354000", "102620.357000", "102620.359000", "102700.274000", "102700.277000", "102700.280000", "102700.283000", "102700.293000", "102700.295000", "102700.298000", "102700.301000", "102700.303000", "102700.306000", "102700.309000", "102700.311000", "102700.314000", "102700.316000", "102700.319000", "102700.322000", "102700.340000", "102700.343000", "102700.345000", "102700.348000", "102700.357000", "102700.359000", "102700.362000", "102700.364000", "102700.367000", "102700.370000", "102700.373000", "102700.375000", "102700.378000", "102700.381000", "102700.383000", "102700.386000", "102700.388000", "102700.391000", "102720.275000", "102720.278000", "102720.280000", "102720.283000", "102720.285000", "102720.288000", "102720.291000", "102720.293000", "102720.296000", "102720.299000", "102720.301000", "102720.304000", "102720.306000", "102720.309000", "102720.311000", "102720.314000", "102800.274000", "102800.277000", "102800.280000", "102800.282000", "102800.285000", "102800.288000", "102800.291000", "102800.293000", "102800.296000", "102800.298000", "102800.301000", "102800.303000", "102800.306000", "102800.309000", "102800.311000", "102800.314000", "102800.317000", "102800.319000", "102800.322000", "102800.324000", "102800.327000", "102800.330000", "102800.332000", "102800.335000", "102800.337000", "102800.340000", "102800.342000", "102800.345000", "102800.348000", "102800.350000", "102800.353000", "102800.356000", "102800.358000", "102800.361000", "102840.276000", "102840.278000", "102840.281000", "102840.284000", "102840.286000", "102840.289000", "102840.292000", "102840.294000", "102840.297000", "102840.299000", "102840.302000", "102840.305000", "102840.308000", "102840.310000", "102840.313000", "102840.315000", "102840.318000", "102840.320000", "102840.323000", "102840.326000", "102840.328000", "102840.331000", "102840.334000", "102840.336000", "102840.339000", "102840.341000", "102840.344000", "102840.347000", "102840.349000", "102840.352000", "102840.354000", "102840.357000", "102840.360000", "102920.274000", "102920.277000", "102920.280000", "102920.282000", "102920.285000", "102920.287000", "102920.290000", "102920.293000", "102920.296000", "102920.298000", "102920.301000", "102920.303000", "102920.306000", "102920.308000", "102920.311000", "102920.314000", "102920.316000", "102920.319000", "102920.321000", "102920.324000", "102920.326000", "102920.329000", "102920.332000", "102920.334000", "102920.337000", "102920.339000", "102920.342000", "102920.345000", "102920.347000", "102920.350000", "102920.352000", "102920.355000", "102920.358000", "103000.275000", "103000.277000", "103000.280000", "103000.283000", "103000.286000", "103000.288000", "103000.291000", "103000.293000", "103000.296000", "103000.299000", "103000.301000", "103000.304000", "103000.307000", "103000.309000", "103000.312000", "103000.319000", "103000.321000", "103000.324000", "103000.326000", "103000.329000", "103000.331000", "103000.334000", "103000.337000", "103000.339000", "103000.342000", "103000.345000", "103000.347000", "103000.350000", "103000.353000", "103000.355000", "103000.358000", "103000.361000", "103000.363000", "103000.366000", "103040.276000", "103040.278000", "103040.281000", "103040.284000", "103040.287000", "103040.289000", "103040.292000", "103040.295000", "103040.298000", "103040.300000", "103040.303000", "103040.305000", "103040.308000", "103040.310000", "103040.313000", "103040.316000", "103040.318000", "103040.321000", "103040.323000", "103040.326000", "103040.329000", "103040.331000", "103040.334000", "103040.337000", "103040.339000", "103040.342000", "103040.345000", "103040.347000", "103040.350000", "103040.364000", "103040.366000", "103040.369000", "103040.372000", "103049.414000", "103049.417000", "103049.420000", "103049.423000", "103049.426000", "103049.428000", "103049.431000", "103049.433000"],
      "InstanceCreationTime": ["102340.280000", "102340.283000", "102340.286000", "102340.289000", "102340.292000", "102340.294000", "102340.297000", "102340.300000", "102340.302000", "102340.305000", "102340.307000", "102340.310000", "102340.314000", "102340.317000", "102340.319000", "102340.322000", "102340.325000", "102340.328000", "102340.330000", "102340.333000", "102340.335000", "102340.338000", "102340.340000", "102340.343000", "102340.346000", "102340.348000", "102340.351000", "102340.353000", "102340.356000", "102340.359000", "102340.361000", "102340.364000", "102340.366000", "102340.369000", "102420.275000", "102420.278000", "102420.280000", "102420.283000", "102420.285000", "102420.288000", "102420.291000", "102420.293000", "102420.296000", "102420.299000", "102420.301000", "102420.304000", "102420.306000", "102420.309000", "102420.324000", "102420.327000", "102420.329000", "102420.332000", "102420.335000", "102420.337000", "102420.340000", "102420.342000", "102420.345000", "102420.347000", "102420.350000", "102420.353000", "102420.356000", "102420.358000", "102420.361000", "102420.363000", "102420.366000", "102420.368000", "102420.371000", "102500.274000", "102500.277000", "102500.280000", "102500.282000", "102500.285000", "102500.288000", "102500.290000", "102500.293000", "102500.296000", "102500.298000", "102500.301000", "102500.303000", "102500.306000", "102500.309000", "102500.311000", "102500.314000", "102500.316000", "102500.319000", "102500.325000", "102500.328000", "102500.330000", "102500.333000", "102500.335000", "102500.338000", "102500.341000", "102500.343000", "102500.346000", "102500.348000", "102500.351000", "102500.354000", "102500.356000", "102500.359000", "102500.361000", "102500.364000", "102540.275000", "102540.277000", "102540.280000", "102540.283000", "102540.285000", "102540.288000", "102540.290000", "102540.293000", "102540.296000", "102540.298000", "102540.301000", "102540.304000", "102540.306000", "102540.309000", "102540.311000", "102540.314000", "102540.317000", "102540.319000", "102540.322000", "102540.324000", "102540.327000", "102540.330000", "102540.332000", "102540.335000", "102540.337000", "102540.340000", "102540.342000", "102540.345000", "102540.348000", "102540.350000", "102540.353000", "102540.356000", "102540.358000", "102620.276000", "102620.279000", "102620.281000", "102620.284000", "102620.286000", "102620.289000", "102620.292000", "102620.294000", "102620.297000", "102620.299000", "102620.302000", "102620.304000", "102620.307000", "102620.310000", "102620.312000", "102620.315000", "102620.317000", "102620.320000", "102620.323000", "102620.325000", "102620.328000", "102620.331000", "102620.333000", "102620.336000", "102620.338000", "102620.341000", "102620.344000", "102620.346000", "102620.349000", "102620.351000", "102620.354000", "102620.357000", "102620.359000", "102700.274000", "102700.277000", "102700.280000", "102700.283000", "102700.293000", "102700.295000", "102700.298000", "102700.301000", "102700.303000", "102700.306000", "102700.309000", "102700.311000", "102700.314000", "102700.316000", "102700.319000", "102700.322000", "102700.340000", "102700.343000", "102700.345000", "102700.348000", "102700.357000", "102700.359000", "102700.362000", "102700.364000", "102700.367000", "102700.370000", "102700.373000", "102700.375000", "102700.378000", "102700.381000", "102700.383000", "102700.386000", "102700.388000", "102700.391000", "102720.275000", "102720.278000", "102720.280000", "102720.283000", "102720.285000", "102720.288000", "102720.291000", "102720.293000", "102720.296000", "102720.299000", "102720.301000", "102720.304000", "102720.306000", "102720.309000", "102720.311000", "102720.314000", "102800.274000", "102800.277000", "102800.280000", "102800.282000", "102800.285000", "102800.288000", "102800.291000", "102800.293000", "102800.296000", "102800.298000", "102800.301000", "102800.303000", "102800.306000", "102800.309000", "102800.311000", "102800.314000", "102800.317000", "102800.319000", "102800.322000", "102800.324000", "102800.327000", "102800.330000", "102800.332000", "102800.335000", "102800.337000", "102800.340000", "102800.342000", "102800.345000", "102800.348000", "102800.350000", "102800.353000", "102800.356000", "102800.358000", "102800.361000", "102840.276000", "102840.278000", "102840.281000", "102840.284000", "102840.286000", "102840.289000", "102840.292000", "102840.294000", "102840.297000", "102840.299000", "102840.302000", "102840.305000", "102840.308000", "102840.310000", "102840.313000", "102840.315000", "102840.318000", "102840.320000", "102840.323000", "102840.326000", "102840.328000", "102840.331000", "102840.334000", "102840.336000", "102840.339000", "102840.341000", "102840.344000", "102840.347000", "102840.349000", "102840.352000", "102840.354000", "102840.357000", "102840.360000", "102920.274000", "102920.277000", "102920.280000", "102920.282000", "102920.285000", "102920.287000", "102920.290000", "102920.293000", "102920.296000", "102920.298000", "102920.301000", "102920.303000", "102920.306000", "102920.308000", "102920.311000", "102920.314000", "102920.316000", "102920.319000", "102920.321000", "102920.324000", "102920.326000", "102920.329000", "102920.332000", "102920.334000", "102920.337000", "102920.339000", "102920.342000", "102920.345000", "102920.347000", "102920.350000", "102920.352000", "102920.355000", "102920.358000", "103000.275000", "103000.277000", "103000.280000", "103000.283000", "103000.286000", "103000.288000", "103000.291000", "103000.293000", "103000.296000", "103000.299000", "103000.301000", "103000.304000", "103000.307000", "103000.309000", "103000.312000", "103000.319000", "103000.321000", "103000.324000", "103000.326000", "103000.329000", "103000.331000", "103000.334000", "103000.337000", "103000.339000", "103000.342000", "103000.345000", "103000.347000", "103000.350000", "103000.353000", "103000.355000", "103000.358000", "103000.361000", "103000.363000", "103000.366000", "103040.276000", "103040.278000", "103040.281000", "103040.284000", "103040.287000", "103040.289000", "103040.292000", "103040.295000", "103040.298000", "103040.300000", "103040.303000", "103040.305000", "103040.308000", "103040.310000", "103040.313000", "103040.316000", "103040.318000", "103040.321000", "103040.323000", "103040.326000", "103040.329000", "103040.331000", "103040.334000", "103040.337000", "103040.339000", "103040.342000", "103040.345000", "103040.347000", "103040.350000", "103040.364000", "103040.366000", "103040.369000", "103040.372000", "103049.414000", "103049.417000", "103049.420000", "103049.423000", "103049.426000", "103049.428000", "103049.431000", "103049.433000"],
      "InstanceNumber": [1, 2, 3, 4, 5, 6, 7, 8, 9, 10, 11, 12, 13, 14, 15, 16, 17, 18, 19, 20, 21, 22, 23, 24, 25, 26, 27, 28, 29, 30, 31, 32, 33, 34, 35, 36, 37, 38, 39, 40, 41, 42, 43, 44, 45, 46, 47, 48, 49, 50, 51, 52, 53, 54, 55, 56, 57, 58, 59, 60, 61, 62, 63, 64, 65, 66, 67, 68, 69, 70, 71, 72, 73, 74, 75, 76, 77, 78, 79, 80, 81, 82, 83, 84, 85, 86, 87, 88, 89, 90, 91, 92, 93, 94, 95, 96, 97, 98, 99, 100, 101, 102, 103, 104, 105, 106, 107, 108, 109, 110, 111, 112, 113, 114, 115, 116, 117, 118, 119, 120, 121, 122, 123, 124, 125, 126, 127, 128, 129, 130, 131, 132, 133, 134, 135, 136, 137, 138, 139, 140, 141, 142, 143, 144, 145, 146, 147, 148, 149, 150, 151, 152, 153, 154, 155, 156, 157, 158, 159, 160, 161, 162, 163, 164, 165, 166, 167, 168, 169, 170, 171, 172, 173, 174, 175, 176, 177, 178, 179, 180, 181, 182, 183, 184, 185, 186, 187, 188, 189, 190, 191, 192, 193, 194, 195, 196, 197, 198, 199, 200, 201, 202, 203, 204, 205, 206, 207, 208, 209, 210, 211, 212, 213, 214, 215, 216, 217, 218, 219, 220, 221, 222, 223, 224, 225, 226, 227, 228, 229, 230, 231, 232, 233, 234, 235, 236, 237, 238, 239, 240, 241, 242, 243, 244, 245, 246, 247, 248, 249, 250, 251, 252, 253, 254, 255, 256, 257, 258, 259, 260, 261, 262, 263, 264, 265, 266, 267, 268, 269, 270, 271, 272, 273, 274, 275, 276, 277, 278, 279, 280, 281, 282, 283, 284, 285, 286, 287, 288, 289, 290, 291, 292, 293, 294, 295, 296, 297, 298, 299, 300, 301, 302, 303, 304, 305, 306, 307, 308, 309, 310, 311, 312, 313, 314, 315, 316, 317, 318, 319, 320, 321, 322, 323, 324, 325, 326, 327, 328, 329, 330, 331, 332, 333, 334, 335, 336, 337, 338, 339, 340, 341, 342, 343, 344, 345, 346, 347, 348, 349, 350, 351, 352, 353, 354, 355, 356, 357, 358, 359, 360, 361, 362, 363, 364, 365, 366, 367, 368, 369, 370, 371, 372, 373, 374, 375, 376, 377, 378, 379, 380, 381, 382, 383, 384, 385, 386, 387, 388, 389, 390, 391, 392],
