{
  "AcquisitionMatrixPE": 88,
  "AcquisitionNumber": 1,
  "AcquisitionTime": "09:59:28.417500",
  "BandwidthPerPixelPhaseEncode": 19.592,
  "BaseResolution": 88,
  "BodyPartExamined": "BRAIN",
  "ConsistencyInfo": "N4_VE11C_LATEST_20160120",
  "ConversionSoftware": "dcm2niix",
  "ConversionSoftwareVersion": "v1.0.20190902",
  "DerivedVendorReportedEchoSpacing": 0.000580014,
  "DeviceSerialNumber": "67050",
  "DwellTime": 2.6e-06,
  "EchoTime": 0.033,
  "EchoTrainLength": 88,
  "EffectiveEchoSpacing": 0.000580014,
  "FlipAngle": 62,
  "ImageOrientationPatientDICOM": [0.991968, -0.040582, 0.119806, 0.046086, 0.997988, -0.0435323],
  "ImageType": [
    "ORIGINAL",
    "PRIMARY",
    "M",
    "ND",
    "MOSAIC"
],
  "ImagingFrequency": 123.25,
  "InPlanePhaseEncodingDirectionDICOM": "COL",
  "InstitutionAddress": "Olive_Street_60_Providence_RI_US_02912",
  "InstitutionName": "BROWN_UNIVERSITY_MRF",
  "InstitutionalDepartmentName": "Department",
  "MRAcquisitionType": "2D",
  "MagneticFieldStrength": 3,
  "Manufacturer": "Siemens",
  "ManufacturersModelName": "Prisma_fit",
  "Modality": "MR",
  "MultibandAccelerationFactor": 4,
  "PartialFourier": 1,
  "PatientPosition": "HFS",
  "PercentPhaseFOV": 100,
  "PhaseEncodingDirection": "j-",
  "PhaseEncodingSteps": 88,
  "PhaseResolution": 1,
  "PixelBandwidth": 2185,
  "ProcedureStepDescription": "ASHENHAV_1222",
  "ProtocolName": "func-bold_task-RDMcolor_run-01",
  "PulseSequenceDetails": "%SiemensSeq%_ep2d_bold",
  "ReceiveCoilActiveElements": "HC1-7;NC1",
  "ReceiveCoilName": "HeadNeck_64",
  "ReconMatrixPE": 88,
  "RefLinesPE": 8,
  "RepetitionTime": 1.2,
  "SAR": 0.0448937,
  "ScanOptions": "FS",
  "ScanningSequence": "EP",
  "SequenceName": "_epfid2d1_88",
  "SequenceVariant": "SK",
  "SeriesDescription": "func-bold_task-RDMcolor_run-01",
  "SeriesNumber": 8,
  "ShimSetting": [1754, -9132, 4447, 592, -215, -218, -40, 12],
  "SliceThickness": 2.4,
  "SliceTiming": [0.5525, 0, 0.63, 0.08, 0.71, 0.1575, 0.7875, 0.2375, 0.8675, 0.315, 0.945, 0.395, 1.0225, 0.4725, 1.1025, 0.5525, 0, 0.63, 0.08, 0.71, 0.1575, 0.7875, 0.2375, 0.8675, 0.315, 0.945, 0.395, 1.0225, 0.4725, 1.1025, 0.5525, 0, 0.63, 0.08, 0.71, 0.1575, 0.7875, 0.2375, 0.8675, 0.315, 0.945, 0.395, 1.0225, 0.4725, 1.1025, 0.5525, 0, 0.63, 0.08, 0.71, 0.1575, 0.7875, 0.2375, 0.8675, 0.315, 0.945, 0.395, 1.0225, 0.4725, 1.1025],
  "SoftwareVersions": "syngo_MR_E11",
  "SpacingBetweenSlices": 2.4,
  "StationName": "AWP67050",
  "TaskName": "RDMcolor",
  "TotalReadoutTime": 0.0504612,
  "TxRefAmp": 217.084,
  "dcmmeta_affine": [
    [-2.3784677982330322, 0.11050157994031906, 0.2827153503894806, 95.86100769042969],
    [0.0973045825958252, 2.392904281616211, -0.11688947677612305, -93.6602783203125],
    [0.28726133704185486, 0.10437847673892975, 2.3804221153259277, -68.33333587646484],
    [0.0, 0.0, 0.0, 1.0]
],
  "dcmmeta_reorient_transform": [
    [0.0, -1.0, 0.0, 87.0],
    [1.0, 0.0, 0.0, 0.0],
    [0.0, 0.0, 1.0, 0.0],
    [0.0, 0.0, 0.0, 1.0]
],
  "dcmmeta_shape": [88, 88, 60, 392],
  "dcmmeta_slice_dim": 2,
  "dcmmeta_version": 0.6,
  "global": {
    "const": {
      "AcquisitionMatrix": [88, 0, 0, 88],
      "AngioFlag": "N",
      "BitsAllocated": 16,
      "BitsStored": 12,
      "BodyPartExamined": "BRAIN",
      "Columns": 704,
      "DeidentificationMethodCodeSequence": [
        {
          "CodeMeaning": "XNAT DicomEdit 6 Script",
          "CodeValue": "3",
          "CodingSchemeDesignator": "XNAT",
          "CodingSchemeVersion": "1.0"}
],
      "EchoNumbers": 1,
      "EchoTime": 33.0,
      "EchoTrainLength": 88,
      "FlipAngle": 62.0,
      "HighBit": 11,
      "ImageOrientationPatient": [0.99196759010785, -0.0405820056992, 0.11980568012013, 0.04608596755381, 0.99798849003879, -0.0435322563707],
      "ImagePositionPatient": [-872.07718810915, -821.56706908689, -115.58032783942],
      "ImageType": [
        "ORIGINAL",
        "PRIMARY",
        "M",
        "ND",
        "MOSAIC"
],
      "ImagedNucleus": "1H",
      "ImagingFrequency": 123.250476,
      "InPlanePhaseEncodingDirection": "COL",
      "MRAcquisitionType": "2D",
      "MagneticFieldStrength": 3.0,
      "Manufacturer": "SIEMENS",
      "ManufacturerModelName": "Prisma_fit",
      "Modality": "MR",
      "NumberOfAverages": 1.0,
      "NumberOfPhaseEncodingSteps": 88,
      "PercentPhaseFieldOfView": 100.0,
      "PercentSampling": 100.0,
      "PerformedProcedureStepStartTime": "094920.742000",
      "PhotometricInterpretation": "MONOCHROME2",
      "PixelBandwidth": 2185.0,
      "PixelRepresentation": 0,
      "PixelSpacing": [2.3977272510529, 2.3977272510529],
      "ProtocolName": "func-bold_task-RDMcolor_run-01",
      "RepetitionTime": 1200.0,
      "Rows": 704,
      "SAR": 0.04489371860189,
      "SamplesPerPixel": 1,
      "ScanOptions": "FS",
      "ScanningSequence": "EP",
      "SequenceName": "*epfid2d1_88",
      "SequenceVariant": "SK",
      "SeriesDescription": "func-bold_task-RDMcolor_run-01",
      "SeriesNumber": 8,
      "SeriesTime": "095959.011000",
      "SliceLocation": -51.922037047307,
      "SliceThickness": 2.4000000953674,
      "SmallestImagePixelValue": 0,
      "SoftwareVersions": "syngo MR E11",
      "SpacingBetweenSlices": 2.4000000470758,
      "SpecificCharacterSet": "ISO_IR 100",
      "StudyID": "1",
      "StudyTime": "094920.527000",
      "TransmitCoilName": "Body",
      "VariableFlipAngleFlag": "N",
      "WindowCenterWidthExplanation": "Algo1",
      "dBdt": 0.0},
    "slices": {}
  },
  "time": {
    "samples": {
      "AcquisitionNumber": [1, 2, 3, 4, 5, 6, 7, 8, 9, 10, 11, 12, 13, 14, 15, 16, 17, 18, 19, 20, 21, 22, 23, 24, 25, 26, 27, 28, 29, 30, 31, 32, 33, 34, 35, 36, 37, 38, 39, 40, 41, 42, 43, 44, 45, 46, 47, 48, 49, 50, 51, 52, 53, 54, 55, 56, 57, 58, 59, 60, 61, 62, 63, 64, 65, 66, 67, 68, 69, 70, 71, 72, 73, 74, 75, 76, 77, 78, 79, 80, 81, 82, 83, 84, 85, 86, 87, 88, 89, 90, 91, 92, 93, 94, 95, 96, 97, 98, 99, 100, 101, 102, 103, 104, 105, 106, 107, 108, 109, 110, 111, 112, 113, 114, 115, 116, 117, 118, 119, 120, 121, 122, 123, 124, 125, 126, 127, 128, 129, 130, 131, 132, 133, 134, 135, 136, 137, 138, 139, 140, 141, 142, 143, 144, 145, 146, 147, 148, 149, 150, 151, 152, 153, 154, 155, 156, 157, 158, 159, 160, 161, 162, 163, 164, 165, 166, 167, 168, 169, 170, 171, 172, 173, 174, 175, 176, 177, 178, 179, 180, 181, 182, 183, 184, 185, 186, 187, 188, 189, 190, 191, 192, 193, 194, 195, 196, 197, 198, 199, 200, 201, 202, 203, 204, 205, 206, 207, 208, 209, 210, 211, 212, 213, 214, 215, 216, 217, 218, 219, 220, 221, 222, 223, 224, 225, 226, 227, 228, 229, 230, 231, 232, 233, 234, 235, 236, 237, 238, 239, 240, 241, 242, 243, 244, 245, 246, 247, 248, 249, 250, 251, 252, 253, 254, 255, 256, 257, 258, 259, 260, 261, 262, 263, 264, 265, 266, 267, 268, 269, 270, 271, 272, 273, 274, 275, 276, 277, 278, 279, 280, 281, 282, 283, 284, 285, 286, 287, 288, 289, 290, 291, 292, 293, 294, 295, 296, 297, 298, 299, 300, 301, 302, 303, 304, 305, 306, 307, 308, 309, 310, 311, 312, 313, 314, 315, 316, 317, 318, 319, 320, 321, 322, 323, 324, 325, 326, 327, 328, 329, 330, 331, 332, 333, 334, 335, 336, 337, 338, 339, 340, 341, 342, 343, 344, 345, 346, 347, 348, 349, 350, 351, 352, 353, 354, 355, 356, 357, 358, 359, 360, 361, 362, 363, 364, 365, 366, 367, 368, 369, 370, 371, 372, 373, 374, 375, 376, 377, 378, 379, 380, 381, 382, 383, 384, 385, 386, 387, 388, 389, 390, 391, 392],
      "AcquisitionTime": ["095928.417500", "095929.617500", "095930.817500", "095932.017500", "095933.217500", "095934.417500", "095935.617500", "095936.817500", "095938.017500", "095939.217500", "095940.417500", "095941.617500", "095942.817500", "095944.017500", "095945.217500", "095946.417500", "095947.617500", "095948.817500", "095950.017500", "095951.217500", "095952.417500", "095953.617500", "095954.817500", "095956.017500", "095957.217500", "095958.417500", "095959.617500", "100000.817500", "100002.017500", "100003.217500", "100004.417500", "100005.617500", "100006.817500", "100008.017500", "100009.217500", "100010.417500", "100011.617500", "100012.817500", "100014.017500", "100015.217500", "100016.417500", "100017.617500", "100018.817500", "100020.017500", "100021.217500", "100022.417500", "100023.617500", "100024.817500", "100026.017500", "100027.217500", "100028.417500", "100029.617500", "100030.817500", "100032.017500", "100033.217500", "100034.417500", "100035.617500", "100036.817500", "100038.017500", "100039.217500", "100040.417500", "100041.617500", "100042.817500", "100044.017500", "100045.217500", "100046.417500", "100047.617500", "100048.817500", "100050.017500", "100051.217500", "100052.417500", "100053.617500", "100054.817500", "100056.017500", "100057.217500", "100058.417500", "100059.617500", "100100.817500", "100102.017500", "100103.217500", "100104.417500", "100105.617500", "100106.817500", "100108.017500", "100109.217500", "100110.417500", "100111.617500", "100112.817500", "100114.017500", "100115.217500", "100116.417500", "100117.617500", "100118.817500", "100120.017500", "100121.217500", "100122.417500", "100123.617500", "100124.817500", "100126.017500", "100127.217500", "100128.417500", "100129.617500", "100130.817500", "100132.017500", "100133.217500", "100134.417500", "100135.617500", "100136.817500", "100138.017500", "100139.217500", "100140.417500", "100141.617500", "100142.817500", "100144.017500", "100145.217500", "100146.417500", "100147.617500", "100148.817500", "100150.017500", "100151.217500", "100152.417500", "100153.617500", "100154.817500", "100156.017500", "100157.217500", "100158.417500", "100159.617500", "100200.817500", "100202.017500", "100203.217500", "100204.417500", "100205.617500", "100206.817500", "100208.017500", "100209.217500", "100210.417500", "100211.617500", "100212.817500", "100214.017500", "100215.217500", "100216.417500", "100217.617500", "100218.817500", "100220.017500", "100221.217500", "100222.417500", "100223.617500", "100224.817500", "100226.017500", "100227.217500", "100228.417500", "100229.617500", "100230.817500", "100232.017500", "100233.217500", "100234.417500", "100235.617500", "100236.817500", "100238.017500", "100239.217500", "100240.417500", "100241.617500", "100242.817500", "100244.017500", "100245.217500", "100246.417500", "100247.617500", "100248.817500", "100250.017500", "100251.217500", "100252.417500", "100253.617500", "100254.817500", "100256.017500", "100257.217500", "100258.417500", "100259.617500", "100300.817500", "100302.017500", "100303.217500", "100304.417500", "100305.617500", "100306.817500", "100308.017500", "100309.217500", "100310.417500", "100311.617500", "100312.817500", "100314.017500", "100315.217500", "100316.417500", "100317.617500", "100318.817500", "100320.017500", "100321.217500", "100322.417500", "100323.617500", "100324.817500", "100326.017500", "100327.217500", "100328.417500", "100329.617500", "100330.817500", "100332.017500", "100333.217500", "100334.417500", "100335.617500", "100336.817500", "100338.017500", "100339.217500", "100340.417500", "100341.617500", "100342.817500", "100344.017500", "100345.217500", "100346.417500", "100347.617500", "100348.817500", "100350.017500", "100351.217500", "100352.417500", "100353.617500", "100354.817500", "100356.017500", "100357.217500", "100358.417500", "100359.617500", "100400.817500", "100402.017500", "100403.217500", "100404.417500", "100405.617500", "100406.817500", "100408.017500", "100409.217500", "100410.417500", "100411.617500", "100412.817500", "100414.017500", "100415.217500", "100416.417500", "100417.617500", "100418.817500", "100420.017500", "100421.217500", "100422.417500", "100423.617500", "100424.817500", "100426.017500", "100427.217500", "100428.417500", "100429.617500", "100430.817500", "100432.017500", "100433.217500", "100434.417500", "100435.617500", "100436.817500", "100438.017500", "100439.217500", "100440.417500", "100441.617500", "100442.817500", "100444.017500", "100445.217500", "100446.417500", "100447.617500", "100448.817500", "100450.017500", "100451.217500", "100452.417500", "100453.617500", "100454.817500", "100456.017500", "100457.217500", "100458.417500", "100459.617500", "100500.817500", "100502.017500", "100503.217500", "100504.417500", "100505.617500", "100506.817500", "100508.017500", "100509.217500", "100510.417500", "100511.617500", "100512.817500", "100514.017500", "100515.217500", "100516.417500", "100517.617500", "100518.817500", "100520.017500", "100521.217500", "100522.417500", "100523.617500", "100524.817500", "100526.017500", "100527.217500", "100528.417500", "100529.617500", "100530.817500", "100532.017500", "100533.217500", "100534.417500", "100535.617500", "100536.817500", "100538.017500", "100539.217500", "100540.417500", "100541.617500", "100542.817500", "100544.017500", "100545.217500", "100546.417500", "100547.617500", "100548.817500", "100550.017500", "100551.217500", "100552.417500", "100553.617500", "100554.817500", "100556.017500", "100557.217500", "100558.417500", "100559.617500", "100600.817500", "100602.017500", "100603.217500", "100604.417500", "100605.617500", "100606.817500", "100608.017500", "100609.217500", "100610.417500", "100611.617500", "100612.817500", "100614.017500", "100615.217500", "100616.417500", "100617.617500", "100618.817500", "100620.017500", "100621.217500", "100622.417500", "100623.617500", "100624.817500", "100626.017500", "100627.217500", "100628.417500", "100629.617500", "100630.817500", "100632.017500", "100633.217500", "100634.417500", "100635.617500", "100636.817500", "100638.017500", "100639.217500", "100640.417500", "100641.617500", "100642.817500", "100644.017500", "100645.217500", "100646.417500", "100647.617500", "100648.817500", "100650.017500", "100651.217500", "100652.417500", "100653.617500", "100654.817500", "100656.017500", "100657.217500", "100658.417500", "100659.617500", "100700.817500", "100702.017500", "100703.217500", "100704.417500", "100705.617500", "100706.817500", "100708.017500", "100709.217500", "100710.417500", "100711.617500", "100712.817500", "100714.017500", "100715.217500", "100716.417500", "100717.617500"],
      "ContentTime": ["095959.014000", "095959.017000", "095959.020000", "095959.023000", "095959.025000", "095959.028000", "095959.031000", "095959.033000", "095959.036000", "095959.038000", "095959.041000", "095959.043000", "095959.046000", "095959.049000", "095959.061000", "095959.064000", "095959.066000", "095959.069000", "095959.071000", "095959.074000", "095959.076000", "095959.079000", "095959.087000", "095959.089000", "095959.092000", "100039.010000", "100039.012000", "100039.015000", "100039.018000", "100039.020000", "100039.023000", "100039.025000", "100039.028000", "100039.031000", "100039.033000", "100039.036000", "100039.039000", "100039.042000", "100039.045000", "100039.047000", "100039.050000", "100039.053000", "100039.055000", "100039.058000", "100039.060000", "100039.063000", "100039.065000", "100039.068000", "100039.071000", "100039.073000", "100039.086000", "100039.089000", "100039.092000", "100039.094000", "100039.097000", "100039.100000", "100039.102000", "100039.105000", "100119.009000", "100119.012000", "100119.015000", "100119.017000", "100119.020000", "100119.022000", "100119.025000", "100119.028000", "100119.030000", "100119.033000", "100119.036000", "100119.038000", "100119.041000", "100119.043000", "100119.046000", "100119.049000", "100119.051000", "100119.054000", "100119.056000", "100119.059000", "100119.061000", "100119.064000", "100119.067000", "100119.069000", "100119.072000", "100119.074000", "100119.077000", "100119.079000", "100119.082000", "100119.084000", "100119.087000", "100119.094000", "100119.096000", "100119.099000", "100159.009000", "100159.012000", "100159.015000", "100159.018000", "100159.020000", "100159.023000", "100159.026000", "100159.028000", "100159.031000", "100159.036000", "100159.039000", "100159.042000", "100159.044000", "100159.047000", "100159.050000", "100159.052000", "100159.055000", "100159.057000", "100159.060000", "100159.063000", "100159.070000", "100159.072000", "100159.075000", "100159.077000", "100159.080000", "100159.102000", "100159.113000", "100159.115000", "100159.118000", "100159.120000", "100159.123000", "100159.126000", "100159.128000", "100239.010000", "100239.013000", "100239.015000", "100239.018000", "100239.020000", "100239.023000", "100239.026000", "100239.028000", "100239.031000", "100239.033000", "100239.036000", "100239.039000", "100239.041000", "100239.044000", "100239.046000", "100239.049000", "100239.052000", "100239.054000", "100239.057000", "100239.059000", "100239.062000", "100239.065000", "100239.067000", "100239.070000", "100239.072000", "100239.075000", "100239.077000", "100239.080000", "100239.083000", "100239.085000", "100239.088000", "100239.090000", "100239.093000", "100319.011000", "100319.013000", "100319.016000", "100319.019000", "100319.021000", "100319.024000", "100319.027000", "100319.029000", "100319.032000", "100319.034000", "100319.037000", "100319.039000", "100319.042000", "100319.045000", "100319.047000", "100319.050000", "100319.053000", "100319.055000", "100319.058000", "100319.060000", "100319.063000", "100319.065000", "100319.068000", "100319.070000", "100319.073000", "100319.076000", "100319.078000", "100319.081000", "100319.083000", "100319.086000", "100319.089000", "100319.099000", "100319.102000", "100319.104000", "100359.009000", "100359.012000", "100359.015000", "100359.017000", "100359.020000", "100359.023000", "100359.025000", "100359.028000", "100359.030000", "100359.033000", "100359.036000", "100359.038000", "100359.041000", "100359.044000", "100359.046000", "100359.049000", "100359.051000", "100359.054000", "100359.056000", "100359.059000", "100359.068000", "100359.071000", "100359.073000", "100359.076000", "100359.078000", "100359.081000", "100359.084000", "100359.086000", "100359.089000", "100359.091000", "100359.094000", "100359.096000", "100359.099000", "100439.009000", "100439.012000", "100439.015000", "100439.018000", "100439.020000", "100439.023000", "100439.026000", "100439.028000", "100439.031000", "100439.034000", "100439.036000", "100439.039000", "100439.042000", "100439.044000", "100439.047000", "100439.049000", "100439.052000", "100439.055000", "100439.057000", "100439.060000", "100439.071000", "100439.074000", "100439.076000", "100439.079000", "100439.081000", "100439.084000", "100439.087000", "100439.089000", "100439.092000", "100439.094000", "100439.097000", "100439.099000", "100439.102000", "100519.011000", "100519.013000", "100519.016000", "100519.019000", "100519.022000", "100519.024000", "100519.027000", "100519.029000", "100519.032000", "100519.035000", "100519.037000", "100519.040000", "100519.043000", "100519.045000", "100519.048000", "100519.050000", "100519.053000", "100519.056000", "100519.058000", "100519.061000", "100519.063000", "100519.066000", "100519.069000", "100519.071000", "100519.074000", "100519.076000", "100519.079000", "100519.081000", "100519.092000", "100519.095000", "100519.097000", "100519.100000", "100519.103000", "100519.105000", "100559.010000", "100559.013000", "100559.015000", "100559.018000", "100559.020000", "100559.023000", "100559.026000", "100559.029000", "100559.031000", "100559.034000", "100559.036000", "100559.039000", "100559.042000", "100559.044000", "100559.047000", "100559.050000", "100559.052000", "100559.055000", "100559.057000", "100559.060000", "100559.066000", "100559.069000", "100559.085000", "100559.088000", "100559.091000", "100559.093000", "100559.096000", "100559.099000", "100559.101000", "100559.104000", "100559.106000", "100559.109000", "100559.111000", "100639.009000", "100639.012000", "100639.015000", "100639.018000", "100639.020000", "100639.023000", "100639.026000", "100639.028000", "100639.031000", "100639.033000", "100639.036000", "100639.039000", "100639.041000", "100639.044000", "100639.046000", "100639.049000", "100639.052000", "100639.054000", "100639.057000", "100639.062000", "100639.065000", "100639.067000", "100639.070000", "100639.072000", "100639.075000", "100639.078000", "100639.080000", "100639.083000", "100639.086000", "100639.088000", "100639.091000", "100639.093000", "100639.096000", "100718.931000", "100718.934000", "100718.937000", "100718.939000", "100718.942000", "100718.945000", "100718.947000", "100718.950000", "100718.952000", "100718.955000", "100718.958000", "100718.961000", "100718.963000", "100718.966000", "100718.968000", "100718.971000", "100718.974000", "100718.976000", "100718.979000", "100718.981000", "100718.984000", "100718.986000", "100718.989000", "100718.992000", "100719.002000", "100719.005000", "100719.007000", "100719.010000", "100719.013000", "100719.015000", "100719.018000", "100719.021000", "100719.024000", "100719.030000"],
      "InstanceCreationTime": ["095959.014000", "095959.017000", "095959.020000", "095959.023000", "095959.025000", "095959.028000", "095959.031000", "095959.033000", "095959.036000", "095959.038000", "095959.041000", "095959.043000", "095959.046000", "095959.049000", "095959.061000", "095959.064000", "095959.066000", "095959.069000", "095959.071000", "095959.074000", "095959.076000", "095959.079000", "095959.087000", "095959.089000", "095959.092000", "100039.010000", "100039.012000", "100039.015000", "100039.018000", "100039.020000", "100039.023000", "100039.025000", "100039.028000", "100039.031000", "100039.033000", "100039.036000", "100039.039000", "100039.042000", "100039.045000", "100039.047000", "100039.050000", "100039.053000", "100039.055000", "100039.058000", "100039.060000", "100039.063000", "100039.065000", "100039.068000", "100039.071000", "100039.073000", "100039.086000", "100039.089000", "100039.092000", "100039.094000", "100039.097000", "100039.100000", "100039.102000", "100039.105000", "100119.009000", "100119.012000", "100119.015000", "100119.017000", "100119.020000", "100119.022000", "100119.025000", "100119.028000", "100119.030000", "100119.033000", "100119.036000", "100119.038000", "100119.041000", "100119.043000", "100119.046000", "100119.049000", "100119.051000", "100119.054000", "100119.056000", "100119.059000", "100119.061000", "100119.064000", "100119.067000", "100119.069000", "100119.072000", "100119.074000", "100119.077000", "100119.079000", "100119.082000", "100119.084000", "100119.087000", "100119.094000", "100119.096000", "100119.099000", "100159.009000", "100159.012000", "100159.015000", "100159.018000", "100159.020000", "100159.023000", "100159.026000", "100159.028000", "100159.031000", "100159.036000", "100159.039000", "100159.042000", "100159.044000", "100159.047000", "100159.050000", "100159.052000", "100159.055000", "100159.057000", "100159.060000", "100159.063000", "100159.070000", "100159.072000", "100159.075000", "100159.077000", "100159.080000", "100159.102000", "100159.113000", "100159.115000", "100159.118000", "100159.120000", "100159.123000", "100159.126000", "100159.128000", "100239.010000", "100239.013000", "100239.015000", "100239.018000", "100239.020000", "100239.023000", "100239.026000", "100239.028000", "100239.031000", "100239.033000", "100239.036000", "100239.039000", "100239.041000", "100239.044000", "100239.046000", "100239.049000", "100239.052000", "100239.054000", "100239.057000", "100239.059000", "100239.062000", "100239.065000", "100239.067000", "100239.070000", "100239.072000", "100239.075000", "100239.077000", "100239.080000", "100239.083000", "100239.085000", "100239.088000", "100239.090000", "100239.093000", "100319.011000", "100319.013000", "100319.016000", "100319.019000", "100319.021000", "100319.024000", "100319.027000", "100319.029000", "100319.032000", "100319.034000", "100319.037000", "100319.039000", "100319.042000", "100319.045000", "100319.047000", "100319.050000", "100319.053000", "100319.055000", "100319.058000", "100319.060000", "100319.063000", "100319.065000", "100319.068000", "100319.070000", "100319.073000", "100319.076000", "100319.078000", "100319.081000", "100319.083000", "100319.086000", "100319.089000", "100319.099000", "100319.102000", "100319.104000", "100359.009000", "100359.012000", "100359.015000", "100359.017000", "100359.020000", "100359.023000", "100359.025000", "100359.028000", "100359.030000", "100359.033000", "100359.036000", "100359.038000", "100359.041000", "100359.044000", "100359.046000", "100359.049000", "100359.051000", "100359.054000", "100359.056000", "100359.059000", "100359.068000", "100359.071000", "100359.073000", "100359.076000", "100359.078000", "100359.081000", "100359.084000", "100359.086000", "100359.089000", "100359.091000", "100359.094000", "100359.096000", "100359.099000", "100439.009000", "100439.012000", "100439.015000", "100439.018000", "100439.020000", "100439.023000", "100439.026000", "100439.028000", "100439.031000", "100439.034000", "100439.036000", "100439.039000", "100439.042000", "100439.044000", "100439.047000", "100439.049000", "100439.052000", "100439.055000", "100439.057000", "100439.060000", "100439.071000", "100439.074000", "100439.076000", "100439.079000", "100439.081000", "100439.084000", "100439.087000", "100439.089000", "100439.092000", "100439.094000", "100439.097000", "100439.099000", "100439.102000", "100519.011000", "100519.013000", "100519.016000", "100519.019000", "100519.022000", "100519.024000", "100519.027000", "100519.029000", "100519.032000", "100519.035000", "100519.037000", "100519.040000", "100519.043000", "100519.045000", "100519.048000", "100519.050000", "100519.053000", "100519.056000", "100519.058000", "100519.061000", "100519.063000", "100519.066000", "100519.069000", "100519.071000", "100519.074000", "100519.076000", "100519.079000", "100519.081000", "100519.092000", "100519.095000", "100519.097000", "100519.100000", "100519.103000", "100519.105000", "100559.010000", "100559.013000", "100559.015000", "100559.018000", "100559.020000", "100559.023000", "100559.026000", "100559.029000", "100559.031000", "100559.034000", "100559.036000", "100559.039000", "100559.042000", "100559.044000", "100559.047000", "100559.050000", "100559.052000", "100559.055000", "100559.057000", "100559.060000", "100559.066000", "100559.069000", "100559.085000", "100559.088000", "100559.091000", "100559.093000", "100559.096000", "100559.099000", "100559.101000", "100559.104000", "100559.106000", "100559.109000", "100559.111000", "100639.009000", "100639.012000", "100639.015000", "100639.018000", "100639.020000", "100639.023000", "100639.026000", "100639.028000", "100639.031000", "100639.033000", "100639.036000", "100639.039000", "100639.041000", "100639.044000", "100639.046000", "100639.049000", "100639.052000", "100639.054000", "100639.057000", "100639.062000", "100639.065000", "100639.067000", "100639.070000", "100639.072000", "100639.075000", "100639.078000", "100639.080000", "100639.083000", "100639.086000", "100639.088000", "100639.091000", "100639.093000", "100639.096000", "100718.931000", "100718.934000", "100718.937000", "100718.939000", "100718.942000", "100718.945000", "100718.947000", "100718.950000", "100718.952000", "100718.955000", "100718.958000", "100718.961000", "100718.963000", "100718.966000", "100718.968000", "100718.971000", "100718.974000", "100718.976000", "100718.979000", "100718.981000", "100718.984000", "100718.986000", "100718.989000", "100718.992000", "100719.002000", "100719.005000", "100719.007000", "100719.010000", "100719.013000", "100719.015000", "100719.018000", "100719.021000", "100719.024000", "100719.030000"],
      "InstanceNumber": [1, 2, 3, 4, 5, 6, 7, 8, 9, 10, 11, 12, 13, 14, 15, 16, 17, 18, 19, 20, 21, 22, 23, 24, 25, 26, 27, 28, 29, 30, 31, 32, 33, 34, 35, 36, 37, 38, 39, 40, 41, 42, 43, 44, 45, 46, 47, 48, 49, 50, 51, 52, 53, 54, 55, 56, 57, 58, 59, 60, 61, 62, 63, 64, 65, 66, 67, 68, 69, 70, 71, 72, 73, 74, 75, 76, 77, 78, 79, 80, 81, 82, 83, 84, 85, 86, 87, 88, 89, 90, 91, 92, 93, 94, 95, 96, 97, 98, 99, 100, 101, 102, 103, 104, 105, 106, 107, 108, 109, 110, 111, 112, 113, 114, 115, 116, 117, 118, 119, 120, 121, 122, 123, 124, 125, 126, 127, 128, 129, 130, 131, 132, 133, 134, 135, 136, 137, 138, 139, 140, 141, 142, 143, 144, 145, 146, 147, 148, 149, 150, 151, 152, 153, 154, 155, 156, 157, 158, 159, 160, 161, 162, 163, 164, 165, 166, 167, 168, 169, 170, 171, 172, 173, 174, 175, 176, 177, 178, 179, 180, 181, 182, 183, 184, 185, 186, 187, 188, 189, 190, 191, 192, 193, 194, 195, 196, 197, 198, 199, 200, 201, 202, 203, 204, 205, 206, 207, 208, 209, 210, 211, 212, 213, 214, 215, 216, 217, 218, 219, 220, 221, 222, 223, 224, 225, 226, 227, 228, 229, 230, 231, 232, 233, 234, 235, 236, 237, 238, 239, 240, 241, 242, 243, 244, 245, 246, 247, 248, 249, 250, 251, 252, 253, 254, 255, 256, 257, 258, 259, 260, 261, 262, 263, 264, 265, 266, 267, 268, 269, 270, 271, 272, 273, 274, 275, 276, 277, 278, 279, 280, 281, 282, 283, 284, 285, 286, 287, 288, 289, 290, 291, 292, 293, 294, 295, 296, 297, 298, 299, 300, 301, 302, 303, 304, 305, 306, 307, 308, 309, 310, 311, 312, 313, 314, 315, 316, 317, 318, 319, 320, 321, 322, 323, 324, 325, 326, 327, 328, 329, 330, 331, 332, 333, 334, 335, 336, 337, 338, 339, 340, 341, 342, 343, 344, 345, 346, 347, 348, 349, 350, 351, 352, 353, 354, 355, 356, 357, 358, 359, 360, 361, 362, 363, 364, 365, 366, 367, 368, 369, 370, 371, 372, 373, 374, 375, 376, 377, 378, 379, 380, 381, 382, 383, 384, 385, 386, 387, 388, 389, 390, 391, 392],
