{
  "AcquisitionMatrixPE": 88,
  "AcquisitionNumber": 1,
  "AcquisitionTime": "10:47:8.357500",
  "BandwidthPerPixelPhaseEncode": 19.592,
  "BaseResolution": 88,
  "BodyPartExamined": "BRAIN",
  "ConsistencyInfo": "N4_VE11C_LATEST_20160120",
  "ConversionSoftware": "dcm2niix",
  "ConversionSoftwareVersion": "v1.0.20190902",
  "DerivedVendorReportedEchoSpacing": 0.000580014,
  "DeviceSerialNumber": "67050",
  "DwellTime": 2.6e-06,
  "EchoTime": 0.033,
  "EchoTrainLength": 88,
  "EffectiveEchoSpacing": 0.000580014,
  "FlipAngle": 62,
  "ImageOrientationPatientDICOM": [0.991968, -0.040582, 0.119806, 0.046086, 0.997988, -0.0435323],
  "ImageType": [
    "ORIGINAL",
    "PRIMARY",
    "M",
    "ND",
    "MOSAIC"
],
  "ImagingFrequency": 123.25,
  "InPlanePhaseEncodingDirectionDICOM": "COL",
  "InstitutionAddress": "Olive_Street_60_Providence_RI_US_02912",
  "InstitutionName": "BROWN_UNIVERSITY_MRF",
  "InstitutionalDepartmentName": "Department",
  "MRAcquisitionType": "2D",
  "MagneticFieldStrength": 3,
  "Manufacturer": "Siemens",
  "ManufacturersModelName": "Prisma_fit",
  "Modality": "MR",
  "MultibandAccelerationFactor": 4,
  "PartialFourier": 1,
  "PatientPosition": "HFS",
  "PercentPhaseFOV": 100,
  "PhaseEncodingDirection": "j-",
  "PhaseEncodingSteps": 88,
  "PhaseResolution": 1,
  "PixelBandwidth": 2185,
  "ProcedureStepDescription": "ASHENHAV_1222",
  "ProtocolName": "func-bold_task-RDMcolor_run-05",
  "PulseSequenceDetails": "%SiemensSeq%_ep2d_bold",
  "ReceiveCoilActiveElements": "HC1-7;NC1",
  "ReceiveCoilName": "HeadNeck_64",
  "ReconMatrixPE": 88,
  "RefLinesPE": 8,
  "RepetitionTime": 1.2,
  "SAR": 0.0448937,
  "ScanOptions": "FS",
  "ScanningSequence": "EP",
  "SequenceName": "_epfid2d1_88",
  "SequenceVariant": "SK",
  "SeriesDescription": "func-bold_task-RDMcolor_run-05",
  "SeriesNumber": 16,
  "ShimSetting": [1754, -9132, 4447, 592, -215, -218, -40, 12],
  "SliceThickness": 2.4,
  "SliceTiming": [0.55, 0, 0.6275, 0.0775, 0.7075, 0.1575, 0.785, 0.235, 0.865, 0.315, 0.9425, 0.3925, 1.0225, 0.4725, 1.1, 0.55, 0, 0.6275, 0.0775, 0.7075, 0.1575, 0.785, 0.235, 0.865, 0.315, 0.9425, 0.3925, 1.0225, 0.4725, 1.1, 0.55, 0, 0.6275, 0.0775, 0.7075, 0.1575, 0.785, 0.235, 0.865, 0.315, 0.9425, 0.3925, 1.0225, 0.4725, 1.1, 0.55, 0, 0.6275, 0.0775, 0.7075, 0.1575, 0.785, 0.235, 0.865, 0.315, 0.9425, 0.3925, 1.0225, 0.4725, 1.1],
  "SoftwareVersions": "syngo_MR_E11",
  "SpacingBetweenSlices": 2.4,
  "StationName": "AWP67050",
  "TaskName": "RDMcolor",
  "TotalReadoutTime": 0.0504612,
  "TxRefAmp": 217.084,
  "dcmmeta_affine": [
    [-2.3784677982330322, 0.11050157994031906, 0.2827153503894806, 95.86100769042969],
    [0.0973045825958252, 2.392904281616211, -0.11688947677612305, -93.6602783203125],
    [0.28726133704185486, 0.10437847673892975, 2.3804221153259277, -68.33333587646484],
    [0.0, 0.0, 0.0, 1.0]
],
  "dcmmeta_reorient_transform": [
    [0.0, -1.0, 0.0, 87.0],
    [1.0, 0.0, 0.0, 0.0],
    [0.0, 0.0, 1.0, 0.0],
    [0.0, 0.0, 0.0, 1.0]
],
  "dcmmeta_shape": [88, 88, 60, 392],
  "dcmmeta_slice_dim": 2,
  "dcmmeta_version": 0.6,
  "global": {
    "const": {
      "AcquisitionMatrix": [88, 0, 0, 88],
      "AngioFlag": "N",
      "BitsAllocated": 16,
      "BitsStored": 12,
      "BodyPartExamined": "BRAIN",
      "Columns": 704,
      "DeidentificationMethodCodeSequence": [
        {
          "CodeMeaning": "XNAT DicomEdit 6 Script",
          "CodeValue": "3",
          "CodingSchemeDesignator": "XNAT",
          "CodingSchemeVersion": "1.0"}
],
      "EchoNumbers": 1,
      "EchoTime": 33.0,
      "EchoTrainLength": 88,
      "FlipAngle": 62.0,
      "HighBit": 11,
      "ImageOrientationPatient": [0.99196759010785, -0.0405820056992, 0.11980568012013, 0.04608596755381, 0.99798849003879, -0.0435322563707],
      "ImagePositionPatient": [-872.07718810915, -821.56706908689, -115.58032783942],
      "ImageType": [
        "ORIGINAL",
        "PRIMARY",
        "M",
        "ND",
        "MOSAIC"
],
      "ImagedNucleus": "1H",
      "ImagingFrequency": 123.250497,
      "InPlanePhaseEncodingDirection": "COL",
      "MRAcquisitionType": "2D",
      "MagneticFieldStrength": 3.0,
      "Manufacturer": "SIEMENS",
      "ManufacturerModelName": "Prisma_fit",
      "Modality": "MR",
      "NumberOfAverages": 1.0,
      "NumberOfPhaseEncodingSteps": 88,
      "PercentPhaseFieldOfView": 100.0,
      "PercentSampling": 100.0,
      "PerformedProcedureStepStartTime": "094920.742000",
      "PhotometricInterpretation": "MONOCHROME2",
      "PixelBandwidth": 2185.0,
      "PixelRepresentation": 0,
      "PixelSpacing": [2.3977272510529, 2.3977272510529],
      "ProtocolName": "func-bold_task-RDMcolor_run-05",
      "RepetitionTime": 1200.0,
      "Rows": 704,
      "SAR": 0.04489371860189,
      "SamplesPerPixel": 1,
      "ScanOptions": "FS",
      "ScanningSequence": "EP",
      "SequenceName": "*epfid2d1_88",
      "SequenceVariant": "SK",
      "SeriesDescription": "func-bold_task-RDMcolor_run-05",
      "SeriesNumber": 16,
      "SeriesTime": "104717.068000",
      "SliceLocation": -51.922037047307,
      "SliceThickness": 2.4000000953674,
      "SmallestImagePixelValue": 0,
      "SoftwareVersions": "syngo MR E11",
      "SpacingBetweenSlices": 2.4000000470758,
      "SpecificCharacterSet": "ISO_IR 100",
      "StudyID": "1",
      "StudyTime": "094920.527000",
      "TransmitCoilName": "Body",
      "VariableFlipAngleFlag": "N",
      "WindowCenterWidthExplanation": "Algo1",
      "dBdt": 0.0},
    "slices": {}
  },
  "time": {
    "samples": {
      "AcquisitionNumber": [1, 2, 3, 4, 5, 6, 7, 8, 9, 10, 11, 12, 13, 14, 15, 16, 17, 18, 19, 20, 21, 22, 23, 24, 25, 26, 27, 28, 29, 30, 31, 32, 33, 34, 35, 36, 37, 38, 39, 40, 41, 42, 43, 44, 45, 46, 47, 48, 49, 50, 51, 52, 53, 54, 55, 56, 57, 58, 59, 60, 61, 62, 63, 64, 65, 66, 67, 68, 69, 70, 71, 72, 73, 74, 75, 76, 77, 78, 79, 80, 81, 82, 83, 84, 85, 86, 87, 88, 89, 90, 91, 92, 93, 94, 95, 96, 97, 98, 99, 100, 101, 102, 103, 104, 105, 106, 107, 108, 109, 110, 111, 112, 113, 114, 115, 116, 117, 118, 119, 120, 121, 122, 123, 124, 125, 126, 127, 128, 129, 130, 131, 132, 133, 134, 135, 136, 137, 138, 139, 140, 141, 142, 143, 144, 145, 146, 147, 148, 149, 150, 151, 152, 153, 154, 155, 156, 157, 158, 159, 160, 161, 162, 163, 164, 165, 166, 167, 168, 169, 170, 171, 172, 173, 174, 175, 176, 177, 178, 179, 180, 181, 182, 183, 184, 185, 186, 187, 188, 189, 190, 191, 192, 193, 194, 195, 196, 197, 198, 199, 200, 201, 202, 203, 204, 205, 206, 207, 208, 209, 210, 211, 212, 213, 214, 215, 216, 217, 218, 219, 220, 221, 222, 223, 224, 225, 226, 227, 228, 229, 230, 231, 232, 233, 234, 235, 236, 237, 238, 239, 240, 241, 242, 243, 244, 245, 246, 247, 248, 249, 250, 251, 252, 253, 254, 255, 256, 257, 258, 259, 260, 261, 262, 263, 264, 265, 266, 267, 268, 269, 270, 271, 272, 273, 274, 275, 276, 277, 278, 279, 280, 281, 282, 283, 284, 285, 286, 287, 288, 289, 290, 291, 292, 293, 294, 295, 296, 297, 298, 299, 300, 301, 302, 303, 304, 305, 306, 307, 308, 309, 310, 311, 312, 313, 314, 315, 316, 317, 318, 319, 320, 321, 322, 323, 324, 325, 326, 327, 328, 329, 330, 331, 332, 333, 334, 335, 336, 337, 338, 339, 340, 341, 342, 343, 344, 345, 346, 347, 348, 349, 350, 351, 352, 353, 354, 355, 356, 357, 358, 359, 360, 361, 362, 363, 364, 365, 366, 367, 368, 369, 370, 371, 372, 373, 374, 375, 376, 377, 378, 379, 380, 381, 382, 383, 384, 385, 386, 387, 388, 389, 390, 391, 392],
      "AcquisitionTime": ["104708.357500", "104709.557500", "104710.757500", "104711.957500", "104713.157500", "104714.357500", "104715.557500", "104716.757500", "104717.957500", "104719.157500", "104720.357500", "104721.557500", "104722.757500", "104723.957500", "104725.157500", "104726.357500", "104727.557500", "104728.757500", "104729.957500", "104731.157500", "104732.357500", "104733.557500", "104734.757500", "104735.957500", "104737.157500", "104738.357500", "104739.557500", "104740.757500", "104741.957500", "104743.157500", "104744.357500", "104745.557500", "104746.757500", "104747.957500", "104749.157500", "104750.357500", "104751.557500", "104752.757500", "104753.957500", "104755.157500", "104756.357500", "104757.557500", "104758.757500", "104759.957500", "104801.157500", "104802.357500", "104803.557500", "104804.757500", "104805.957500", "104807.157500", "104808.357500", "104809.557500", "104810.757500", "104811.957500", "104813.157500", "104814.357500", "104815.557500", "104816.757500", "104817.957500", "104819.157500", "104820.357500", "104821.557500", "104822.757500", "104823.957500", "104825.157500", "104826.357500", "104827.557500", "104828.757500", "104829.957500", "104831.157500", "104832.357500", "104833.557500", "104834.757500", "104835.957500", "104837.157500", "104838.357500", "104839.557500", "104840.757500", "104841.957500", "104843.157500", "104844.357500", "104845.557500", "104846.757500", "104847.957500", "104849.157500", "104850.357500", "104851.557500", "104852.757500", "104853.957500", "104855.157500", "104856.357500", "104857.557500", "104858.757500", "104859.957500", "104901.157500", "104902.357500", "104903.557500", "104904.757500", "104905.957500", "104907.157500", "104908.357500", "104909.557500", "104910.757500", "104911.957500", "104913.157500", "104914.357500", "104915.557500", "104916.757500", "104917.957500", "104919.157500", "104920.357500", "104921.557500", "104922.757500", "104923.957500", "104925.157500", "104926.357500", "104927.557500", "104928.757500", "104929.957500", "104931.157500", "104932.357500", "104933.557500", "104934.757500", "104935.957500", "104937.157500", "104938.357500", "104939.557500", "104940.757500", "104941.957500", "104943.157500", "104944.357500", "104945.557500", "104946.757500", "104947.957500", "104949.157500", "104950.357500", "104951.557500", "104952.757500", "104953.957500", "104955.157500", "104956.357500", "104957.557500", "104958.757500", "104959.957500", "105001.157500", "105002.357500", "105003.557500", "105004.757500", "105005.957500", "105007.157500", "105008.357500", "105009.557500", "105010.757500", "105011.957500", "105013.157500", "105014.357500", "105015.557500", "105016.757500", "105017.957500", "105019.157500", "105020.357500", "105021.557500", "105022.757500", "105023.957500", "105025.157500", "105026.357500", "105027.557500", "105028.757500", "105029.957500", "105031.157500", "105032.357500", "105033.557500", "105034.757500", "105035.957500", "105037.157500", "105038.357500", "105039.557500", "105040.757500", "105041.957500", "105043.157500", "105044.357500", "105045.557500", "105046.757500", "105047.957500", "105049.157500", "105050.357500", "105051.557500", "105052.757500", "105053.957500", "105055.157500", "105056.357500", "105057.557500", "105058.757500", "105059.957500", "105101.157500", "105102.357500", "105103.557500", "105104.757500", "105105.957500", "105107.157500", "105108.357500", "105109.557500", "105110.757500", "105111.957500", "105113.157500", "105114.357500", "105115.557500", "105116.757500", "105117.957500", "105119.157500", "105120.357500", "105121.557500", "105122.757500", "105123.957500", "105125.157500", "105126.357500", "105127.557500", "105128.757500", "105129.957500", "105131.157500", "105132.357500", "105133.557500", "105134.757500", "105135.957500", "105137.157500", "105138.357500", "105139.557500", "105140.757500", "105141.957500", "105143.157500", "105144.357500", "105145.557500", "105146.757500", "105147.957500", "105149.157500", "105150.357500", "105151.557500", "105152.757500", "105153.957500", "105155.157500", "105156.357500", "105157.557500", "105158.757500", "105159.957500", "105201.157500", "105202.357500", "105203.557500", "105204.757500", "105205.957500", "105207.157500", "105208.357500", "105209.557500", "105210.757500", "105211.957500", "105213.157500", "105214.357500", "105215.557500", "105216.757500", "105217.957500", "105219.157500", "105220.357500", "105221.557500", "105222.757500", "105223.957500", "105225.157500", "105226.357500", "105227.557500", "105228.757500", "105229.957500", "105231.157500", "105232.357500", "105233.557500", "105234.757500", "105235.957500", "105237.157500", "105238.357500", "105239.557500", "105240.757500", "105241.957500", "105243.157500", "105244.357500", "105245.557500", "105246.757500", "105247.957500", "105249.157500", "105250.357500", "105251.557500", "105252.757500", "105253.957500", "105255.157500", "105256.357500", "105257.557500", "105258.757500", "105259.957500", "105301.157500", "105302.357500", "105303.557500", "105304.757500", "105305.957500", "105307.157500", "105308.357500", "105309.557500", "105310.757500", "105311.957500", "105313.157500", "105314.357500", "105315.557500", "105316.757500", "105317.957500", "105319.157500", "105320.357500", "105321.557500", "105322.757500", "105323.957500", "105325.157500", "105326.357500", "105327.557500", "105328.757500", "105329.957500", "105331.157500", "105332.357500", "105333.557500", "105334.757500", "105335.957500", "105337.157500", "105338.357500", "105339.557500", "105340.757500", "105341.957500", "105343.157500", "105344.357500", "105345.557500", "105346.757500", "105347.957500", "105349.157500", "105350.357500", "105351.557500", "105352.757500", "105353.957500", "105355.157500", "105356.357500", "105357.557500", "105358.757500", "105359.957500", "105401.157500", "105402.357500", "105403.557500", "105404.757500", "105405.957500", "105407.157500", "105408.357500", "105409.557500", "105410.757500", "105411.957500", "105413.157500", "105414.357500", "105415.557500", "105416.757500", "105417.957500", "105419.157500", "105420.357500", "105421.557500", "105422.757500", "105423.957500", "105425.157500", "105426.357500", "105427.557500", "105428.757500", "105429.957500", "105431.157500", "105432.357500", "105433.557500", "105434.757500", "105435.957500", "105437.157500", "105438.357500", "105439.557500", "105440.757500", "105441.957500", "105443.157500", "105444.357500", "105445.557500", "105446.757500", "105447.957500", "105449.157500", "105450.357500", "105451.557500", "105452.757500", "105453.957500", "105455.157500", "105456.357500", "105457.557500"],
      "ContentTime": ["104717.072000", "104717.075000", "104717.078000", "104717.080000", "104717.083000", "104717.085000", "104717.088000", "104757.066000", "104757.069000", "104757.072000", "104757.074000", "104757.077000", "104757.079000", "104757.082000", "104757.089000", "104757.091000", "104757.094000", "104757.103000", "104757.106000", "104757.115000", "104757.118000", "104757.120000", "104757.123000", "104757.125000", "104757.128000", "104757.130000", "104757.133000", "104757.136000", "104757.138000", "104757.141000", "104757.144000", "104757.146000", "104757.149000", "104757.151000", "104757.154000", "104757.156000", "104757.159000", "104757.162000", "104757.164000", "104757.167000", "104837.066000", "104837.069000", "104837.072000", "104837.074000", "104837.077000", "104837.079000", "104837.082000", "104837.084000", "104837.087000", "104837.089000", "104837.092000", "104837.094000", "104837.114000", "104837.116000", "104837.119000", "104837.121000", "104837.124000", "104837.126000", "104837.129000", "104837.131000", "104837.151000", "104837.154000", "104837.156000", "104837.159000", "104837.161000", "104837.164000", "104837.167000", "104837.169000", "104837.172000", "104837.174000", "104837.177000", "104837.179000", "104837.182000", "104917.066000", "104917.069000", "104917.072000", "104917.074000", "104917.077000", "104917.080000", "104917.082000", "104917.085000", "104917.088000", "104917.090000", "104917.093000", "104917.095000", "104917.098000", "104917.101000", "104917.103000", "104917.106000", "104917.108000", "104917.111000", "104917.114000", "104917.116000", "104917.119000", "104917.122000", "104917.124000", "104917.127000", "104917.129000", "104917.132000", "104917.134000", "104917.137000", "104917.140000", "104917.142000", "104917.145000", "104917.147000", "104917.150000", "104917.152000", "104957.067000", "104957.070000", "104957.073000", "104957.075000", "104957.078000", "104957.081000", "104957.083000", "104957.086000", "104957.089000", "104957.091000", "104957.094000", "104957.096000", "104957.099000", "104957.102000", "104957.104000", "104957.107000", "104957.109000", "104957.112000", "104957.114000", "104957.117000", "104957.120000", "104957.122000", "104957.125000", "104957.127000", "104957.130000", "104957.133000", "104957.135000", "104957.138000", "104957.140000", "104957.143000", "104957.145000", "104957.148000", "104957.151000", "105037.066000", "105037.069000", "105037.072000", "105037.075000", "105037.077000", "105037.080000", "105037.082000", "105037.085000", "105037.088000", "105037.090000", "105037.093000", "105037.095000", "105037.098000", "105037.100000", "105037.103000", "105037.105000", "105037.108000", "105037.110000", "105037.113000", "105037.115000", "105037.118000", "105037.121000", "105037.123000", "105037.126000", "105037.128000", "105037.131000", "105037.133000", "105037.136000", "105037.138000", "105037.141000", "105037.144000", "105037.146000", "105037.149000", "105117.067000", "105117.069000", "105117.072000", "105117.074000", "105117.077000", "105117.080000", "105117.082000", "105117.085000", "105117.087000", "105117.090000", "105117.093000", "105117.095000", "105117.098000", "105117.100000", "105117.103000", "105117.105000", "105117.108000", "105117.111000", "105117.113000", "105117.116000", "105117.118000", "105117.121000", "105117.123000", "105117.126000", "105117.128000", "105117.131000", "105117.134000", "105117.136000", "105117.139000", "105117.141000", "105117.144000", "105117.146000", "105117.149000", "105117.151000", "105157.067000", "105157.070000", "105157.073000", "105157.075000", "105157.078000", "105157.081000", "105157.084000", "105157.086000", "105157.089000", "105157.092000", "105157.094000", "105157.103000", "105157.105000", "105157.108000", "105157.111000", "105157.113000", "105157.116000", "105157.119000", "105157.121000", "105157.124000", "105157.127000", "105157.130000", "105157.132000", "105157.135000", "105157.137000", "105157.140000", "105157.143000", "105157.145000", "105157.148000", "105157.151000", "105157.153000", "105157.156000", "105157.158000", "105237.067000", "105237.081000", "105237.084000", "105237.086000", "105237.089000", "105237.092000", "105237.094000", "105237.097000", "105237.099000", "105237.121000", "105237.123000", "105237.126000", "105237.128000", "105237.131000", "105237.134000", "105237.136000", "105237.139000", "105237.141000", "105237.144000", "105237.146000", "105237.149000", "105237.151000", "105237.154000", "105237.157000", "105237.159000", "105237.162000", "105237.164000", "105237.167000", "105237.169000", "105237.172000", "105237.174000", "105237.177000", "105237.180000", "105317.067000", "105317.069000", "105317.072000", "105317.075000", "105317.077000", "105317.080000", "105317.083000", "105317.085000", "105317.088000", "105317.091000", "105317.093000", "105317.096000", "105317.098000", "105317.101000", "105317.104000", "105317.106000", "105317.109000", "105317.112000", "105317.114000", "105317.117000", "105317.120000", "105317.122000", "105317.125000", "105317.127000", "105317.130000", "105317.133000", "105317.135000", "105317.138000", "105317.141000", "105317.143000", "105317.146000", "105317.148000", "105317.151000", "105317.154000", "105357.067000", "105357.069000", "105357.072000", "105357.075000", "105357.078000", "105357.080000", "105357.083000", "105357.086000", "105357.088000", "105357.091000", "105357.093000", "105357.096000", "105357.099000", "105357.101000", "105357.104000", "105357.106000", "105357.109000", "105357.112000", "105357.114000", "105357.117000", "105357.119000", "105357.122000", "105357.124000", "105357.127000", "105357.130000", "105357.133000", "105357.135000", "105357.138000", "105357.140000", "105357.143000", "105357.146000", "105357.148000", "105357.151000", "105437.067000", "105437.070000", "105437.073000", "105437.075000", "105437.078000", "105437.081000", "105437.083000", "105437.086000", "105437.089000", "105437.091000", "105437.094000", "105437.096000", "105437.099000", "105437.102000", "105437.104000", "105437.107000", "105437.110000", "105437.112000", "105437.115000", "105437.117000", "105437.120000", "105437.123000", "105437.126000", "105437.128000", "105437.131000", "105437.134000", "105437.136000", "105437.139000", "105437.142000", "105437.144000", "105437.147000", "105437.149000", "105437.152000", "105459.045000", "105459.048000", "105459.051000", "105459.054000", "105459.056000", "105459.059000", "105459.062000", "105459.064000", "105459.067000", "105459.070000", "105459.072000", "105459.075000", "105459.078000", "105459.080000", "105459.083000", "105459.086000", "105459.088000", "105459.091000", "105459.093000"],
      "InstanceCreationTime": ["104717.072000", "104717.075000", "104717.078000", "104717.080000", "104717.083000", "104717.085000", "104717.088000", "104757.066000", "104757.069000", "104757.072000", "104757.074000", "104757.077000", "104757.079000", "104757.082000", "104757.089000", "104757.091000", "104757.094000", "104757.103000", "104757.106000", "104757.115000", "104757.118000", "104757.120000", "104757.123000", "104757.125000", "104757.128000", "104757.130000", "104757.133000", "104757.136000", "104757.138000", "104757.141000", "104757.144000", "104757.146000", "104757.149000", "104757.151000", "104757.154000", "104757.156000", "104757.159000", "104757.162000", "104757.164000", "104757.167000", "104837.066000", "104837.069000", "104837.072000", "104837.074000", "104837.077000", "104837.079000", "104837.082000", "104837.084000", "104837.087000", "104837.089000", "104837.092000", "104837.094000", "104837.114000", "104837.116000", "104837.119000", "104837.121000", "104837.124000", "104837.126000", "104837.129000", "104837.131000", "104837.151000", "104837.154000", "104837.156000", "104837.159000", "104837.161000", "104837.164000", "104837.167000", "104837.169000", "104837.172000", "104837.174000", "104837.177000", "104837.179000", "104837.182000", "104917.066000", "104917.069000", "104917.072000", "104917.074000", "104917.077000", "104917.080000", "104917.082000", "104917.085000", "104917.088000", "104917.090000", "104917.093000", "104917.095000", "104917.098000", "104917.101000", "104917.103000", "104917.106000", "104917.108000", "104917.111000", "104917.114000", "104917.116000", "104917.119000", "104917.122000", "104917.124000", "104917.127000", "104917.129000", "104917.132000", "104917.134000", "104917.137000", "104917.140000", "104917.142000", "104917.145000", "104917.147000", "104917.150000", "104917.152000", "104957.067000", "104957.070000", "104957.073000", "104957.075000", "104957.078000", "104957.081000", "104957.083000", "104957.086000", "104957.089000", "104957.091000", "104957.094000", "104957.096000", "104957.099000", "104957.102000", "104957.104000", "104957.107000", "104957.109000", "104957.112000", "104957.114000", "104957.117000", "104957.120000", "104957.122000", "104957.125000", "104957.127000", "104957.130000", "104957.133000", "104957.135000", "104957.138000", "104957.140000", "104957.143000", "104957.145000", "104957.148000", "104957.151000", "105037.066000", "105037.069000", "105037.072000", "105037.075000", "105037.077000", "105037.080000", "105037.082000", "105037.085000", "105037.088000", "105037.090000", "105037.093000", "105037.095000", "105037.098000", "105037.100000", "105037.103000", "105037.105000", "105037.108000", "105037.110000", "105037.113000", "105037.115000", "105037.118000", "105037.121000", "105037.123000", "105037.126000", "105037.128000", "105037.131000", "105037.133000", "105037.136000", "105037.138000", "105037.141000", "105037.144000", "105037.146000", "105037.149000", "105117.067000", "105117.069000", "105117.072000", "105117.074000", "105117.077000", "105117.080000", "105117.082000", "105117.085000", "105117.087000", "105117.090000", "105117.093000", "105117.095000", "105117.098000", "105117.100000", "105117.103000", "105117.105000", "105117.108000", "105117.111000", "105117.113000", "105117.116000", "105117.118000", "105117.121000", "105117.123000", "105117.126000", "105117.128000", "105117.131000", "105117.134000", "105117.136000", "105117.139000", "105117.141000", "105117.144000", "105117.146000", "105117.149000", "105117.151000", "105157.067000", "105157.070000", "105157.073000", "105157.075000", "105157.078000", "105157.081000", "105157.084000", "105157.086000", "105157.089000", "105157.092000", "105157.094000", "105157.103000", "105157.105000", "105157.108000", "105157.111000", "105157.113000", "105157.116000", "105157.119000", "105157.121000", "105157.124000", "105157.127000", "105157.130000", "105157.132000", "105157.135000", "105157.137000", "105157.140000", "105157.143000", "105157.145000", "105157.148000", "105157.151000", "105157.153000", "105157.156000", "105157.158000", "105237.067000", "105237.081000", "105237.084000", "105237.086000", "105237.089000", "105237.092000", "105237.094000", "105237.097000", "105237.099000", "105237.121000", "105237.123000", "105237.126000", "105237.128000", "105237.131000", "105237.134000", "105237.136000", "105237.139000", "105237.141000", "105237.144000", "105237.146000", "105237.149000", "105237.151000", "105237.154000", "105237.157000", "105237.159000", "105237.162000", "105237.164000", "105237.167000", "105237.169000", "105237.172000", "105237.174000", "105237.177000", "105237.180000", "105317.067000", "105317.069000", "105317.072000", "105317.075000", "105317.077000", "105317.080000", "105317.083000", "105317.085000", "105317.088000", "105317.091000", "105317.093000", "105317.096000", "105317.098000", "105317.101000", "105317.104000", "105317.106000", "105317.109000", "105317.112000", "105317.114000", "105317.117000", "105317.120000", "105317.122000", "105317.125000", "105317.127000", "105317.130000", "105317.133000", "105317.135000", "105317.138000", "105317.141000", "105317.143000", "105317.146000", "105317.148000", "105317.151000", "105317.154000", "105357.067000", "105357.069000", "105357.072000", "105357.075000", "105357.078000", "105357.080000", "105357.083000", "105357.086000", "105357.088000", "105357.091000", "105357.093000", "105357.096000", "105357.099000", "105357.101000", "105357.104000", "105357.106000", "105357.109000", "105357.112000", "105357.114000", "105357.117000", "105357.119000", "105357.122000", "105357.124000", "105357.127000", "105357.130000", "105357.133000", "105357.135000", "105357.138000", "105357.140000", "105357.143000", "105357.146000", "105357.148000", "105357.151000", "105437.067000", "105437.070000", "105437.073000", "105437.075000", "105437.078000", "105437.081000", "105437.083000", "105437.086000", "105437.089000", "105437.091000", "105437.094000", "105437.096000", "105437.099000", "105437.102000", "105437.104000", "105437.107000", "105437.110000", "105437.112000", "105437.115000", "105437.117000", "105437.120000", "105437.123000", "105437.126000", "105437.128000", "105437.131000", "105437.134000", "105437.136000", "105437.139000", "105437.142000", "105437.144000", "105437.147000", "105437.149000", "105437.152000", "105459.045000", "105459.048000", "105459.051000", "105459.054000", "105459.056000", "105459.059000", "105459.062000", "105459.064000", "105459.067000", "105459.070000", "105459.072000", "105459.075000", "105459.078000", "105459.080000", "105459.083000", "105459.086000", "105459.088000", "105459.091000", "105459.093000"],
      "InstanceNumber": [1, 2, 3, 4, 5, 6, 7, 8, 9, 10, 11, 12, 13, 14, 15, 16, 17, 18, 19, 20, 21, 22, 23, 24, 25, 26, 27, 28, 29, 30, 31, 32, 33, 34, 35, 36, 37, 38, 39, 40, 41, 42, 43, 44, 45, 46, 47, 48, 49, 50, 51, 52, 53, 54, 55, 56, 57, 58, 59, 60, 61, 62, 63, 64, 65, 66, 67, 68, 69, 70, 71, 72, 73, 74, 75, 76, 77, 78, 79, 80, 81, 82, 83, 84, 85, 86, 87, 88, 89, 90, 91, 92, 93, 94, 95, 96, 97, 98, 99, 100, 101, 102, 103, 104, 105, 106, 107, 108, 109, 110, 111, 112, 113, 114, 115, 116, 117, 118, 119, 120, 121, 122, 123, 124, 125, 126, 127, 128, 129, 130, 131, 132, 133, 134, 135, 136, 137, 138, 139, 140, 141, 142, 143, 144, 145, 146, 147, 148, 149, 150, 151, 152, 153, 154, 155, 156, 157, 158, 159, 160, 161, 162, 163, 164, 165, 166, 167, 168, 169, 170, 171, 172, 173, 174, 175, 176, 177, 178, 179, 180, 181, 182, 183, 184, 185, 186, 187, 188, 189, 190, 191, 192, 193, 194, 195, 196, 197, 198, 199, 200, 201, 202, 203, 204, 205, 206, 207, 208, 209, 210, 211, 212, 213, 214, 215, 216, 217, 218, 219, 220, 221, 222, 223, 224, 225, 226, 227, 228, 229, 230, 231, 232, 233, 234, 235, 236, 237, 238, 239, 240, 241, 242, 243, 244, 245, 246, 247, 248, 249, 250, 251, 252, 253, 254, 255, 256, 257, 258, 259, 260, 261, 262, 263, 264, 265, 266, 267, 268, 269, 270, 271, 272, 273, 274, 275, 276, 277, 278, 279, 280, 281, 282, 283, 284, 285, 286, 287, 288, 289, 290, 291, 292, 293, 294, 295, 296, 297, 298, 299, 300, 301, 302, 303, 304, 305, 306, 307, 308, 309, 310, 311, 312, 313, 314, 315, 316, 317, 318, 319, 320, 321, 322, 323, 324, 325, 326, 327, 328, 329, 330, 331, 332, 333, 334, 335, 336, 337, 338, 339, 340, 341, 342, 343, 344, 345, 346, 347, 348, 349, 350, 351, 352, 353, 354, 355, 356, 357, 358, 359, 360, 361, 362, 363, 364, 365, 366, 367, 368, 369, 370, 371, 372, 373, 374, 375, 376, 377, 378, 379, 380, 381, 382, 383, 384, 385, 386, 387, 388, 389, 390, 391, 392],
