{
  "AcquisitionMatrixPE": 88,
  "AcquisitionNumber": 1,
  "AcquisitionTime": "11:12:45.812500",
  "BandwidthPerPixelPhaseEncode": 19.592,
  "BaseResolution": 88,
  "BodyPartExamined": "BRAIN",
  "ConsistencyInfo": "N4_VE11C_LATEST_20160120",
  "ConversionSoftware": "dcm2niix",
  "ConversionSoftwareVersion": "v1.0.20190902",
  "DerivedVendorReportedEchoSpacing": 0.000580014,
  "DeviceSerialNumber": "67050",
  "DwellTime": 2.6e-06,
  "EchoTime": 0.033,
  "EchoTrainLength": 88,
  "EffectiveEchoSpacing": 0.000580014,
  "FlipAngle": 62,
  "ImageOrientationPatientDICOM": [0.991968, -0.040582, 0.119806, 0.046086, 0.997988, -0.0435323],
  "ImageType": [
    "ORIGINAL",
    "PRIMARY",
    "M",
    "ND",
    "MOSAIC"
],
  "ImagingFrequency": 123.251,
  "InPlanePhaseEncodingDirectionDICOM": "COL",
  "InstitutionAddress": "Olive_Street_60_Providence_RI_US_02912",
  "InstitutionName": "BROWN_UNIVERSITY_MRF",
  "InstitutionalDepartmentName": "Department",
  "MRAcquisitionType": "2D",
  "MagneticFieldStrength": 3,
  "Manufacturer": "Siemens",
  "ManufacturersModelName": "Prisma_fit",
  "Modality": "MR",
  "MultibandAccelerationFactor": 4,
  "PartialFourier": 1,
  "PatientPosition": "HFS",
  "PercentPhaseFOV": 100,
  "PhaseEncodingDirection": "j-",
  "PhaseEncodingSteps": 88,
  "PhaseResolution": 1,
  "PixelBandwidth": 2185,
  "ProcedureStepDescription": "ASHENHAV_1222",
  "ProtocolName": "func-bold_task-RDMlocalizer_run-02",
  "PulseSequenceDetails": "%SiemensSeq%_ep2d_bold",
  "ReceiveCoilActiveElements": "HC1-7;NC1",
  "ReceiveCoilName": "HeadNeck_64",
  "ReconMatrixPE": 88,
  "RefLinesPE": 8,
  "RepetitionTime": 1.2,
  "SAR": 0.0446741,
  "ScanOptions": "FS",
  "ScanningSequence": "EP",
  "SequenceName": "_epfid2d1_88",
  "SequenceVariant": "SK",
  "SeriesDescription": "func-bold_task-RDMlocalizer_run-02",
  "SeriesNumber": 20,
  "ShimSetting": [1754, -9132, 4447, 592, -215, -218, -40, 12],
  "SliceThickness": 2.4,
  "SliceTiming": [0.55, 0, 0.63, 0.0775, 0.7075, 0.1575, 0.7875, 0.235, 0.865, 0.315, 0.9425, 0.3925, 1.0225, 0.4725, 1.1, 0.55, 0, 0.63, 0.0775, 0.7075, 0.1575, 0.7875, 0.235, 0.865, 0.315, 0.9425, 0.3925, 1.0225, 0.4725, 1.1, 0.55, 0, 0.63, 0.0775, 0.7075, 0.1575, 0.7875, 0.235, 0.865, 0.315, 0.9425, 0.3925, 1.0225, 0.4725, 1.1, 0.55, 0, 0.63, 0.0775, 0.7075, 0.1575, 0.7875, 0.235, 0.865, 0.315, 0.9425, 0.3925, 1.0225, 0.4725, 1.1],
  "SoftwareVersions": "syngo_MR_E11",
  "SpacingBetweenSlices": 2.4,
  "StationName": "AWP67050",
  "TaskName": "RDMlocalizer",
  "TotalReadoutTime": 0.0504612,
  "TxRefAmp": 217.084,
  "dcmmeta_affine": [
    [-2.3784677982330322, 0.11050157994031906, 0.2827153503894806, 95.86100769042969],
    [0.0973045825958252, 2.392904281616211, -0.11688947677612305, -93.6602783203125],
    [0.28726133704185486, 0.10437847673892975, 2.3804221153259277, -68.33333587646484],
    [0.0, 0.0, 0.0, 1.0]
],
  "dcmmeta_reorient_transform": [
    [0.0, -1.0, 0.0, 87.0],
    [1.0, 0.0, 0.0, 0.0],
    [0.0, 0.0, 1.0, 0.0],
    [0.0, 0.0, 0.0, 1.0]
],
  "dcmmeta_shape": [88, 88, 60, 195],
  "dcmmeta_slice_dim": 2,
  "dcmmeta_version": 0.6,
  "global": {
    "const": {
      "AcquisitionMatrix": [88, 0, 0, 88],
      "AngioFlag": "N",
      "BitsAllocated": 16,
      "BitsStored": 12,
      "BodyPartExamined": "BRAIN",
      "Columns": 704,
      "DeidentificationMethodCodeSequence": [
        {
          "CodeMeaning": "XNAT DicomEdit 6 Script",
          "CodeValue": "3",
          "CodingSchemeDesignator": "XNAT",
          "CodingSchemeVersion": "1.0"}
],
      "EchoNumbers": 1,
      "EchoTime": 33.0,
      "EchoTrainLength": 88,
      "FlipAngle": 62.0,
      "HighBit": 11,
      "ImageOrientationPatient": [0.99196759010785, -0.0405820056992, 0.11980568012013, 0.04608596755381, 0.99798849003879, -0.0435322563707],
      "ImagePositionPatient": [-872.07718810915, -821.56706908689, -115.58032783942],
      "ImageType": [
        "ORIGINAL",
        "PRIMARY",
        "M",
        "ND",
        "MOSAIC"
],
      "ImagedNucleus": "1H",
      "ImagingFrequency": 123.250502,
      "InPlanePhaseEncodingDirection": "COL",
      "MRAcquisitionType": "2D",
      "MagneticFieldStrength": 3.0,
      "Manufacturer": "SIEMENS",
      "ManufacturerModelName": "Prisma_fit",
      "Modality": "MR",
      "NumberOfAverages": 1.0,
      "NumberOfPhaseEncodingSteps": 88,
      "PercentPhaseFieldOfView": 100.0,
      "PercentSampling": 100.0,
      "PerformedProcedureStepStartTime": "094920.742000",
      "PhotometricInterpretation": "MONOCHROME2",
      "PixelBandwidth": 2185.0,
      "PixelRepresentation": 0,
      "PixelSpacing": [2.3977272510529, 2.3977272510529],
      "ProtocolName": "func-bold_task-RDMlocalizer_run-02",
      "RepetitionTime": 1200.0,
      "Rows": 704,
      "SAR": 0.04467414438503,
      "SamplesPerPixel": 1,
      "ScanOptions": "FS",
      "ScanningSequence": "EP",
      "SequenceName": "*epfid2d1_88",
      "SequenceVariant": "SK",
      "SeriesDescription": "func-bold_task-RDMlocalizer_run-02",
      "SeriesNumber": 20,
      "SeriesTime": "111319.011000",
      "SliceLocation": -51.922037047307,
      "SliceThickness": 2.4000000953674,
      "SmallestImagePixelValue": 0,
      "SoftwareVersions": "syngo MR E11",
      "SpacingBetweenSlices": 2.4000000470758,
      "SpecificCharacterSet": "ISO_IR 100",
      "StudyID": "1",
      "StudyTime": "094920.527000",
      "TransmitCoilName": "Body",
      "VariableFlipAngleFlag": "N",
      "WindowCenterWidthExplanation": "Algo1",
      "dBdt": 0.0},
    "slices": {}
  },
  "time": {
    "samples": {
      "AcquisitionNumber": [1, 2, 3, 4, 5, 6, 7, 8, 9, 10, 11, 12, 13, 14, 15, 16, 17, 18, 19, 20, 21, 22, 23, 24, 25, 26, 27, 28, 29, 30, 31, 32, 33, 34, 35, 36, 37, 38, 39, 40, 41, 42, 43, 44, 45, 46, 47, 48, 49, 50, 51, 52, 53, 54, 55, 56, 57, 58, 59, 60, 61, 62, 63, 64, 65, 66, 67, 68, 69, 70, 71, 72, 73, 74, 75, 76, 77, 78, 79, 80, 81, 82, 83, 84, 85, 86, 87, 88, 89, 90, 91, 92, 93, 94, 95, 96, 97, 98, 99, 100, 101, 102, 103, 104, 105, 106, 107, 108, 109, 110, 111, 112, 113, 114, 115, 116, 117, 118, 119, 120, 121, 122, 123, 124, 125, 126, 127, 128, 129, 130, 131, 132, 133, 134, 135, 136, 137, 138, 139, 140, 141, 142, 143, 144, 145, 146, 147, 148, 149, 150, 151, 152, 153, 154, 155, 156, 157, 158, 159, 160, 161, 162, 163, 164, 165, 166, 167, 168, 169, 170, 171, 172, 173, 174, 175, 176, 177, 178, 179, 180, 181, 182, 183, 184, 185, 186, 187, 188, 189, 190, 191, 192, 193, 194, 195],
      "AcquisitionTime": ["111245.812500", "111247.012500", "111248.212500", "111249.412500", "111250.612500", "111251.812500", "111253.012500", "111254.212500", "111255.412500", "111256.612500", "111257.812500", "111259.012500", "111300.212500", "111301.412500", "111302.612500", "111303.812500", "111305.012500", "111306.212500", "111307.412500", "111308.612500", "111309.812500", "111311.012500", "111312.212500", "111313.412500", "111314.612500", "111315.812500", "111317.012500", "111318.212500", "111319.412500", "111320.612500", "111321.812500", "111323.012500", "111324.212500", "111325.412500", "111326.612500", "111327.812500", "111329.012500", "111330.212500", "111331.412500", "111332.612500", "111333.812500", "111335.012500", "111336.212500", "111337.412500", "111338.612500", "111339.812500", "111341.012500", "111342.212500", "111343.412500", "111344.612500", "111345.812500", "111347.012500", "111348.212500", "111349.412500", "111350.612500", "111351.812500", "111353.012500", "111354.212500", "111355.412500", "111356.612500", "111357.812500", "111359.012500", "111400.212500", "111401.412500", "111402.612500", "111403.812500", "111405.012500", "111406.212500", "111407.412500", "111408.612500", "111409.812500", "111411.012500", "111412.212500", "111413.412500", "111414.612500", "111415.812500", "111417.012500", "111418.212500", "111419.412500", "111420.612500", "111421.812500", "111423.012500", "111424.212500", "111425.412500", "111426.612500", "111427.812500", "111429.012500", "111430.212500", "111431.412500", "111432.612500", "111433.812500", "111435.012500", "111436.212500", "111437.412500", "111438.612500", "111439.812500", "111441.012500", "111442.212500", "111443.412500", "111444.612500", "111445.812500", "111447.012500", "111448.212500", "111449.412500", "111450.612500", "111451.812500", "111453.012500", "111454.212500", "111455.412500", "111456.612500", "111457.812500", "111459.012500", "111500.212500", "111501.412500", "111502.612500", "111503.812500", "111505.012500", "111506.212500", "111507.412500", "111508.612500", "111509.812500", "111511.012500", "111512.212500", "111513.412500", "111514.612500", "111515.812500", "111517.012500", "111518.212500", "111519.412500", "111520.612500", "111521.812500", "111523.012500", "111524.212500", "111525.412500", "111526.612500", "111527.812500", "111529.012500", "111530.212500", "111531.412500", "111532.612500", "111533.812500", "111535.012500", "111536.212500", "111537.412500", "111538.612500", "111539.812500", "111541.012500", "111542.212500", "111543.412500", "111544.612500", "111545.812500", "111547.012500", "111548.212500", "111549.412500", "111550.612500", "111551.812500", "111553.012500", "111554.212500", "111555.412500", "111556.612500", "111557.812500", "111559.012500", "111600.212500", "111601.412500", "111602.612500", "111603.812500", "111605.012500", "111606.212500", "111607.412500", "111608.612500", "111609.812500", "111611.012500", "111612.212500", "111613.412500", "111614.612500", "111615.812500", "111617.012500", "111618.212500", "111619.412500", "111620.612500", "111621.812500", "111623.012500", "111624.212500", "111625.412500", "111626.612500", "111627.812500", "111629.012500", "111630.212500", "111631.412500", "111632.612500", "111633.812500", "111635.012500", "111636.212500", "111637.412500", "111638.612500"],
      "ContentTime": ["111319.014000", "111319.017000", "111319.020000", "111319.023000", "111319.025000", "111319.028000", "111319.030000", "111319.033000", "111319.036000", "111319.038000", "111319.041000", "111319.043000", "111319.046000", "111319.049000", "111319.051000", "111319.054000", "111319.056000", "111319.059000", "111319.061000", "111319.064000", "111319.071000", "111319.073000", "111319.076000", "111319.078000", "111319.081000", "111319.083000", "111319.086000", "111359.011000", "111359.014000", "111359.016000", "111359.019000", "111359.021000", "111359.024000", "111359.027000", "111359.029000", "111359.032000", "111359.034000", "111359.037000", "111359.040000", "111359.042000", "111359.045000", "111359.047000", "111359.050000", "111359.053000", "111359.055000", "111359.058000", "111359.065000", "111359.068000", "111359.071000", "111359.073000", "111359.076000", "111359.078000", "111359.093000", "111359.096000", "111359.099000", "111359.101000", "111359.104000", "111359.106000", "111359.109000", "111359.112000", "111439.009000", "111439.012000", "111439.015000", "111439.017000", "111439.020000", "111439.022000", "111439.025000", "111439.028000", "111439.030000", "111439.033000", "111439.035000", "111439.038000", "111439.041000", "111439.043000", "111439.046000", "111439.048000", "111439.051000", "111439.053000", "111439.056000", "111439.059000", "111439.061000", "111439.064000", "111439.066000", "111439.069000", "111439.071000", "111439.074000", "111439.077000", "111439.079000", "111439.082000", "111439.084000", "111439.087000", "111439.089000", "111439.092000", "111519.011000", "111519.013000", "111519.016000", "111519.019000", "111519.021000", "111519.024000", "111519.027000", "111519.029000", "111519.032000", "111519.034000", "111519.037000", "111519.040000", "111519.042000", "111519.045000", "111519.048000", "111519.050000", "111519.053000", "111519.056000", "111519.058000", "111519.061000", "111519.063000", "111519.066000", "111519.068000", "111519.071000", "111519.074000", "111519.076000", "111519.079000", "111519.081000", "111519.084000", "111519.087000", "111519.089000", "111519.092000", "111519.094000", "111519.097000", "111559.011000", "111559.014000", "111559.016000", "111559.019000", "111559.022000", "111559.024000", "111559.027000", "111559.029000", "111559.032000", "111559.035000", "111559.037000", "111559.040000", "111559.042000", "111559.045000", "111559.047000", "111559.050000", "111559.052000", "111559.055000", "111559.058000", "111559.060000", "111559.063000", "111559.065000", "111559.068000", "111559.070000", "111559.073000", "111559.076000", "111559.078000", "111559.081000", "111559.083000", "111559.086000", "111559.088000", "111559.091000", "111559.094000", "111639.009000", "111639.012000", "111639.015000", "111639.017000", "111639.020000", "111639.023000", "111639.025000", "111639.028000", "111639.031000", "111639.033000", "111639.036000", "111639.039000", "111639.041000", "111639.044000", "111639.046000", "111639.049000", "111639.051000", "111639.060000", "111639.063000", "111639.065000", "111639.068000", "111639.070000", "111639.073000", "111639.075000", "111639.078000", "111639.081000", "111639.083000", "111639.086000", "111639.088000", "111639.091000", "111639.093000", "111639.096000", "111639.106000", "111640.247000", "111640.254000"],
      "InstanceCreationTime": ["111319.014000", "111319.017000", "111319.020000", "111319.023000", "111319.025000", "111319.028000", "111319.030000", "111319.033000", "111319.036000", "111319.038000", "111319.041000", "111319.043000", "111319.046000", "111319.049000", "111319.051000", "111319.054000", "111319.056000", "111319.059000", "111319.061000", "111319.064000", "111319.071000", "111319.073000", "111319.076000", "111319.078000", "111319.081000", "111319.083000", "111319.086000", "111359.011000", "111359.014000", "111359.016000", "111359.019000", "111359.021000", "111359.024000", "111359.027000", "111359.029000", "111359.032000", "111359.034000", "111359.037000", "111359.040000", "111359.042000", "111359.045000", "111359.047000", "111359.050000", "111359.053000", "111359.055000", "111359.058000", "111359.065000", "111359.068000", "111359.071000", "111359.073000", "111359.076000", "111359.078000", "111359.093000", "111359.096000", "111359.099000", "111359.101000", "111359.104000", "111359.106000", "111359.109000", "111359.112000", "111439.009000", "111439.012000", "111439.015000", "111439.017000", "111439.020000", "111439.022000", "111439.025000", "111439.028000", "111439.030000", "111439.033000", "111439.035000", "111439.038000", "111439.041000", "111439.043000", "111439.046000", "111439.048000", "111439.051000", "111439.053000", "111439.056000", "111439.059000", "111439.061000", "111439.064000", "111439.066000", "111439.069000", "111439.071000", "111439.074000", "111439.077000", "111439.079000", "111439.082000", "111439.084000", "111439.087000", "111439.089000", "111439.092000", "111519.011000", "111519.013000", "111519.016000", "111519.019000", "111519.021000", "111519.024000", "111519.027000", "111519.029000", "111519.032000", "111519.034000", "111519.037000", "111519.040000", "111519.042000", "111519.045000", "111519.048000", "111519.050000", "111519.053000", "111519.056000", "111519.058000", "111519.061000", "111519.063000", "111519.066000", "111519.068000", "111519.071000", "111519.074000", "111519.076000", "111519.079000", "111519.081000", "111519.084000", "111519.087000", "111519.089000", "111519.092000", "111519.094000", "111519.097000", "111559.011000", "111559.014000", "111559.016000", "111559.019000", "111559.022000", "111559.024000", "111559.027000", "111559.029000", "111559.032000", "111559.035000", "111559.037000", "111559.040000", "111559.042000", "111559.045000", "111559.047000", "111559.050000", "111559.052000", "111559.055000", "111559.058000", "111559.060000", "111559.063000", "111559.065000", "111559.068000", "111559.070000", "111559.073000", "111559.076000", "111559.078000", "111559.081000", "111559.083000", "111559.086000", "111559.088000", "111559.091000", "111559.094000", "111639.009000", "111639.012000", "111639.015000", "111639.017000", "111639.020000", "111639.023000", "111639.025000", "111639.028000", "111639.031000", "111639.033000", "111639.036000", "111639.039000", "111639.041000", "111639.044000", "111639.046000", "111639.049000", "111639.051000", "111639.060000", "111639.063000", "111639.065000", "111639.068000", "111639.070000", "111639.073000", "111639.075000", "111639.078000", "111639.081000", "111639.083000", "111639.086000", "111639.088000", "111639.091000", "111639.093000", "111639.096000", "111639.106000", "111640.247000", "111640.254000"],
      "InstanceNumber": [1, 2, 3, 4, 5, 6, 7, 8, 9, 10, 11, 12, 13, 14, 15, 16, 17, 18, 19, 20, 21, 22, 23, 24, 25, 26, 27, 28, 29, 30, 31, 32, 33, 34, 35, 36, 37, 38, 39, 40, 41, 42, 43, 44, 45, 46, 47, 48, 49, 50, 51, 52, 53, 54, 55, 56, 57, 58, 59, 60, 61, 62, 63, 64, 65, 66, 67, 68, 69, 70, 71, 72, 73, 74, 75, 76, 77, 78, 79, 80, 81, 82, 83, 84, 85, 86, 87, 88, 89, 90, 91, 92, 93, 94, 95, 96, 97, 98, 99, 100, 101, 102, 103, 104, 105, 106, 107, 108, 109, 110, 111, 112, 113, 114, 115, 116, 117, 118, 119, 120, 121, 122, 123, 124, 125, 126, 127, 128, 129, 130, 131, 132, 133, 134, 135, 136, 137, 138, 139, 140, 141, 142, 143, 144, 145, 146, 147, 148, 149, 150, 151, 152, 153, 154, 155, 156, 157, 158, 159, 160, 161, 162, 163, 164, 165, 166, 167, 168, 169, 170, 171, 172, 173, 174, 175, 176, 177, 178, 179, 180, 181, 182, 183, 184, 185, 186, 187, 188, 189, 190, 191, 192, 193, 194, 195],
      "LargestImagePixelValue": [2042, 1856, 1836, 1856, 1856, 1824, 1845, 1838, 1835, 1833, 1832, 1788, 1797, 1799, 1799, 1818, 1841, 1774, 1794, 1788, 1807, 1809, 1854, 1809, 1813, 1788, 1790, 1816, 1784, 1785, 1788, 1803, 1825, 1786, 1801, 1802, 1819, 1811, 1791, 1801, 1818, 1823, 1786, 1777, 1792, 1788, 1780, 1784, 1838, 1813, 1807, 1824, 1834, 1805, 1814, 1856, 1860, 1799, 1788, 1803, 1847, 1813, 1809, 1813, 1810, 1820, 1816, 1781, 1794, 1816, 1809, 1794, 1814, 1823, 1813, 1811, 1781, 1833, 1843, 1869, 1823, 1826, 1814, 1838, 1793, 1818, 1817, 1839, 1781, 1799, 1814, 1848, 1797, 1824, 1861, 1828, 1819, 1836, 1822, 1835, 1854, 1824, 1843, 1818, 1806, 1829, 1826, 1868, 1825, 1850, 1845, 1841, 1814, 1832, 1832, 1809, 1847, 1820, 1835, 1844, 1850, 1807, 1847, 1857, 1879, 1802, 1841, 1841, 1872, 1865, 1789, 1803, 1840, 1862, 1826, 1805, 1841, 1847, 1842, 1822, 1825, 1833, 1830, 1770, 1827, 1826, 1785, 1810, 1819, 1816, 1809, 1803, 1833, 1829, 1833, 1784, 1794, 1808, 1794, 1810, 1795, 1813, 1833, 1848, 1865, 1812, 1795, 1807, 1790, 1790, 1795, 1791, 1769, 1818, 1796, 1817, 1803, 1829, 1777, 1804, 1803, 1813, 1795, 1808, 1838, 1821, 1804, 1810, 1841, 1809, 1808, 1800, 1843, 1807, 1831],
      "WindowCenter": [606.0, 601.0, 600.0, 600.0, 599.0, 600.0, 601.0, 600.0, 598.0, 598.0, 598.0, 596.0, 595.0, 595.0, 595.0, 596.0, 596.0, 596.0, 596.0, 596.0, 596.0, 597.0, 598.0, 597.0, 598.0, 597.0, 597.0, 597.0, 598.0, 598.0, 597.0, 598.0, 599.0, 598.0, 598.0, 598.0, 598.0, 598.0, 598.0, 599.0, 599.0, 598.0, 598.0, 599.0, 599.0, 599.0, 599.0, 599.0, 599.0, 600.0, 601.0, 601.0, 600.0, 598.0, 598.0, 599.0, 598.0, 596.0, 596.0, 598.0, 598.0, 598.0, 597.0, 598.0, 599.0, 599.0, 598.0, 597.0, 598.0, 598.0, 598.0, 597.0, 598.0, 598.0, 598.0, 597.0, 597.0, 598.0, 597.0, 598.0, 598.0, 599.0, 597.0, 598.0, 597.0, 598.0, 599.0, 598.0, 596.0, 596.0, 597.0, 599.0, 599.0, 599.0, 599.0, 599.0, 599.0, 598.0, 597.0, 597.0, 598.0, 597.0, 598.0, 598.0, 596.0, 596.0, 597.0, 599.0, 600.0, 600.0, 599.0, 598.0, 598.0, 598.0, 598.0, 598.0, 599.0, 598.0, 599.0, 598.0, 598.0, 597.0, 598.0, 600.0, 600.0, 598.0, 599.0, 600.0, 600.0, 599.0, 597.0, 598.0, 600.0, 599.0, 599.0, 598.0, 600.0, 599.0, 598.0, 598.0, 599.0, 600.0, 599.0, 597.0, 598.0, 598.0, 599.0, 600.0, 599.0, 598.0, 598.0, 600.0, 601.0, 599.0, 598.0, 597.0, 597.0, 596.0, 597.0, 597.0, 596.0, 596.0, 598.0, 600.0, 601.0, 599.0, 598.0, 598.0, 597.0, 596.0, 595.0, 594.0, 593.0, 595.0, 593.0, 594.0, 595.0, 596.0, 596.0, 596.0, 595.0, 596.0, 596.0, 598.0, 598.0, 597.0, 596.0, 597.0, 598.0, 597.0, 595.0, 596.0, 597.0, 598.0, 599.0],
      "WindowWidth": [1287.0, 1275.0, 1273.0, 1272.0, 1270.0, 1272.0, 1275.0, 1272.0, 1270.0, 1269.0, 1268.0, 1265.0, 1263.0, 1261.0, 1263.0, 1264.0, 1264.0, 1263.0, 1264.0, 1264.0, 1265.0, 1266.0, 1268.0, 1266.0, 1268.0, 1267.0, 1267.0, 1267.0, 1268.0, 1268.0, 1268.0, 1270.0, 1271.0, 1269.0, 1269.0, 1269.0, 1268.0, 1268.0, 1268.0, 1270.0, 1271.0, 1270.0, 1269.0, 1271.0, 1272.0, 1272.0, 1272.0, 1271.0, 1272.0, 1272.0, 1276.0, 1276.0, 1273.0, 1268.0, 1268.0, 1271.0, 1269.0, 1265.0, 1265.0, 1268.0, 1270.0, 1268.0, 1267.0, 1268.0, 1271.0, 1271.0, 1269.0, 1267.0, 1268.0, 1269.0, 1268.0, 1266.0, 1268.0, 1268.0, 1268.0, 1266.0, 1266.0, 1268.0, 1267.0, 1267.0, 1269.0, 1270.0, 1267.0, 1267.0, 1267.0, 1269.0, 1271.0, 1270.0, 1265.0, 1265.0, 1267.0, 1270.0, 1270.0, 1271.0, 1271.0, 1272.0, 1272.0, 1268.0, 1266.0, 1267.0, 1268.0, 1267.0, 1269.0, 1268.0, 1264.0, 1264.0, 1266.0, 1270.0, 1273.0, 1274.0, 1271.0, 1270.0, 1269.0, 1269.0, 1269.0, 1268.0, 1270.0, 1268.0, 1270.0, 1268.0, 1267.0, 1266.0, 1268.0, 1273.0, 1273.0, 1270.0, 1271.0, 1272.0, 1274.0, 1271.0, 1267.0, 1269.0, 1272.0, 1271.0, 1270.0, 1269.0, 1272.0, 1271.0, 1269.0, 1268.0, 1270.0, 1272.0, 1270.0, 1268.0, 1269.0, 1269.0, 1271.0, 1273.0, 1270.0, 1269.0, 1269.0, 1273.0, 1275.0, 1271.0, 1269.0, 1267.0, 1266.0, 1265.0, 1267.0, 1266.0, 1264.0, 1265.0, 1268.0, 1272.0, 1275.0, 1271.0, 1268.0, 1268.0, 1267.0, 1264.0, 1262.0, 1259.0, 1259.0, 1261.0, 1258.0, 1260.0, 1263.0, 1264.0, 1264.0, 1265.0, 1263.0, 1263.0, 1265.0, 1269.0, 1269.0, 1266.0, 1264.0, 1266.0, 1269.0, 1266.0, 1263.0, 1264.0, 1266.0, 1269.0, 1271.0]
    },
    "slices": {}
  }
}