{
  "AcquisitionMatrixPE": 88,
  "AcquisitionNumber": 1,
  "AcquisitionTime": "10:19:45.120000",
  "BandwidthPerPixelPhaseEncode": 19.592,
  "BaseResolution": 88,
  "BodyPartExamined": "BRAIN",
  "ConsistencyInfo": "N4_VE11C_LATEST_20160120",
  "ConversionSoftware": "dcm2niix",
  "ConversionSoftwareVersion": "v1.0.20190902",
  "DerivedVendorReportedEchoSpacing": 0.000580014,
  "DeviceSerialNumber": "67050",
  "DwellTime": 2.6e-06,
  "EchoTime": 0.033,
  "EchoTrainLength": 88,
  "EffectiveEchoSpacing": 0.000580014,
  "FlipAngle": 62,
  "ImageOrientationPatientDICOM": [0.991968, -0.040582, 0.119806, 0.046086, 0.997988, -0.0435323],
  "ImageType": [
    "ORIGINAL",
    "PRIMARY",
    "M",
    "ND",
    "MOSAIC"
],
  "ImagingFrequency": 123.25,
  "InPlanePhaseEncodingDirectionDICOM": "COL",
  "InstitutionAddress": "Olive_Street_60_Providence_RI_US_02912",
  "InstitutionName": "BROWN_UNIVERSITY_MRF",
  "InstitutionalDepartmentName": "Department",
  "MRAcquisitionType": "2D",
  "MagneticFieldStrength": 3,
  "Manufacturer": "Siemens",
  "ManufacturersModelName": "Prisma_fit",
  "Modality": "MR",
  "MultibandAccelerationFactor": 4,
  "PartialFourier": 1,
  "PatientPosition": "HFS",
  "PercentPhaseFOV": 100,
  "PhaseEncodingDirection": "j-",
  "PhaseEncodingSteps": 88,
  "PhaseResolution": 1,
  "PixelBandwidth": 2185,
  "ProcedureStepDescription": "ASHENHAV_1222",
  "ProtocolName": "func-bold_task-RDMmotion_run-03",
  "PulseSequenceDetails": "%SiemensSeq%_ep2d_bold",
  "ReceiveCoilActiveElements": "HC1-7;NC1",
  "ReceiveCoilName": "HeadNeck_64",
  "ReconMatrixPE": 88,
  "RefLinesPE": 8,
  "RepetitionTime": 1.2,
  "SAR": 0.044438,
  "ScanOptions": "FS",
  "ScanningSequence": "EP",
  "SequenceName": "_epfid2d1_88",
  "SequenceVariant": "SK",
  "SeriesDescription": "func-bold_task-RDMmotion_run-03",
  "SeriesNumber": 11,
  "ShimSetting": [1754, -9132, 4447, 592, -215, -218, -40, 12],
  "SliceThickness": 2.4,
  "SliceTiming": [0.55, 0, 0.63, 0.08, 0.7075, 0.1575, 0.7875, 0.2375, 0.865, 0.315, 0.945, 0.395, 1.0225, 0.4725, 1.1025, 0.55, 0, 0.63, 0.08, 0.7075, 0.1575, 0.7875, 0.2375, 0.865, 0.315, 0.945, 0.395, 1.0225, 0.4725, 1.1025, 0.55, 0, 0.63, 0.08, 0.7075, 0.1575, 0.7875, 0.2375, 0.865, 0.315, 0.945, 0.395, 1.0225, 0.4725, 1.1025, 0.55, 0, 0.63, 0.08, 0.7075, 0.1575, 0.7875, 0.2375, 0.865, 0.315, 0.945, 0.395, 1.0225, 0.4725, 1.1025],
  "SoftwareVersions": "syngo_MR_E11",
  "SpacingBetweenSlices": 2.4,
  "StationName": "AWP67050",
  "TaskName": "RDMmotion",
  "TotalReadoutTime": 0.0504612,
  "TxRefAmp": 217.084,
  "dcmmeta_affine": [
    [-2.3784677982330322, 0.11050157994031906, 0.2827153503894806, 95.86100769042969],
    [0.0973045825958252, 2.392904281616211, -0.11688947677612305, -93.6602783203125],
    [0.28726133704185486, 0.10437847673892975, 2.3804221153259277, -68.33333587646484],
    [0.0, 0.0, 0.0, 1.0]
],
  "dcmmeta_reorient_transform": [
    [0.0, -1.0, 0.0, 87.0],
    [1.0, 0.0, 0.0, 0.0],
    [0.0, 0.0, 1.0, 0.0],
    [0.0, 0.0, 0.0, 1.0]
],
  "dcmmeta_shape": [88, 88, 60, 125],
  "dcmmeta_slice_dim": 2,
  "dcmmeta_version": 0.6,
  "global": {
    "const": {
      "AcquisitionMatrix": [88, 0, 0, 88],
      "AngioFlag": "N",
      "BitsAllocated": 16,
      "BitsStored": 12,
      "BodyPartExamined": "BRAIN",
      "Columns": 704,
      "DeidentificationMethodCodeSequence": [
        {
          "CodeMeaning": "XNAT DicomEdit 6 Script",
          "CodeValue": "3",
          "CodingSchemeDesignator": "XNAT",
          "CodingSchemeVersion": "1.0"}
],
      "EchoNumbers": 1,
      "EchoTime": 33.0,
      "EchoTrainLength": 88,
      "FlipAngle": 62.0,
      "HighBit": 11,
      "ImageOrientationPatient": [0.99196759010785, -0.0405820056992, 0.11980568012013, 0.04608596755381, 0.99798849003879, -0.0435322563707],
      "ImagePositionPatient": [-872.07718810915, -821.56706908689, -115.58032783942],
      "ImageType": [
        "ORIGINAL",
        "PRIMARY",
        "M",
        "ND",
        "MOSAIC"
],
      "ImagedNucleus": "1H",
      "ImagingFrequency": 123.250487,
      "InPlanePhaseEncodingDirection": "COL",
      "MRAcquisitionType": "2D",
      "MagneticFieldStrength": 3.0,
      "Manufacturer": "SIEMENS",
      "ManufacturerModelName": "Prisma_fit",
      "Modality": "MR",
      "NumberOfAverages": 1.0,
      "NumberOfPhaseEncodingSteps": 88,
      "PercentPhaseFieldOfView": 100.0,
      "PercentSampling": 100.0,
      "PerformedProcedureStepStartTime": "094920.742000",
      "PhotometricInterpretation": "MONOCHROME2",
      "PixelBandwidth": 2185.0,
      "PixelRepresentation": 0,
      "PixelSpacing": [2.3977272510529, 2.3977272510529],
      "ProtocolName": "func-bold_task-RDMmotion_run-03",
      "RepetitionTime": 1200.0,
      "Rows": 704,
      "SAR": 0.04443803117119,
      "SamplesPerPixel": 1,
      "ScanOptions": "FS",
      "ScanningSequence": "EP",
      "SequenceName": "*epfid2d1_88",
      "SequenceVariant": "SK",
      "SeriesDescription": "func-bold_task-RDMmotion_run-03",
      "SeriesNumber": 11,
      "SeriesTime": "102019.011000",
      "SliceLocation": -51.922037047307,
      "SliceThickness": 2.4000000953674,
      "SmallestImagePixelValue": 0,
      "SoftwareVersions": "syngo MR E11",
      "SpacingBetweenSlices": 2.4000000470758,
      "SpecificCharacterSet": "ISO_IR 100",
      "StudyID": "1",
      "StudyTime": "094920.527000",
      "TransmitCoilName": "Body",
      "VariableFlipAngleFlag": "N",
      "WindowCenterWidthExplanation": "Algo1",
      "dBdt": 0.0},
    "slices": {}
  },
  "time": {
    "samples": {
      "AcquisitionNumber": [1, 2, 3, 4, 5, 6, 7, 8, 9, 10, 11, 12, 13, 14, 15, 16, 17, 18, 19, 20, 21, 22, 23, 24, 25, 26, 27, 28, 29, 30, 31, 32, 33, 34, 35, 36, 37, 38, 39, 40, 41, 42, 43, 44, 45, 46, 47, 48, 49, 50, 51, 52, 53, 54, 55, 56, 57, 58, 59, 60, 61, 62, 63, 64, 65, 66, 67, 68, 69, 70, 71, 72, 73, 74, 75, 76, 77, 78, 79, 80, 81, 82, 83, 84, 85, 86, 87, 88, 89, 90, 91, 92, 93, 94, 95, 96, 97, 98, 99, 100, 101, 102, 103, 104, 105, 106, 107, 108, 109, 110, 111, 112, 113, 114, 115, 116, 117, 118, 119, 120, 121, 122, 123, 124, 125],
      "AcquisitionTime": ["101945.120000", "101946.320000", "101947.520000", "101948.720000", "101949.920000", "101951.120000", "101952.320000", "101953.520000", "101954.720000", "101955.920000", "101957.120000", "101958.320000", "101959.520000", "102000.720000", "102001.920000", "102003.120000", "102004.320000", "102005.520000", "102006.720000", "102007.920000", "102009.120000", "102010.320000", "102011.520000", "102012.720000", "102013.920000", "102015.120000", "102016.320000", "102017.520000", "102018.720000", "102019.920000", "102021.120000", "102022.320000", "102023.520000", "102024.720000", "102025.920000", "102027.120000", "102028.320000", "102029.520000", "102030.720000", "102031.920000", "102033.120000", "102034.320000", "102035.520000", "102036.720000", "102037.920000", "102039.120000", "102040.320000", "102041.520000", "102042.720000", "102043.920000", "102045.120000", "102046.320000", "102047.520000", "102048.720000", "102049.920000", "102051.120000", "102052.320000", "102053.520000", "102054.720000", "102055.920000", "102057.120000", "102058.320000", "102059.520000", "102100.720000", "102101.920000", "102103.120000", "102104.320000", "102105.520000", "102106.720000", "102107.920000", "102109.120000", "102110.320000", "102111.520000", "102112.720000", "102113.920000", "102115.120000", "102116.320000", "102117.520000", "102118.720000", "102119.920000", "102121.120000", "102122.320000", "102123.520000", "102124.720000", "102125.920000", "102127.120000", "102128.320000", "102129.520000", "102130.720000", "102131.920000", "102133.120000", "102134.320000", "102135.520000", "102136.720000", "102137.920000", "102139.120000", "102140.320000", "102141.520000", "102142.720000", "102143.920000", "102145.120000", "102146.320000", "102147.520000", "102148.720000", "102149.920000", "102151.120000", "102152.320000", "102153.520000", "102154.720000", "102155.920000", "102157.120000", "102158.320000", "102159.520000", "102200.720000", "102201.920000", "102203.120000", "102204.320000", "102205.520000", "102206.720000", "102207.920000", "102209.120000", "102210.320000", "102211.520000", "102212.720000", "102213.920000"],
      "ContentTime": ["102019.014000", "102019.017000", "102019.020000", "102019.022000", "102019.025000", "102019.032000", "102019.035000", "102019.037000", "102019.040000", "102019.042000", "102019.045000", "102019.047000", "102019.050000", "102019.053000", "102019.055000", "102019.058000", "102019.060000", "102019.063000", "102019.066000", "102019.068000", "102019.071000", "102019.073000", "102019.076000", "102019.079000", "102019.081000", "102019.084000", "102019.086000", "102019.089000", "102059.009000", "102059.013000", "102059.015000", "102059.018000", "102059.020000", "102059.023000", "102059.026000", "102059.028000", "102059.040000", "102059.043000", "102059.045000", "102059.048000", "102059.050000", "102059.053000", "102059.056000", "102059.058000", "102059.061000", "102059.063000", "102059.066000", "102059.069000", "102059.071000", "102059.074000", "102059.076000", "102059.079000", "102059.081000", "102059.097000", "102059.100000", "102059.102000", "102059.105000", "102059.107000", "102059.110000", "102059.112000", "102059.115000", "102139.011000", "102139.013000", "102139.016000", "102139.019000", "102139.021000", "102139.024000", "102139.027000", "102139.029000", "102139.032000", "102139.034000", "102139.037000", "102139.040000", "102139.042000", "102139.045000", "102139.048000", "102139.050000", "102139.053000", "102139.055000", "102139.058000", "102139.072000", "102139.075000", "102139.077000", "102139.080000", "102139.083000", "102139.085000", "102139.088000", "102139.091000", "102139.093000", "102139.096000", "102139.098000", "102139.101000", "102139.104000", "102139.106000", "102215.144000", "102215.147000", "102215.149000", "102215.152000", "102215.155000", "102215.157000", "102215.160000", "102215.162000", "102215.165000", "102215.168000", "102215.170000", "102215.173000", "102215.176000", "102215.178000", "102215.181000", "102215.184000", "102215.186000", "102215.189000", "102215.191000", "102215.194000", "102215.196000", "102215.199000", "102215.202000", "102215.204000", "102215.207000", "102215.210000", "102215.212000", "102215.215000", "102215.217000", "102215.220000", "102215.222000"],
      "InstanceCreationTime": ["102019.014000", "102019.017000", "102019.020000", "102019.022000", "102019.025000", "102019.032000", "102019.035000", "102019.037000", "102019.040000", "102019.042000", "102019.045000", "102019.047000", "102019.050000", "102019.053000", "102019.055000", "102019.058000", "102019.060000", "102019.063000", "102019.066000", "102019.068000", "102019.071000", "102019.073000", "102019.076000", "102019.079000", "102019.081000", "102019.084000", "102019.086000", "102019.089000", "102059.009000", "102059.013000", "102059.015000", "102059.018000", "102059.020000", "102059.023000", "102059.026000", "102059.028000", "102059.040000", "102059.043000", "102059.045000", "102059.048000", "102059.050000", "102059.053000", "102059.056000", "102059.058000", "102059.061000", "102059.063000", "102059.066000", "102059.069000", "102059.071000", "102059.074000", "102059.076000", "102059.079000", "102059.081000", "102059.097000", "102059.100000", "102059.102000", "102059.105000", "102059.107000", "102059.110000", "102059.112000", "102059.115000", "102139.011000", "102139.013000", "102139.016000", "102139.019000", "102139.021000", "102139.024000", "102139.027000", "102139.029000", "102139.032000", "102139.034000", "102139.037000", "102139.040000", "102139.042000", "102139.045000", "102139.048000", "102139.050000", "102139.053000", "102139.055000", "102139.058000", "102139.072000", "102139.075000", "102139.077000", "102139.080000", "102139.083000", "102139.085000", "102139.088000", "102139.091000", "102139.093000", "102139.096000", "102139.098000", "102139.101000", "102139.104000", "102139.106000", "102215.144000", "102215.147000", "102215.149000", "102215.152000", "102215.155000", "102215.157000", "102215.160000", "102215.162000", "102215.165000", "102215.168000", "102215.170000", "102215.173000", "102215.176000", "102215.178000", "102215.181000", "102215.184000", "102215.186000", "102215.189000", "102215.191000", "102215.194000", "102215.196000", "102215.199000", "102215.202000", "102215.204000", "102215.207000", "102215.210000", "102215.212000", "102215.215000", "102215.217000", "102215.220000", "102215.222000"],
      "InstanceNumber": [1, 2, 3, 4, 5, 6, 7, 8, 9, 10, 11, 12, 13, 14, 15, 16, 17, 18, 19, 20, 21, 22, 23, 24, 25, 26, 27, 28, 29, 30, 31, 32, 33, 34, 35, 36, 37, 38, 39, 40, 41, 42, 43, 44, 45, 46, 47, 48, 49, 50, 51, 52, 53, 54, 55, 56, 57, 58, 59, 60, 61, 62, 63, 64, 65, 66, 67, 68, 69, 70, 71, 72, 73, 74, 75, 76, 77, 78, 79, 80, 81, 82, 83, 84, 85, 86, 87, 88, 89, 90, 91, 92, 93, 94, 95, 96, 97, 98, 99, 100, 101, 102, 103, 104, 105, 106, 107, 108, 109, 110, 111, 112, 113, 114, 115, 116, 117, 118, 119, 120, 121, 122, 123, 124, 125],
      "LargestImagePixelValue": [1971, 1933, 1895, 1870, 1873, 1856, 1858, 1850, 1840, 1837, 1841, 1833, 1850, 1843, 1836, 1836, 1834, 1836, 1841, 1846, 1847, 1826, 1821, 1833, 1829, 1836, 1851, 1831, 1829, 1838, 1855, 1839, 1833, 1839, 1823, 1818, 1842, 1836, 1853, 1833, 1831, 1852, 1820, 1821, 1839, 1838, 1843, 1827, 1826, 1817, 1820, 1833, 1811, 1819, 1820, 1835, 1845, 1836, 1829, 1835, 1824, 1828, 1814, 1824, 1833, 1836, 1823, 1826, 1816, 1825, 1828, 1833, 1825, 1831, 1827, 1825, 1825, 1816, 1811, 1813, 1817, 1826, 1830, 1832, 1805, 1814, 1813, 1820, 1826, 1824, 1817, 1825, 1818, 1803, 1810, 1820, 1815, 1811, 1810, 1796, 1820, 1811, 1823, 1829, 1803, 1806, 1808, 1805, 1807, 1811, 1798, 1812, 1800, 1808, 1800, 1793, 1807, 1826, 1827, 1806, 1813, 1821, 1813, 1814, 1809],
      "WindowCenter": [608.0, 605.0, 603.0, 603.0, 603.0, 603.0, 603.0, 603.0, 603.0, 604.0, 604.0, 604.0, 605.0, 604.0, 603.0, 604.0, 604.0, 603.0, 603.0, 602.0, 603.0, 602.0, 603.0, 603.0, 603.0, 603.0, 603.0, 602.0, 601.0, 601.0, 601.0, 601.0, 602.0, 602.0, 602.0, 602.0, 602.0, 603.0, 603.0, 602.0, 602.0, 602.0, 601.0, 601.0, 602.0, 602.0, 603.0, 602.0, 602.0, 603.0, 603.0, 603.0, 604.0, 603.0, 601.0, 602.0, 602.0, 602.0, 602.0, 602.0, 602.0, 602.0, 602.0, 602.0, 603.0, 602.0, 603.0, 603.0, 603.0, 603.0, 604.0, 603.0, 603.0, 602.0, 602.0, 602.0, 602.0, 602.0, 602.0, 602.0, 601.0, 600.0, 601.0, 601.0, 600.0, 601.0, 601.0, 601.0, 602.0, 602.0, 602.0, 603.0, 603.0, 602.0, 602.0, 602.0, 602.0, 602.0, 602.0, 602.0, 602.0, 602.0, 602.0, 602.0, 602.0, 602.0, 602.0, 602.0, 601.0, 601.0, 600.0, 601.0, 600.0, 600.0, 601.0, 601.0, 601.0, 601.0, 601.0, 600.0, 601.0, 601.0, 601.0, 602.0, 603.0],
      "WindowWidth": [1290.0, 1283.0, 1279.0, 1279.0, 1279.0, 1279.0, 1280.0, 1280.0, 1280.0, 1281.0, 1281.0, 1282.0, 1284.0, 1282.0, 1280.0, 1281.0, 1280.0, 1280.0, 1279.0, 1277.0, 1279.0, 1278.0, 1279.0, 1280.0, 1279.0, 1279.0, 1280.0, 1276.0, 1274.0, 1275.0, 1274.0, 1275.0, 1276.0, 1276.0, 1277.0, 1278.0, 1278.0, 1279.0, 1279.0, 1276.0, 1277.0, 1277.0, 1276.0, 1276.0, 1278.0, 1278.0, 1279.0, 1277.0, 1277.0, 1278.0, 1278.0, 1279.0, 1281.0, 1278.0, 1276.0, 1277.0, 1277.0, 1277.0, 1277.0, 1278.0, 1277.0, 1277.0, 1278.0, 1277.0, 1279.0, 1278.0, 1278.0, 1280.0, 1280.0, 1280.0, 1281.0, 1280.0, 1279.0, 1278.0, 1277.0, 1277.0, 1277.0, 1277.0, 1277.0, 1276.0, 1275.0, 1273.0, 1274.0, 1275.0, 1273.0, 1274.0, 1275.0, 1275.0, 1277.0, 1277.0, 1278.0, 1279.0, 1278.0, 1277.0, 1277.0, 1277.0, 1277.0, 1277.0, 1277.0, 1276.0, 1276.0, 1276.0, 1277.0, 1277.0, 1277.0, 1278.0, 1278.0, 1276.0, 1275.0, 1275.0, 1274.0, 1275.0, 1274.0, 1274.0, 1274.0, 1275.0, 1275.0, 1274.0, 1274.0, 1274.0, 1276.0, 1275.0, 1275.0, 1278.0, 1280.0]
    },
    "slices": {}
  }
}