{
  "AcquisitionMatrixPE": 88,
  "AcquisitionNumber": 1,
  "AcquisitionTime": "10:08:4.440000",
  "BandwidthPerPixelPhaseEncode": 19.592,
  "BaseResolution": 88,
  "BodyPartExamined": "BRAIN",
  "ConsistencyInfo": "N4_VE11C_LATEST_20160120",
  "ConversionSoftware": "dcm2niix",
  "ConversionSoftwareVersion": "v1.0.20190902",
  "DerivedVendorReportedEchoSpacing": 0.000580014,
  "DeviceSerialNumber": "67050",
  "DwellTime": 2.6e-06,
  "EchoTime": 0.033,
  "EchoTrainLength": 88,
  "EffectiveEchoSpacing": 0.000580014,
  "FlipAngle": 62,
  "ImageOrientationPatientDICOM": [0.991968, -0.040582, 0.119806, 0.046086, 0.997988, -0.0435323],
  "ImageType": [
    "ORIGINAL",
    "PRIMARY",
    "M",
    "ND",
    "MOSAIC"
],
  "ImagingFrequency": 123.25,
  "InPlanePhaseEncodingDirectionDICOM": "COL",
  "InstitutionAddress": "Olive_Street_60_Providence_RI_US_02912",
  "InstitutionName": "BROWN_UNIVERSITY_MRF",
  "InstitutionalDepartmentName": "Department",
  "MRAcquisitionType": "2D",
  "MagneticFieldStrength": 3,
  "Manufacturer": "Siemens",
  "ManufacturersModelName": "Prisma_fit",
  "Modality": "MR",
  "MultibandAccelerationFactor": 4,
  "PartialFourier": 1,
  "PatientPosition": "HFS",
  "PercentPhaseFOV": 100,
  "PhaseEncodingDirection": "j-",
  "PhaseEncodingSteps": 88,
  "PhaseResolution": 1,
  "PixelBandwidth": 2185,
  "ProcedureStepDescription": "ASHENHAV_1222",
  "ProtocolName": "func-bold_task-RDMmotion_run-02",
  "PulseSequenceDetails": "%SiemensSeq%_ep2d_bold",
  "ReceiveCoilActiveElements": "HC1-7;NC1",
  "ReceiveCoilName": "HeadNeck_64",
  "ReconMatrixPE": 88,
  "RefLinesPE": 8,
  "RepetitionTime": 1.2,
  "SAR": 0.044438,
  "ScanOptions": "FS",
  "ScanningSequence": "EP",
  "SequenceName": "_epfid2d1_88",
  "SequenceVariant": "SK",
  "SeriesDescription": "func-bold_task-RDMmotion_run-02",
  "SeriesNumber": 9,
  "ShimSetting": [1754, -9132, 4447, 592, -215, -218, -40, 12],
  "SliceThickness": 2.4,
  "SliceTiming": [0.55, 0, 0.63, 0.08, 0.7075, 0.1575, 0.7875, 0.2375, 0.865, 0.315, 0.945, 0.395, 1.0225, 0.4725, 1.1025, 0.55, 0, 0.63, 0.08, 0.7075, 0.1575, 0.7875, 0.2375, 0.865, 0.315, 0.945, 0.395, 1.0225, 0.4725, 1.1025, 0.55, 0, 0.63, 0.08, 0.7075, 0.1575, 0.7875, 0.2375, 0.865, 0.315, 0.945, 0.395, 1.0225, 0.4725, 1.1025, 0.55, 0, 0.63, 0.08, 0.7075, 0.1575, 0.7875, 0.2375, 0.865, 0.315, 0.945, 0.395, 1.0225, 0.4725, 1.1025],
  "SoftwareVersions": "syngo_MR_E11",
  "SpacingBetweenSlices": 2.4,
  "StationName": "AWP67050",
  "TaskName": "RDMmotion",
  "TotalReadoutTime": 0.0504612,
  "TxRefAmp": 217.084,
  "dcmmeta_affine": [
    [-2.3784677982330322, 0.11050157994031906, 0.2827153503894806, 95.86100769042969],
    [0.0973045825958252, 2.392904281616211, -0.11688947677612305, -93.6602783203125],
    [0.28726133704185486, 0.10437847673892975, 2.3804221153259277, -68.33333587646484],
    [0.0, 0.0, 0.0, 1.0]
],
  "dcmmeta_reorient_transform": [
    [0.0, -1.0, 0.0, 87.0],
    [1.0, 0.0, 0.0, 0.0],
    [0.0, 0.0, 1.0, 0.0],
    [0.0, 0.0, 0.0, 1.0]
],
  "dcmmeta_shape": [88, 88, 60, 125],
  "dcmmeta_slice_dim": 2,
  "dcmmeta_version": 0.6,
  "global": {
    "const": {
      "AcquisitionMatrix": [88, 0, 0, 88],
      "AngioFlag": "N",
      "BitsAllocated": 16,
      "BitsStored": 12,
      "BodyPartExamined": "BRAIN",
      "Columns": 704,
      "DeidentificationMethodCodeSequence": [
        {
          "CodeMeaning": "XNAT DicomEdit 6 Script",
          "CodeValue": "3",
          "CodingSchemeDesignator": "XNAT",
          "CodingSchemeVersion": "1.0"}
],
      "EchoNumbers": 1,
      "EchoTime": 33.0,
      "EchoTrainLength": 88,
      "FlipAngle": 62.0,
      "HighBit": 11,
      "ImageOrientationPatient": [0.99196759010785, -0.0405820056992, 0.11980568012013, 0.04608596755381, 0.99798849003879, -0.0435322563707],
      "ImagePositionPatient": [-872.07718810915, -821.56706908689, -115.58032783942],
      "ImageType": [
        "ORIGINAL",
        "PRIMARY",
        "M",
        "ND",
        "MOSAIC"
],
      "ImagedNucleus": "1H",
      "ImagingFrequency": 123.250481,
      "InPlanePhaseEncodingDirection": "COL",
      "MRAcquisitionType": "2D",
      "MagneticFieldStrength": 3.0,
      "Manufacturer": "SIEMENS",
      "ManufacturerModelName": "Prisma_fit",
      "Modality": "MR",
      "NumberOfAverages": 1.0,
      "NumberOfPhaseEncodingSteps": 88,
      "PercentPhaseFieldOfView": 100.0,
      "PercentSampling": 100.0,
      "PerformedProcedureStepStartTime": "094920.742000",
      "PhotometricInterpretation": "MONOCHROME2",
      "PixelBandwidth": 2185.0,
      "PixelRepresentation": 0,
      "PixelSpacing": [2.3977272510529, 2.3977272510529],
      "ProtocolName": "func-bold_task-RDMmotion_run-02",
      "RepetitionTime": 1200.0,
      "Rows": 704,
      "SAR": 0.04443803117119,
      "SamplesPerPixel": 1,
      "ScanOptions": "FS",
      "ScanningSequence": "EP",
      "SequenceName": "*epfid2d1_88",
      "SequenceVariant": "SK",
      "SeriesDescription": "func-bold_task-RDMmotion_run-02",
      "SeriesNumber": 9,
      "SeriesTime": "100840.276000",
      "SliceLocation": -51.922037047307,
      "SliceThickness": 2.4000000953674,
      "SmallestImagePixelValue": 0,
      "SoftwareVersions": "syngo MR E11",
      "SpacingBetweenSlices": 2.4000000470758,
      "SpecificCharacterSet": "ISO_IR 100",
      "StudyID": "1",
      "StudyTime": "094920.527000",
      "TransmitCoilName": "Body",
      "VariableFlipAngleFlag": "N",
      "WindowCenterWidthExplanation": "Algo1",
      "dBdt": 0.0},
    "slices": {}
  },
  "time": {
    "samples": {
      "AcquisitionNumber": [1, 2, 3, 4, 5, 6, 7, 8, 9, 10, 11, 12, 13, 14, 15, 16, 17, 18, 19, 20, 21, 22, 23, 24, 25, 26, 27, 28, 29, 30, 31, 32, 33, 34, 35, 36, 37, 38, 39, 40, 41, 42, 43, 44, 45, 46, 47, 48, 49, 50, 51, 52, 53, 54, 55, 56, 57, 58, 59, 60, 61, 62, 63, 64, 65, 66, 67, 68, 69, 70, 71, 72, 73, 74, 75, 76, 77, 78, 79, 80, 81, 82, 83, 84, 85, 86, 87, 88, 89, 90, 91, 92, 93, 94, 95, 96, 97, 98, 99, 100, 101, 102, 103, 104, 105, 106, 107, 108, 109, 110, 111, 112, 113, 114, 115, 116, 117, 118, 119, 120, 121, 122, 123, 124, 125],
      "AcquisitionTime": ["100804.440000", "100805.640000", "100806.840000", "100808.040000", "100809.240000", "100810.440000", "100811.640000", "100812.840000", "100814.040000", "100815.240000", "100816.440000", "100817.640000", "100818.840000", "100820.040000", "100821.240000", "100822.440000", "100823.640000", "100824.840000", "100826.040000", "100827.240000", "100828.440000", "100829.640000", "100830.840000", "100832.040000", "100833.240000", "100834.440000", "100835.640000", "100836.840000", "100838.040000", "100839.240000", "100840.440000", "100841.640000", "100842.840000", "100844.040000", "100845.240000", "100846.440000", "100847.640000", "100848.840000", "100850.040000", "100851.240000", "100852.440000", "100853.640000", "100854.840000", "100856.040000", "100857.240000", "100858.440000", "100859.640000", "100900.840000", "100902.040000", "100903.240000", "100904.440000", "100905.640000", "100906.840000", "100908.040000", "100909.240000", "100910.440000", "100911.640000", "100912.840000", "100914.040000", "100915.240000", "100916.440000", "100917.640000", "100918.840000", "100920.040000", "100921.240000", "100922.440000", "100923.640000", "100924.840000", "100926.040000", "100927.240000", "100928.440000", "100929.640000", "100930.840000", "100932.040000", "100933.240000", "100934.440000", "100935.640000", "100936.840000", "100938.040000", "100939.240000", "100940.440000", "100941.640000", "100942.840000", "100944.040000", "100945.240000", "100946.440000", "100947.640000", "100948.840000", "100950.040000", "100951.240000", "100952.440000", "100953.640000", "100954.840000", "100956.040000", "100957.240000", "100958.440000", "100959.640000", "101000.840000", "101002.040000", "101003.240000", "101004.440000", "101005.640000", "101006.840000", "101008.040000", "101009.240000", "101010.440000", "101011.640000", "101012.840000", "101014.040000", "101015.240000", "101016.440000", "101017.640000", "101018.840000", "101020.040000", "101021.240000", "101022.440000", "101023.640000", "101024.840000", "101026.040000", "101027.240000", "101028.440000", "101029.640000", "101030.840000", "101032.040000", "101033.240000"],
      "ContentTime": ["100840.279000", "100840.293000", "100840.299000", "100840.302000", "100840.305000", "100840.307000", "100840.310000", "100840.312000", "100840.315000", "100840.317000", "100840.320000", "100840.323000", "100840.325000", "100840.328000", "100840.331000", "100840.333000", "100840.336000", "100840.338000", "100840.341000", "100840.344000", "100840.346000", "100840.349000", "100840.351000", "100840.354000", "100840.356000", "100840.359000", "100840.362000", "100840.364000", "100840.367000", "100920.275000", "100920.277000", "100920.280000", "100920.283000", "100920.285000", "100920.288000", "100920.297000", "100920.300000", "100920.302000", "100920.305000", "100920.308000", "100920.311000", "100920.313000", "100920.326000", "100920.328000", "100920.331000", "100920.333000", "100920.336000", "100920.339000", "100920.341000", "100920.344000", "100920.347000", "100920.349000", "100920.352000", "100920.354000", "100920.357000", "100920.360000", "100920.362000", "100920.365000", "100920.367000", "100920.370000", "100920.372000", "100920.375000", "101000.275000", "101000.278000", "101000.281000", "101000.284000", "101000.286000", "101000.289000", "101000.292000", "101000.294000", "101000.297000", "101000.299000", "101000.302000", "101000.304000", "101000.307000", "101000.309000", "101000.312000", "101000.315000", "101000.318000", "101000.320000", "101000.323000", "101000.325000", "101000.328000", "101000.331000", "101000.333000", "101000.336000", "101000.338000", "101000.341000", "101000.343000", "101000.346000", "101000.349000", "101000.358000", "101000.361000", "101000.363000", "101000.366000", "101000.368000", "101034.814000", "101034.817000", "101034.820000", "101034.822000", "101034.825000", "101034.827000", "101034.830000", "101034.833000", "101034.850000", "101034.853000", "101034.862000", "101034.864000", "101034.867000", "101034.869000", "101034.872000", "101034.875000", "101034.878000", "101034.880000", "101034.883000", "101034.885000", "101034.888000", "101034.891000", "101034.893000", "101034.896000", "101034.899000", "101034.901000", "101034.904000", "101034.911000", "101034.914000"],
      "InstanceCreationTime": ["100840.279000", "100840.293000", "100840.299000", "100840.302000", "100840.305000", "100840.307000", "100840.310000", "100840.312000", "100840.315000", "100840.317000", "100840.320000", "100840.323000", "100840.325000", "100840.328000", "100840.331000", "100840.333000", "100840.336000", "100840.338000", "100840.341000", "100840.344000", "100840.346000", "100840.349000", "100840.351000", "100840.354000", "100840.356000", "100840.359000", "100840.362000", "100840.364000", "100840.367000", "100920.275000", "100920.277000", "100920.280000", "100920.283000", "100920.285000", "100920.288000", "100920.297000", "100920.300000", "100920.302000", "100920.305000", "100920.308000", "100920.311000", "100920.313000", "100920.326000", "100920.328000", "100920.331000", "100920.333000", "100920.336000", "100920.339000", "100920.341000", "100920.344000", "100920.347000", "100920.349000", "100920.352000", "100920.354000", "100920.357000", "100920.360000", "100920.362000", "100920.365000", "100920.367000", "100920.370000", "100920.372000", "100920.375000", "101000.275000", "101000.278000", "101000.281000", "101000.284000", "101000.286000", "101000.289000", "101000.292000", "101000.294000", "101000.297000", "101000.299000", "101000.302000", "101000.304000", "101000.307000", "101000.309000", "101000.312000", "101000.315000", "101000.318000", "101000.320000", "101000.323000", "101000.325000", "101000.328000", "101000.331000", "101000.333000", "101000.336000", "101000.338000", "101000.341000", "101000.343000", "101000.346000", "101000.349000", "101000.358000", "101000.361000", "101000.363000", "101000.366000", "101000.368000", "101034.814000", "101034.817000", "101034.820000", "101034.822000", "101034.825000", "101034.827000", "101034.830000", "101034.833000", "101034.850000", "101034.853000", "101034.862000", "101034.864000", "101034.867000", "101034.869000", "101034.872000", "101034.875000", "101034.878000", "101034.880000", "101034.883000", "101034.885000", "101034.888000", "101034.891000", "101034.893000", "101034.896000", "101034.899000", "101034.901000", "101034.904000", "101034.911000", "101034.914000"],
      "InstanceNumber": [1, 2, 3, 4, 5, 6, 7, 8, 9, 10, 11, 12, 13, 14, 15, 16, 17, 18, 19, 20, 21, 22, 23, 24, 25, 26, 27, 28, 29, 30, 31, 32, 33, 34, 35, 36, 37, 38, 39, 40, 41, 42, 43, 44, 45, 46, 47, 48, 49, 50, 51, 52, 53, 54, 55, 56, 57, 58, 59, 60, 61, 62, 63, 64, 65, 66, 67, 68, 69, 70, 71, 72, 73, 74, 75, 76, 77, 78, 79, 80, 81, 82, 83, 84, 85, 86, 87, 88, 89, 90, 91, 92, 93, 94, 95, 96, 97, 98, 99, 100, 101, 102, 103, 104, 105, 106, 107, 108, 109, 110, 111, 112, 113, 114, 115, 116, 117, 118, 119, 120, 121, 122, 123, 124, 125],
      "LargestImagePixelValue": [2016, 1941, 1890, 1864, 1842, 1830, 1827, 1841, 1844, 1846, 1832, 1825, 1849, 1822, 1822, 1836, 1833, 1841, 1833, 1838, 1856, 1808, 1821, 1833, 1829, 1853, 1836, 1798, 1810, 1827, 1860, 1866, 1828, 1838, 1807, 1825, 1813, 1828, 1827, 1829, 1830, 1813, 1805, 1809, 1834, 1838, 1802, 1828, 1815, 1828, 1823, 1840, 1831, 1817, 1837, 1831, 1833, 1844, 1823, 1833, 1841, 1828, 1845, 1826, 1821, 1833, 1829, 1839, 1831, 1822, 1828, 1792, 1822, 1827, 1823, 1829, 1847, 1846, 1847, 1819, 1820, 1825, 1823, 1825, 1832, 1809, 1817, 1827, 1825, 1815, 1826, 1799, 1819, 1807, 1808, 1796, 1826, 1831, 1848, 1825, 1838, 1847, 1814, 1814, 1821, 1815, 1812, 1808, 1813, 1823, 1837, 1825, 1836, 1823, 1815, 1834, 1830, 1829, 1842, 1837, 1846, 1850, 1828, 1845, 1819],
      "WindowCenter": [613.0, 610.0, 608.0, 606.0, 606.0, 605.0, 605.0, 605.0, 605.0, 605.0, 604.0, 604.0, 604.0, 604.0, 605.0, 605.0, 605.0, 605.0, 604.0, 604.0, 604.0, 603.0, 604.0, 604.0, 604.0, 605.0, 604.0, 604.0, 604.0, 604.0, 604.0, 603.0, 602.0, 602.0, 601.0, 602.0, 602.0, 602.0, 603.0, 603.0, 603.0, 603.0, 603.0, 603.0, 604.0, 604.0, 604.0, 604.0, 604.0, 604.0, 603.0, 603.0, 604.0, 604.0, 604.0, 604.0, 604.0, 604.0, 604.0, 604.0, 604.0, 603.0, 603.0, 603.0, 603.0, 603.0, 603.0, 604.0, 604.0, 604.0, 604.0, 603.0, 603.0, 603.0, 603.0, 604.0, 604.0, 603.0, 603.0, 603.0, 603.0, 602.0, 602.0, 603.0, 603.0, 603.0, 603.0, 603.0, 603.0, 602.0, 602.0, 602.0, 603.0, 602.0, 602.0, 603.0, 603.0, 604.0, 604.0, 604.0, 605.0, 605.0, 604.0, 604.0, 604.0, 604.0, 604.0, 604.0, 604.0, 604.0, 604.0, 603.0, 603.0, 603.0, 603.0, 603.0, 602.0, 602.0, 603.0, 604.0, 604.0, 604.0, 603.0, 603.0, 603.0],
      "WindowWidth": [1303.0, 1295.0, 1290.0, 1287.0, 1285.0, 1285.0, 1285.0, 1284.0, 1283.0, 1283.0, 1282.0, 1281.0, 1281.0, 1282.0, 1283.0, 1284.0, 1284.0, 1284.0, 1282.0, 1282.0, 1282.0, 1281.0, 1282.0, 1281.0, 1282.0, 1283.0, 1283.0, 1282.0, 1281.0, 1281.0, 1280.0, 1278.0, 1276.0, 1277.0, 1276.0, 1278.0, 1278.0, 1278.0, 1279.0, 1279.0, 1280.0, 1280.0, 1279.0, 1280.0, 1282.0, 1281.0, 1281.0, 1281.0, 1281.0, 1281.0, 1280.0, 1280.0, 1281.0, 1281.0, 1282.0, 1282.0, 1282.0, 1282.0, 1282.0, 1282.0, 1282.0, 1280.0, 1280.0, 1279.0, 1280.0, 1280.0, 1280.0, 1281.0, 1282.0, 1282.0, 1281.0, 1281.0, 1281.0, 1280.0, 1280.0, 1281.0, 1281.0, 1280.0, 1280.0, 1279.0, 1279.0, 1278.0, 1278.0, 1279.0, 1280.0, 1280.0, 1281.0, 1279.0, 1279.0, 1278.0, 1278.0, 1278.0, 1279.0, 1277.0, 1278.0, 1279.0, 1280.0, 1281.0, 1281.0, 1281.0, 1283.0, 1283.0, 1282.0, 1281.0, 1281.0, 1281.0, 1282.0, 1281.0, 1282.0, 1282.0, 1281.0, 1280.0, 1280.0, 1279.0, 1279.0, 1279.0, 1277.0, 1278.0, 1280.0, 1281.0, 1282.0, 1281.0, 1279.0, 1280.0, 1279.0]
    },
    "slices": {}
  }
}