{
  "AcquisitionMatrixPE": 88,
  "AcquisitionNumber": 1,
  "AcquisitionTime": "16:55:13.637500",
  "BandwidthPerPixelPhaseEncode": 19.592,
  "BaseResolution": 88,
  "BodyPartExamined": "BRAIN",
  "ConsistencyInfo": "N4_VE11C_LATEST_20160120",
  "ConversionSoftware": "dcm2niix",
  "ConversionSoftwareVersion": "v1.0.20190902",
  "DerivedVendorReportedEchoSpacing": 0.000580014,
  "DeviceSerialNumber": "67050",
  "DwellTime": 2.6e-06,
  "EchoTime": 0.033,
  "EchoTrainLength": 88,
  "EffectiveEchoSpacing": 0.000580014,
  "FlipAngle": 62,
  "ImageOrientationPatientDICOM": [0.999597, -0.0169675, 0.0227395, 0.0181461, 0.998447, -0.0526698],
  "ImageType": [
    "ORIGINAL",
    "PRIMARY",
    "M",
    "ND",
    "MOSAIC"
],
  "ImagingFrequency": 123.251,
  "InPlanePhaseEncodingDirectionDICOM": "COL",
  "InstitutionAddress": "Olive_Street_60_Providence_RI_US_02912",
  "InstitutionName": "BROWN_UNIVERSITY_MRF",
  "InstitutionalDepartmentName": "Department",
  "MRAcquisitionType": "2D",
  "MagneticFieldStrength": 3,
  "Manufacturer": "Siemens",
  "ManufacturersModelName": "Prisma_fit",
  "Modality": "MR",
  "MultibandAccelerationFactor": 4,
  "PartialFourier": 1,
  "PatientPosition": "HFS",
  "PercentPhaseFOV": 100,
  "PhaseEncodingDirection": "j-",
  "PhaseEncodingSteps": 88,
  "PhaseResolution": 1,
  "PixelBandwidth": 2185,
  "ProcedureStepDescription": "ASHENHAV_1222",
  "ProtocolName": "func-bold_task-RDMcolor_run-03",
  "PulseSequenceDetails": "%SiemensSeq%_ep2d_bold",
  "ReceiveCoilActiveElements": "HC1-7",
  "ReceiveCoilName": "HeadNeck_64",
  "ReconMatrixPE": 88,
  "RefLinesPE": 8,
  "RepetitionTime": 1.2,
  "SAR": 0.0645837,
  "ScanOptions": "FS",
  "ScanningSequence": "EP",
  "SequenceName": "_epfid2d1_88",
  "SequenceVariant": "SK",
  "SeriesDescription": "func-bold_task-RDMcolor_run-03",
  "SeriesNumber": 12,
  "ShimSetting": [1755, -9095, 4424, 486, -83, -65, -86, -12],
  "SliceThickness": 2.4,
  "SliceTiming": [0.55, 0, 0.63, 0.0775, 0.7075, 0.1575, 0.7875, 0.235, 0.865, 0.315, 0.9425, 0.3925, 1.0225, 0.4725, 1.1, 0.55, 0, 0.63, 0.0775, 0.7075, 0.1575, 0.7875, 0.235, 0.865, 0.315, 0.9425, 0.3925, 1.0225, 0.4725, 1.1, 0.55, 0, 0.63, 0.0775, 0.7075, 0.1575, 0.7875, 0.235, 0.865, 0.315, 0.9425, 0.3925, 1.0225, 0.4725, 1.1, 0.55, 0, 0.63, 0.0775, 0.7075, 0.1575, 0.7875, 0.235, 0.865, 0.315, 0.9425, 0.3925, 1.0225, 0.4725, 1.1],
  "SoftwareVersions": "syngo_MR_E11",
  "SpacingBetweenSlices": 2.4,
  "StationName": "AWP67050",
  "TaskName": "RDMcolor",
  "TotalReadoutTime": 0.0504612,
  "TxRefAmp": 250.311,
  "dcmmeta_affine": [
    [-2.396761894226074, 0.04350942373275757, 0.05234532058238983, 104.64691162109375],
    [0.040683358907699585, 2.3940038681030273, -0.127346932888031, -89.98493194580078],
    [0.054523203521966934, 0.1262877881526947, 2.396047353744507, -76.7020492553711],
    [0.0, 0.0, 0.0, 1.0]
],
  "dcmmeta_reorient_transform": [
    [0.0, -1.0, 0.0, 87.0],
    [1.0, 0.0, 0.0, 0.0],
    [0.0, 0.0, 1.0, 0.0],
    [0.0, 0.0, 0.0, 1.0]
],
  "dcmmeta_shape": [88, 88, 60, 392],
  "dcmmeta_slice_dim": 2,
  "dcmmeta_version": 0.6,
  "global": {
    "const": {
      "AcquisitionMatrix": [88, 0, 0, 88],
      "AngioFlag": "N",
      "BitsAllocated": 16,
      "BitsStored": 12,
      "BodyPartExamined": "BRAIN",
      "Columns": 704,
      "DeidentificationMethodCodeSequence": [
        {
          "CodeMeaning": "XNAT DicomEdit 6 Script",
          "CodeValue": "3",
          "CodingSchemeDesignator": "XNAT",
          "CodingSchemeVersion": "1.0"}
],
      "EchoNumbers": 1,
      "EchoTime": 33.0,
      "EchoTrainLength": 88,
      "FlipAngle": 62.0,
      "HighBit": 11,
      "ImageOrientationPatient": [0.99959742827093, -0.0169674670896, 0.02273953505933, 0.01814610997047, 0.99844710018445, -0.0526697904514],
      "ImagePositionPatient": [-860.03582705944, -843.11609917729, -43.61151482393],
      "ImageType": [
        "ORIGINAL",
        "PRIMARY",
        "M",
        "ND",
        "MOSAIC"
],
      "ImagedNucleus": "1H",
      "ImagingFrequency": 123.250754,
      "InPlanePhaseEncodingDirection": "COL",
      "MRAcquisitionType": "2D",
      "MagneticFieldStrength": 3.0,
      "Manufacturer": "SIEMENS",
      "ManufacturerModelName": "Prisma_fit",
      "Modality": "MR",
      "NumberOfAverages": 1.0,
      "NumberOfPhaseEncodingSteps": 88,
      "PercentPhaseFieldOfView": 100.0,
      "PercentSampling": 100.0,
      "PerformedProcedureStepStartTime": "162113.275000",
      "PhotometricInterpretation": "MONOCHROME2",
      "PixelBandwidth": 2185.0,
      "PixelRepresentation": 0,
      "PixelSpacing": [2.3977272510529, 2.3977272510529],
      "ProtocolName": "func-bold_task-RDMcolor_run-03",
      "RepetitionTime": 1200.0,
      "Rows": 704,
      "SAR": 0.06458367004092,
      "SamplesPerPixel": 1,
      "ScanOptions": "FS",
      "ScanningSequence": "EP",
      "SequenceName": "*epfid2d1_88",
      "SequenceVariant": "SK",
      "SeriesDescription": "func-bold_task-RDMcolor_run-03",
      "SeriesNumber": 12,
      "SeriesTime": "165549.052000",
      "SliceLocation": -69.518604214194,
      "SliceThickness": 2.4000000953674,
      "SmallestImagePixelValue": 0,
      "SoftwareVersions": "syngo MR E11",
      "SpacingBetweenSlices": 2.3999999880093,
      "SpecificCharacterSet": "ISO_IR 100",
      "StudyID": "1",
      "StudyTime": "162113.200000",
      "TransmitCoilName": "Body",
      "VariableFlipAngleFlag": "N",
      "WindowCenterWidthExplanation": "Algo1",
      "dBdt": 0.0},
    "slices": {}
  },
  "time": {
    "samples": {
      "AcquisitionNumber": [1, 2, 3, 4, 5, 6, 7, 8, 9, 10, 11, 12, 13, 14, 15, 16, 17, 18, 19, 20, 21, 22, 23, 24, 25, 26, 27, 28, 29, 30, 31, 32, 33, 34, 35, 36, 37, 38, 39, 40, 41, 42, 43, 44, 45, 46, 47, 48, 49, 50, 51, 52, 53, 54, 55, 56, 57, 58, 59, 60, 61, 62, 63, 64, 65, 66, 67, 68, 69, 70, 71, 72, 73, 74, 75, 76, 77, 78, 79, 80, 81, 82, 83, 84, 85, 86, 87, 88, 89, 90, 91, 92, 93, 94, 95, 96, 97, 98, 99, 100, 101, 102, 103, 104, 105, 106, 107, 108, 109, 110, 111, 112, 113, 114, 115, 116, 117, 118, 119, 120, 121, 122, 123, 124, 125, 126, 127, 128, 129, 130, 131, 132, 133, 134, 135, 136, 137, 138, 139, 140, 141, 142, 143, 144, 145, 146, 147, 148, 149, 150, 151, 152, 153, 154, 155, 156, 157, 158, 159, 160, 161, 162, 163, 164, 165, 166, 167, 168, 169, 170, 171, 172, 173, 174, 175, 176, 177, 178, 179, 180, 181, 182, 183, 184, 185, 186, 187, 188, 189, 190, 191, 192, 193, 194, 195, 196, 197, 198, 199, 200, 201, 202, 203, 204, 205, 206, 207, 208, 209, 210, 211, 212, 213, 214, 215, 216, 217, 218, 219, 220, 221, 222, 223, 224, 225, 226, 227, 228, 229, 230, 231, 232, 233, 234, 235, 236, 237, 238, 239, 240, 241, 242, 243, 244, 245, 246, 247, 248, 249, 250, 251, 252, 253, 254, 255, 256, 257, 258, 259, 260, 261, 262, 263, 264, 265, 266, 267, 268, 269, 270, 271, 272, 273, 274, 275, 276, 277, 278, 279, 280, 281, 282, 283, 284, 285, 286, 287, 288, 289, 290, 291, 292, 293, 294, 295, 296, 297, 298, 299, 300, 301, 302, 303, 304, 305, 306, 307, 308, 309, 310, 311, 312, 313, 314, 315, 316, 317, 318, 319, 320, 321, 322, 323, 324, 325, 326, 327, 328, 329, 330, 331, 332, 333, 334, 335, 336, 337, 338, 339, 340, 341, 342, 343, 344, 345, 346, 347, 348, 349, 350, 351, 352, 353, 354, 355, 356, 357, 358, 359, 360, 361, 362, 363, 364, 365, 366, 367, 368, 369, 370, 371, 372, 373, 374, 375, 376, 377, 378, 379, 380, 381, 382, 383, 384, 385, 386, 387, 388, 389, 390, 391, 392],
      "AcquisitionTime": ["165513.637500", "165514.837500", "165516.037500", "165517.237500", "165518.437500", "165519.637500", "165520.837500", "165522.037500", "165523.237500", "165524.437500", "165525.637500", "165526.837500", "165528.037500", "165529.237500", "165530.437500", "165531.637500", "165532.837500", "165534.037500", "165535.237500", "165536.437500", "165537.637500", "165538.837500", "165540.037500", "165541.237500", "165542.437500", "165543.637500", "165544.837500", "165546.037500", "165547.237500", "165548.437500", "165549.637500", "165550.837500", "165552.037500", "165553.237500", "165554.437500", "165555.637500", "165556.837500", "165558.037500", "165559.237500", "165600.437500", "165601.637500", "165602.837500", "165604.037500", "165605.237500", "165606.437500", "165607.637500", "165608.837500", "165610.037500", "165611.237500", "165612.437500", "165613.637500", "165614.837500", "165616.037500", "165617.237500", "165618.437500", "165619.637500", "165620.837500", "165622.037500", "165623.237500", "165624.437500", "165625.637500", "165626.837500", "165628.037500", "165629.237500", "165630.437500", "165631.637500", "165632.837500", "165634.037500", "165635.237500", "165636.437500", "165637.637500", "165638.837500", "165640.037500", "165641.237500", "165642.437500", "165643.637500", "165644.837500", "165646.037500", "165647.237500", "165648.437500", "165649.637500", "165650.837500", "165652.037500", "165653.237500", "165654.437500", "165655.637500", "165656.837500", "165658.037500", "165659.237500", "165700.437500", "165701.637500", "165702.837500", "165704.037500", "165705.237500", "165706.437500", "165707.637500", "165708.837500", "165710.037500", "165711.237500", "165712.437500", "165713.637500", "165714.837500", "165716.037500", "165717.237500", "165718.437500", "165719.637500", "165720.837500", "165722.037500", "165723.237500", "165724.437500", "165725.637500", "165726.837500", "165728.037500", "165729.237500", "165730.437500", "165731.637500", "165732.837500", "165734.037500", "165735.237500", "165736.437500", "165737.637500", "165738.837500", "165740.037500", "165741.237500", "165742.437500", "165743.637500", "165744.837500", "165746.037500", "165747.237500", "165748.437500", "165749.637500", "165750.837500", "165752.037500", "165753.237500", "165754.437500", "165755.637500", "165756.837500", "165758.037500", "165759.237500", "165800.437500", "165801.637500", "165802.837500", "165804.037500", "165805.237500", "165806.437500", "165807.637500", "165808.837500", "165810.037500", "165811.237500", "165812.437500", "165813.637500", "165814.837500", "165816.037500", "165817.237500", "165818.437500", "165819.637500", "165820.837500", "165822.037500", "165823.237500", "165824.437500", "165825.637500", "165826.837500", "165828.037500", "165829.237500", "165830.437500", "165831.637500", "165832.837500", "165834.037500", "165835.237500", "165836.437500", "165837.637500", "165838.837500", "165840.037500", "165841.237500", "165842.437500", "165843.637500", "165844.837500", "165846.037500", "165847.237500", "165848.437500", "165849.637500", "165850.837500", "165852.037500", "165853.237500", "165854.437500", "165855.637500", "165856.837500", "165858.037500", "165859.237500", "165900.437500", "165901.637500", "165902.837500", "165904.037500", "165905.237500", "165906.437500", "165907.637500", "165908.837500", "165910.037500", "165911.237500", "165912.437500", "165913.637500", "165914.837500", "165916.037500", "165917.237500", "165918.437500", "165919.637500", "165920.837500", "165922.037500", "165923.237500", "165924.437500", "165925.637500", "165926.837500", "165928.037500", "165929.237500", "165930.437500", "165931.637500", "165932.837500", "165934.037500", "165935.237500", "165936.437500", "165937.637500", "165938.837500", "165940.037500", "165941.237500", "165942.437500", "165943.637500", "165944.837500", "165946.037500", "165947.237500", "165948.437500", "165949.637500", "165950.837500", "165952.037500", "165953.237500", "165954.437500", "165955.637500", "165956.837500", "165958.037500", "165959.237500", "170000.437500", "170001.637500", "170002.837500", "170004.037500", "170005.237500", "170006.437500", "170007.637500", "170008.837500", "170010.037500", "170011.237500", "170012.437500", "170013.637500", "170014.837500", "170016.037500", "170017.237500", "170018.437500", "170019.637500", "170020.837500", "170022.037500", "170023.237500", "170024.437500", "170025.637500", "170026.837500", "170028.037500", "170029.237500", "170030.437500", "170031.637500", "170032.837500", "170034.037500", "170035.237500", "170036.437500", "170037.637500", "170038.837500", "170040.037500", "170041.237500", "170042.437500", "170043.637500", "170044.837500", "170046.037500", "170047.237500", "170048.437500", "170049.637500", "170050.837500", "170052.037500", "170053.237500", "170054.437500", "170055.637500", "170056.837500", "170058.037500", "170059.237500", "170100.437500", "170101.637500", "170102.837500", "170104.037500", "170105.237500", "170106.437500", "170107.637500", "170108.837500", "170110.037500", "170111.237500", "170112.437500", "170113.637500", "170114.837500", "170116.037500", "170117.237500", "170118.437500", "170119.637500", "170120.837500", "170122.037500", "170123.237500", "170124.437500", "170125.637500", "170126.837500", "170128.037500", "170129.237500", "170130.437500", "170131.637500", "170132.837500", "170134.037500", "170135.237500", "170136.437500", "170137.637500", "170138.837500", "170140.037500", "170141.237500", "170142.437500", "170143.637500", "170144.837500", "170146.037500", "170147.237500", "170148.437500", "170149.637500", "170150.837500", "170152.037500", "170153.237500", "170154.437500", "170155.637500", "170156.837500", "170158.037500", "170159.237500", "170200.437500", "170201.637500", "170202.837500", "170204.037500", "170205.237500", "170206.437500", "170207.637500", "170208.837500", "170210.037500", "170211.237500", "170212.437500", "170213.637500", "170214.837500", "170216.037500", "170217.237500", "170218.437500", "170219.637500", "170220.837500", "170222.037500", "170223.237500", "170224.437500", "170225.637500", "170226.837500", "170228.037500", "170229.237500", "170230.437500", "170231.637500", "170232.837500", "170234.037500", "170235.237500", "170236.437500", "170237.637500", "170238.837500", "170240.037500", "170241.237500", "170242.437500", "170243.637500", "170244.837500", "170246.037500", "170247.237500", "170248.437500", "170249.637500", "170250.837500", "170252.037500", "170253.237500", "170254.437500", "170255.637500", "170256.837500", "170258.037500", "170259.237500", "170300.437500", "170301.637500", "170302.837500"],
      "ContentTime": ["165549.056000", "165549.059000", "165549.062000", "165549.064000", "165549.070000", "165549.072000", "165549.075000", "165549.077000", "165549.080000", "165549.083000", "165549.085000", "165549.088000", "165549.090000", "165549.093000", "165549.096000", "165549.098000", "165549.101000", "165549.103000", "165549.106000", "165549.109000", "165549.111000", "165549.114000", "165549.117000", "165549.119000", "165549.122000", "165549.124000", "165549.127000", "165549.130000", "165549.132000", "165629.043000", "165629.046000", "165629.049000", "165629.052000", "165629.054000", "165629.057000", "165629.059000", "165629.062000", "165629.074000", "165629.076000", "165629.079000", "165629.082000", "165629.084000", "165629.087000", "165629.090000", "165629.092000", "165629.095000", "165629.097000", "165629.100000", "165629.103000", "165629.105000", "165629.108000", "165629.110000", "165629.113000", "165629.116000", "165629.118000", "165629.121000", "165629.124000", "165629.126000", "165629.129000", "165629.131000", "165629.134000", "165629.136000", "165709.043000", "165709.053000", "165709.055000", "165709.061000", "165709.063000", "165709.066000", "165709.069000", "165709.071000", "165709.074000", "165709.077000", "165709.079000", "165709.082000", "165709.084000", "165709.087000", "165709.090000", "165709.092000", "165709.095000", "165709.098000", "165709.100000", "165709.103000", "165709.105000", "165709.108000", "165709.111000", "165709.113000", "165709.116000", "165709.133000", "165709.136000", "165709.138000", "165709.141000", "165709.144000", "165709.146000", "165709.149000", "165709.151000", "165709.154000", "165749.043000", "165749.045000", "165749.048000", "165749.051000", "165749.053000", "165749.056000", "165749.058000", "165749.061000", "165749.063000", "165749.066000", "165749.069000", "165749.071000", "165749.074000", "165749.076000", "165749.079000", "165749.082000", "165749.084000", "165749.087000", "165749.089000", "165749.092000", "165749.094000", "165749.097000", "165749.100000", "165749.102000", "165749.105000", "165749.108000", "165749.110000", "165749.113000", "165749.115000", "165749.118000", "165749.121000", "165749.123000", "165749.126000", "165829.043000", "165829.045000", "165829.048000", "165829.051000", "165829.053000", "165829.056000", "165829.059000", "165829.061000", "165829.064000", "165829.066000", "165829.069000", "165829.071000", "165829.074000", "165829.077000", "165829.079000", "165829.082000", "165829.085000", "165829.087000", "165829.090000", "165829.092000", "165829.095000", "165829.098000", "165829.100000", "165829.103000", "165829.105000", "165829.108000", "165829.111000", "165829.113000", "165829.116000", "165829.118000", "165829.121000", "165829.123000", "165829.126000", "165909.043000", "165909.045000", "165909.048000", "165909.052000", "165909.055000", "165909.058000", "165909.060000", "165909.063000", "165909.066000", "165909.069000", "165909.071000", "165909.074000", "165909.076000", "165909.079000", "165909.082000", "165909.084000", "165909.087000", "165909.090000", "165909.092000", "165909.095000", "165909.097000", "165909.100000", "165909.103000", "165909.106000", "165909.108000", "165909.114000", "165909.117000", "165909.119000", "165909.122000", "165909.125000", "165909.127000", "165909.130000", "165909.132000", "165949.043000", "165949.045000", "165949.048000", "165949.051000", "165949.053000", "165949.056000", "165949.059000", "165949.061000", "165949.071000", "165949.073000", "165949.076000", "165949.078000", "165949.081000", "165949.084000", "165949.102000", "165949.105000", "165949.111000", "165949.114000", "165949.116000", "165949.119000", "165949.122000", "165949.124000", "165949.127000", "165949.129000", "165949.132000", "165949.135000", "165949.137000", "165949.140000", "165949.143000", "165949.145000", "165949.148000", "165949.151000", "165949.153000", "165949.156000", "170029.043000", "170029.046000", "170029.048000", "170029.051000", "170029.053000", "170029.056000", "170029.059000", "170029.061000", "170029.064000", "170029.067000", "170029.069000", "170029.072000", "170029.074000", "170029.077000", "170029.080000", "170029.082000", "170029.085000", "170029.087000", "170029.090000", "170029.093000", "170029.108000", "170029.110000", "170029.113000", "170029.115000", "170029.118000", "170029.121000", "170029.123000", "170029.126000", "170029.129000", "170029.131000", "170029.134000", "170029.136000", "170029.139000", "170109.044000", "170109.046000", "170109.049000", "170109.052000", "170109.054000", "170109.057000", "170109.060000", "170109.062000", "170109.065000", "170109.067000", "170109.070000", "170109.072000", "170109.075000", "170109.078000", "170109.080000", "170109.083000", "170109.085000", "170109.088000", "170109.091000", "170109.093000", "170109.096000", "170109.098000", "170109.101000", "170109.104000", "170109.106000", "170109.109000", "170109.111000", "170109.114000", "170109.117000", "170109.119000", "170109.122000", "170109.125000", "170109.127000", "170109.130000", "170149.043000", "170149.045000", "170149.048000", "170149.051000", "170149.053000", "170149.056000", "170149.059000", "170149.061000", "170149.064000", "170149.067000", "170149.069000", "170149.072000", "170149.074000", "170149.077000", "170149.080000", "170149.082000", "170149.085000", "170149.095000", "170149.097000", "170149.100000", "170149.102000", "170149.105000", "170149.108000", "170149.110000", "170149.113000", "170149.116000", "170149.118000", "170149.121000", "170149.123000", "170149.126000", "170149.129000", "170149.131000", "170149.134000", "170229.043000", "170229.045000", "170229.048000", "170229.051000", "170229.053000", "170229.056000", "170229.059000", "170229.062000", "170229.064000", "170229.067000", "170229.070000", "170229.073000", "170229.075000", "170229.078000", "170229.080000", "170229.083000", "170229.086000", "170229.088000", "170229.091000", "170229.094000", "170229.096000", "170229.099000", "170229.102000", "170229.104000", "170229.107000", "170229.109000", "170229.112000", "170229.115000", "170229.117000", "170229.120000", "170229.122000", "170229.125000", "170229.128000", "170304.271000", "170304.274000", "170304.277000", "170304.279000", "170304.282000", "170304.285000", "170304.287000", "170304.290000", "170304.292000", "170304.295000", "170304.298000", "170304.300000", "170304.303000", "170304.308000", "170304.311000", "170304.314000", "170304.316000", "170304.319000", "170304.322000", "170304.324000", "170304.327000", "170304.330000", "170304.332000", "170304.335000", "170304.338000", "170304.340000", "170304.343000", "170304.345000", "170304.348000", "170304.351000"],
      "InstanceCreationTime": ["165549.056000", "165549.059000", "165549.062000", "165549.064000", "165549.070000", "165549.072000", "165549.075000", "165549.077000", "165549.080000", "165549.083000", "165549.085000", "165549.088000", "165549.090000", "165549.093000", "165549.096000", "165549.098000", "165549.101000", "165549.103000", "165549.106000", "165549.109000", "165549.111000", "165549.114000", "165549.117000", "165549.119000", "165549.122000", "165549.124000", "165549.127000", "165549.130000", "165549.132000", "165629.043000", "165629.046000", "165629.049000", "165629.052000", "165629.054000", "165629.057000", "165629.059000", "165629.062000", "165629.074000", "165629.076000", "165629.079000", "165629.082000", "165629.084000", "165629.087000", "165629.090000", "165629.092000", "165629.095000", "165629.097000", "165629.100000", "165629.103000", "165629.105000", "165629.108000", "165629.110000", "165629.113000", "165629.116000", "165629.118000", "165629.121000", "165629.124000", "165629.126000", "165629.129000", "165629.131000", "165629.134000", "165629.136000", "165709.043000", "165709.053000", "165709.055000", "165709.061000", "165709.063000", "165709.066000", "165709.069000", "165709.071000", "165709.074000", "165709.077000", "165709.079000", "165709.082000", "165709.084000", "165709.087000", "165709.090000", "165709.092000", "165709.095000", "165709.098000", "165709.100000", "165709.103000", "165709.105000", "165709.108000", "165709.111000", "165709.113000", "165709.116000", "165709.133000", "165709.136000", "165709.138000", "165709.141000", "165709.144000", "165709.146000", "165709.149000", "165709.151000", "165709.154000", "165749.043000", "165749.045000", "165749.048000", "165749.051000", "165749.053000", "165749.056000", "165749.058000", "165749.061000", "165749.063000", "165749.066000", "165749.069000", "165749.071000", "165749.074000", "165749.076000", "165749.079000", "165749.082000", "165749.084000", "165749.087000", "165749.089000", "165749.092000", "165749.094000", "165749.097000", "165749.100000", "165749.102000", "165749.105000", "165749.108000", "165749.110000", "165749.113000", "165749.115000", "165749.118000", "165749.121000", "165749.123000", "165749.126000", "165829.043000", "165829.045000", "165829.048000", "165829.051000", "165829.053000", "165829.056000", "165829.059000", "165829.061000", "165829.064000", "165829.066000", "165829.069000", "165829.071000", "165829.074000", "165829.077000", "165829.079000", "165829.082000", "165829.085000", "165829.087000", "165829.090000", "165829.092000", "165829.095000", "165829.098000", "165829.100000", "165829.103000", "165829.105000", "165829.108000", "165829.111000", "165829.113000", "165829.116000", "165829.118000", "165829.121000", "165829.123000", "165829.126000", "165909.043000", "165909.045000", "165909.048000", "165909.052000", "165909.055000", "165909.058000", "165909.060000", "165909.063000", "165909.066000", "165909.069000", "165909.071000", "165909.074000", "165909.076000", "165909.079000", "165909.082000", "165909.084000", "165909.087000", "165909.090000", "165909.092000", "165909.095000", "165909.097000", "165909.100000", "165909.103000", "165909.106000", "165909.108000", "165909.114000", "165909.117000", "165909.119000", "165909.122000", "165909.125000", "165909.127000", "165909.130000", "165909.132000", "165949.043000", "165949.045000", "165949.048000", "165949.051000", "165949.053000", "165949.056000", "165949.059000", "165949.061000", "165949.071000", "165949.073000", "165949.076000", "165949.078000", "165949.081000", "165949.084000", "165949.102000", "165949.105000", "165949.111000", "165949.114000", "165949.116000", "165949.119000", "165949.122000", "165949.124000", "165949.127000", "165949.129000", "165949.132000", "165949.135000", "165949.137000", "165949.140000", "165949.143000", "165949.145000", "165949.148000", "165949.151000", "165949.153000", "165949.156000", "170029.043000", "170029.046000", "170029.048000", "170029.051000", "170029.053000", "170029.056000", "170029.059000", "170029.061000", "170029.064000", "170029.067000", "170029.069000", "170029.072000", "170029.074000", "170029.077000", "170029.080000", "170029.082000", "170029.085000", "170029.087000", "170029.090000", "170029.093000", "170029.108000", "170029.110000", "170029.113000", "170029.115000", "170029.118000", "170029.121000", "170029.123000", "170029.126000", "170029.129000", "170029.131000", "170029.134000", "170029.136000", "170029.139000", "170109.044000", "170109.046000", "170109.049000", "170109.052000", "170109.054000", "170109.057000", "170109.060000", "170109.062000", "170109.065000", "170109.067000", "170109.070000", "170109.072000", "170109.075000", "170109.078000", "170109.080000", "170109.083000", "170109.085000", "170109.088000", "170109.091000", "170109.093000", "170109.096000", "170109.098000", "170109.101000", "170109.104000", "170109.106000", "170109.109000", "170109.111000", "170109.114000", "170109.117000", "170109.119000", "170109.122000", "170109.125000", "170109.127000", "170109.130000", "170149.043000", "170149.045000", "170149.048000", "170149.051000", "170149.053000", "170149.056000", "170149.059000", "170149.061000", "170149.064000", "170149.067000", "170149.069000", "170149.072000", "170149.074000", "170149.077000", "170149.080000", "170149.082000", "170149.085000", "170149.095000", "170149.097000", "170149.100000", "170149.102000", "170149.105000", "170149.108000", "170149.110000", "170149.113000", "170149.116000", "170149.118000", "170149.121000", "170149.123000", "170149.126000", "170149.129000", "170149.131000", "170149.134000", "170229.043000", "170229.045000", "170229.048000", "170229.051000", "170229.053000", "170229.056000", "170229.059000", "170229.062000", "170229.064000", "170229.067000", "170229.070000", "170229.073000", "170229.075000", "170229.078000", "170229.080000", "170229.083000", "170229.086000", "170229.088000", "170229.091000", "170229.094000", "170229.096000", "170229.099000", "170229.102000", "170229.104000", "170229.107000", "170229.109000", "170229.112000", "170229.115000", "170229.117000", "170229.120000", "170229.122000", "170229.125000", "170229.128000", "170304.271000", "170304.274000", "170304.277000", "170304.279000", "170304.282000", "170304.285000", "170304.287000", "170304.290000", "170304.292000", "170304.295000", "170304.298000", "170304.300000", "170304.303000", "170304.308000", "170304.311000", "170304.314000", "170304.316000", "170304.319000", "170304.322000", "170304.324000", "170304.327000", "170304.330000", "170304.332000", "170304.335000", "170304.338000", "170304.340000", "170304.343000", "170304.345000", "170304.348000", "170304.351000"],
      "InstanceNumber": [1, 2, 3, 4, 5, 6, 7, 8, 9, 10, 11, 12, 13, 14, 15, 16, 17, 18, 19, 20, 21, 22, 23, 24, 25, 26, 27, 28, 29, 30, 31, 32, 33, 34, 35, 36, 37, 38, 39, 40, 41, 42, 43, 44, 45, 46, 47, 48, 49, 50, 51, 52, 53, 54, 55, 56, 57, 58, 59, 60, 61, 62, 63, 64, 65, 66, 67, 68, 69, 70, 71, 72, 73, 74, 75, 76, 77, 78, 79, 80, 81, 82, 83, 84, 85, 86, 87, 88, 89, 90, 91, 92, 93, 94, 95, 96, 97, 98, 99, 100, 101, 102, 103, 104, 105, 106, 107, 108, 109, 110, 111, 112, 113, 114, 115, 116, 117, 118, 119, 120, 121, 122, 123, 124, 125, 126, 127, 128, 129, 130, 131, 132, 133, 134, 135, 136, 137, 138, 139, 140, 141, 142, 143, 144, 145, 146, 147, 148, 149, 150, 151, 152, 153, 154, 155, 156, 157, 158, 159, 160, 161, 162, 163, 164, 165, 166, 167, 168, 169, 170, 171, 172, 173, 174, 175, 176, 177, 178, 179, 180, 181, 182, 183, 184, 185, 186, 187, 188, 189, 190, 191, 192, 193, 194, 195, 196, 197, 198, 199, 200, 201, 202, 203, 204, 205, 206, 207, 208, 209, 210, 211, 212, 213, 214, 215, 216, 217, 218, 219, 220, 221, 222, 223, 224, 225, 226, 227, 228, 229, 230, 231, 232, 233, 234, 235, 236, 237, 238, 239, 240, 241, 242, 243, 244, 245, 246, 247, 248, 249, 250, 251, 252, 253, 254, 255, 256, 257, 258, 259, 260, 261, 262, 263, 264, 265, 266, 267, 268, 269, 270, 271, 272, 273, 274, 275, 276, 277, 278, 279, 280, 281, 282, 283, 284, 285, 286, 287, 288, 289, 290, 291, 292, 293, 294, 295, 296, 297, 298, 299, 300, 301, 302, 303, 304, 305, 306, 307, 308, 309, 310, 311, 312, 313, 314, 315, 316, 317, 318, 319, 320, 321, 322, 323, 324, 325, 326, 327, 328, 329, 330, 331, 332, 333, 334, 335, 336, 337, 338, 339, 340, 341, 342, 343, 344, 345, 346, 347, 348, 349, 350, 351, 352, 353, 354, 355, 356, 357, 358, 359, 360, 361, 362, 363, 364, 365, 366, 367, 368, 369, 370, 371, 372, 373, 374, 375, 376, 377, 378, 379, 380, 381, 382, 383, 384, 385, 386, 387, 388, 389, 390, 391, 392],
