{
  "AcquisitionMatrixPE": 88,
  "AcquisitionNumber": 1,
  "AcquisitionTime": "17:40:44.367500",
  "BandwidthPerPixelPhaseEncode": 19.592,
  "BaseResolution": 88,
  "BodyPartExamined": "BRAIN",
  "ConsistencyInfo": "N4_VE11C_LATEST_20160120",
  "ConversionSoftware": "dcm2niix",
  "ConversionSoftwareVersion": "v1.0.20190902",
  "DerivedVendorReportedEchoSpacing": 0.000580014,
  "DeviceSerialNumber": "67050",
  "DwellTime": 2.6e-06,
  "EchoTime": 0.033,
  "EchoTrainLength": 88,
  "EffectiveEchoSpacing": 0.000580014,
  "FlipAngle": 62,
  "ImageOrientationPatientDICOM": [0.999597, -0.0169675, 0.0227395, 0.0181461, 0.998447, -0.0526698],
  "ImageType": [
    "ORIGINAL",
    "PRIMARY",
    "M",
    "ND",
    "MOSAIC"
],
  "ImagingFrequency": 123.251,
  "InPlanePhaseEncodingDirectionDICOM": "COL",
  "InstitutionAddress": "Olive_Street_60_Providence_RI_US_02912",
  "InstitutionName": "BROWN_UNIVERSITY_MRF",
  "InstitutionalDepartmentName": "Department",
  "MRAcquisitionType": "2D",
  "MagneticFieldStrength": 3,
  "Manufacturer": "Siemens",
  "ManufacturersModelName": "Prisma_fit",
  "Modality": "MR",
  "MultibandAccelerationFactor": 4,
  "PartialFourier": 1,
  "PatientPosition": "HFS",
  "PercentPhaseFOV": 100,
  "PhaseEncodingDirection": "j-",
  "PhaseEncodingSteps": 88,
  "PhaseResolution": 1,
  "PixelBandwidth": 2185,
  "ProcedureStepDescription": "ASHENHAV_1222",
  "ProtocolName": "func-bold_task-RDMlocalizer_run-01",
  "PulseSequenceDetails": "%SiemensSeq%_ep2d_bold",
  "ReceiveCoilActiveElements": "HC1-7",
  "ReceiveCoilName": "HeadNeck_64",
  "ReconMatrixPE": 88,
  "RefLinesPE": 8,
  "RepetitionTime": 1.2,
  "SAR": 0.0642678,
  "ScanOptions": "FS",
  "ScanningSequence": "EP",
  "SequenceName": "_epfid2d1_88",
  "SequenceVariant": "SK",
  "SeriesDescription": "func-bold_task-RDMlocalizer_run-01",
  "SeriesNumber": 19,
  "ShimSetting": [1755, -9095, 4424, 486, -83, -65, -86, -12],
  "SliceThickness": 2.4,
  "SliceTiming": [0.55, 0, 0.63, 0.08, 0.7075, 0.1575, 0.7875, 0.235, 0.865, 0.315, 0.945, 0.3925, 1.0225, 0.4725, 1.1025, 0.55, 0, 0.63, 0.08, 0.7075, 0.1575, 0.7875, 0.235, 0.865, 0.315, 0.945, 0.3925, 1.0225, 0.4725, 1.1025, 0.55, 0, 0.63, 0.08, 0.7075, 0.1575, 0.7875, 0.235, 0.865, 0.315, 0.945, 0.3925, 1.0225, 0.4725, 1.1025, 0.55, 0, 0.63, 0.08, 0.7075, 0.1575, 0.7875, 0.235, 0.865, 0.315, 0.945, 0.3925, 1.0225, 0.4725, 1.1025],
  "SoftwareVersions": "syngo_MR_E11",
  "SpacingBetweenSlices": 2.4,
  "StationName": "AWP67050",
  "TaskName": "RDMlocalizer",
  "TotalReadoutTime": 0.0504612,
  "TxRefAmp": 250.311,
  "dcmmeta_affine": [
    [-2.396761894226074, 0.04350942373275757, 0.05234532058238983, 104.64691162109375],
    [0.040683358907699585, 2.3940038681030273, -0.127346932888031, -89.98493194580078],
    [0.054523203521966934, 0.1262877881526947, 2.396047353744507, -76.7020492553711],
    [0.0, 0.0, 0.0, 1.0]
],
  "dcmmeta_reorient_transform": [
    [0.0, -1.0, 0.0, 87.0],
    [1.0, 0.0, 0.0, 0.0],
    [0.0, 0.0, 1.0, 0.0],
    [0.0, 0.0, 0.0, 1.0]
],
  "dcmmeta_shape": [88, 88, 60, 195],
  "dcmmeta_slice_dim": 2,
  "dcmmeta_version": 0.6,
  "global": {
    "const": {
      "AcquisitionMatrix": [88, 0, 0, 88],
      "AngioFlag": "N",
      "BitsAllocated": 16,
      "BitsStored": 12,
      "BodyPartExamined": "BRAIN",
      "Columns": 704,
      "DeidentificationMethodCodeSequence": [
        {
          "CodeMeaning": "XNAT DicomEdit 6 Script",
          "CodeValue": "3",
          "CodingSchemeDesignator": "XNAT",
          "CodingSchemeVersion": "1.0"}
],
      "EchoNumbers": 1,
      "EchoTime": 33.0,
      "EchoTrainLength": 88,
      "FlipAngle": 62.0,
      "HighBit": 11,
      "ImageOrientationPatient": [0.99959742827093, -0.0169674670896, 0.02273953505933, 0.01814610997047, 0.99844710018445, -0.0526697904514],
      "ImagePositionPatient": [-860.03582705944, -843.11609917729, -43.61151482393],
      "ImageType": [
        "ORIGINAL",
        "PRIMARY",
        "M",
        "ND",
        "MOSAIC"
],
      "ImagedNucleus": "1H",
      "ImagingFrequency": 123.250757,
      "InPlanePhaseEncodingDirection": "COL",
      "MRAcquisitionType": "2D",
      "MagneticFieldStrength": 3.0,
      "Manufacturer": "SIEMENS",
      "ManufacturerModelName": "Prisma_fit",
      "Modality": "MR",
      "NumberOfAverages": 1.0,
      "NumberOfPhaseEncodingSteps": 88,
      "PercentPhaseFieldOfView": 100.0,
      "PercentSampling": 100.0,
      "PerformedProcedureStepStartTime": "162113.275000",
      "PhotometricInterpretation": "MONOCHROME2",
      "PixelBandwidth": 2185.0,
      "PixelRepresentation": 0,
      "PixelSpacing": [2.3977272510529, 2.3977272510529],
      "ProtocolName": "func-bold_task-RDMlocalizer_run-01",
      "RepetitionTime": 1200.0,
      "Rows": 704,
      "SAR": 0.0642677899027,
      "SamplesPerPixel": 1,
      "ScanOptions": "FS",
      "ScanningSequence": "EP",
      "SequenceName": "*epfid2d1_88",
      "SequenceVariant": "SK",
      "SeriesDescription": "func-bold_task-RDMlocalizer_run-01",
      "SeriesNumber": 19,
      "SeriesTime": "174114.987000",
      "SliceLocation": -69.518604214194,
      "SliceThickness": 2.4000000953674,
      "SmallestImagePixelValue": 0,
      "SoftwareVersions": "syngo MR E11",
      "SpacingBetweenSlices": 2.3999999880093,
      "SpecificCharacterSet": "ISO_IR 100",
      "StudyID": "1",
      "StudyTime": "162113.200000",
      "TransmitCoilName": "Body",
      "VariableFlipAngleFlag": "N",
      "WindowCenterWidthExplanation": "Algo1",
      "dBdt": 0.0},
    "slices": {}
  },
  "time": {
    "samples": {
      "AcquisitionNumber": [1, 2, 3, 4, 5, 6, 7, 8, 9, 10, 11, 12, 13, 14, 15, 16, 17, 18, 19, 20, 21, 22, 23, 24, 25, 26, 27, 28, 29, 30, 31, 32, 33, 34, 35, 36, 37, 38, 39, 40, 41, 42, 43, 44, 45, 46, 47, 48, 49, 50, 51, 52, 53, 54, 55, 56, 57, 58, 59, 60, 61, 62, 63, 64, 65, 66, 67, 68, 69, 70, 71, 72, 73, 74, 75, 76, 77, 78, 79, 80, 81, 82, 83, 84, 85, 86, 87, 88, 89, 90, 91, 92, 93, 94, 95, 96, 97, 98, 99, 100, 101, 102, 103, 104, 105, 106, 107, 108, 109, 110, 111, 112, 113, 114, 115, 116, 117, 118, 119, 120, 121, 122, 123, 124, 125, 126, 127, 128, 129, 130, 131, 132, 133, 134, 135, 136, 137, 138, 139, 140, 141, 142, 143, 144, 145, 146, 147, 148, 149, 150, 151, 152, 153, 154, 155, 156, 157, 158, 159, 160, 161, 162, 163, 164, 165, 166, 167, 168, 169, 170, 171, 172, 173, 174, 175, 176, 177, 178, 179, 180, 181, 182, 183, 184, 185, 186, 187, 188, 189, 190, 191, 192, 193, 194, 195],
      "AcquisitionTime": ["174044.367500", "174045.567500", "174046.767500", "174047.967500", "174049.167500", "174050.367500", "174051.567500", "174052.767500", "174053.967500", "174055.167500", "174056.367500", "174057.567500", "174058.767500", "174059.967500", "174101.167500", "174102.367500", "174103.567500", "174104.767500", "174105.967500", "174107.167500", "174108.367500", "174109.567500", "174110.767500", "174111.967500", "174113.167500", "174114.367500", "174115.567500", "174116.767500", "174117.967500", "174119.167500", "174120.367500", "174121.567500", "174122.767500", "174123.967500", "174125.167500", "174126.367500", "174127.567500", "174128.767500", "174129.967500", "174131.167500", "174132.367500", "174133.567500", "174134.767500", "174135.967500", "174137.167500", "174138.367500", "174139.567500", "174140.767500", "174141.967500", "174143.167500", "174144.367500", "174145.567500", "174146.767500", "174147.967500", "174149.167500", "174150.367500", "174151.567500", "174152.767500", "174153.967500", "174155.167500", "174156.367500", "174157.567500", "174158.767500", "174159.967500", "174201.167500", "174202.367500", "174203.567500", "174204.767500", "174205.967500", "174207.167500", "174208.367500", "174209.567500", "174210.767500", "174211.967500", "174213.167500", "174214.367500", "174215.567500", "174216.767500", "174217.967500", "174219.167500", "174220.367500", "174221.567500", "174222.767500", "174223.967500", "174225.167500", "174226.367500", "174227.567500", "174228.767500", "174229.967500", "174231.167500", "174232.367500", "174233.567500", "174234.767500", "174235.967500", "174237.167500", "174238.367500", "174239.567500", "174240.767500", "174241.967500", "174243.167500", "174244.367500", "174245.567500", "174246.767500", "174247.967500", "174249.167500", "174250.367500", "174251.567500", "174252.767500", "174253.967500", "174255.167500", "174256.367500", "174257.567500", "174258.767500", "174259.967500", "174301.167500", "174302.367500", "174303.567500", "174304.767500", "174305.967500", "174307.167500", "174308.367500", "174309.567500", "174310.767500", "174311.967500", "174313.167500", "174314.367500", "174315.567500", "174316.767500", "174317.967500", "174319.167500", "174320.367500", "174321.567500", "174322.767500", "174323.967500", "174325.167500", "174326.367500", "174327.567500", "174328.767500", "174329.967500", "174331.167500", "174332.367500", "174333.567500", "174334.767500", "174335.967500", "174337.167500", "174338.367500", "174339.567500", "174340.767500", "174341.967500", "174343.167500", "174344.367500", "174345.567500", "174346.767500", "174347.967500", "174349.167500", "174350.367500", "174351.567500", "174352.767500", "174353.967500", "174355.167500", "174356.367500", "174357.567500", "174358.767500", "174359.967500", "174401.167500", "174402.367500", "174403.567500", "174404.767500", "174405.967500", "174407.167500", "174408.367500", "174409.567500", "174410.767500", "174411.967500", "174413.167500", "174414.367500", "174415.567500", "174416.767500", "174417.967500", "174419.167500", "174420.367500", "174421.567500", "174422.767500", "174423.967500", "174425.167500", "174426.367500", "174427.567500", "174428.767500", "174429.967500", "174431.167500", "174432.367500", "174433.567500", "174434.767500", "174435.967500", "174437.167500"],
      "ContentTime": ["174114.991000", "174114.994000", "174114.997000", "174115.000000", "174115.011000", "174115.014000", "174115.016000", "174115.019000", "174115.022000", "174115.024000", "174115.027000", "174115.029000", "174115.032000", "174115.034000", "174115.037000", "174115.044000", "174115.052000", "174115.054000", "174115.057000", "174115.060000", "174115.063000", "174115.065000", "174115.068000", "174115.070000", "174115.073000", "174134.987000", "174134.989000", "174134.992000", "174134.995000", "174134.997000", "174135.001000", "174135.003000", "174135.006000", "174135.008000", "174135.011000", "174135.013000", "174135.016000", "174135.018000", "174135.021000", "174135.024000", "174135.026000", "174135.029000", "174214.986000", "174214.989000", "174214.992000", "174214.994000", "174214.997000", "174215.001000", "174215.003000", "174215.006000", "174215.008000", "174215.011000", "174215.013000", "174215.016000", "174215.019000", "174215.021000", "174215.024000", "174215.026000", "174215.029000", "174215.031000", "174215.034000", "174215.037000", "174215.039000", "174215.042000", "174215.044000", "174215.047000", "174215.049000", "174215.052000", "174215.055000", "174215.057000", "174215.060000", "174215.063000", "174215.073000", "174215.076000", "174215.078000", "174254.987000", "174254.989000", "174254.992000", "174255.010000", "174255.013000", "174255.015000", "174255.018000", "174255.021000", "174255.023000", "174255.026000", "174255.028000", "174255.031000", "174255.033000", "174255.036000", "174255.039000", "174255.041000", "174255.044000", "174255.046000", "174255.049000", "174255.051000", "174255.054000", "174255.056000", "174255.059000", "174255.061000", "174255.064000", "174255.067000", "174255.069000", "174255.072000", "174255.074000", "174255.077000", "174255.079000", "174255.082000", "174255.085000", "174334.987000", "174334.989000", "174334.992000", "174334.995000", "174334.997000", "174335.001000", "174335.003000", "174335.006000", "174335.008000", "174335.011000", "174335.014000", "174335.016000", "174335.019000", "174335.021000", "174335.024000", "174335.027000", "174335.029000", "174335.032000", "174335.034000", "174335.037000", "174335.039000", "174335.042000", "174335.045000", "174335.047000", "174335.050000", "174335.052000", "174335.055000", "174335.057000", "174335.060000", "174335.063000", "174335.065000", "174335.068000", "174335.070000", "174335.073000", "174414.987000", "174414.990000", "174414.992000", "174414.995000", "174414.998000", "174415.001000", "174415.004000", "174415.006000", "174415.009000", "174415.012000", "174415.014000", "174415.017000", "174415.019000", "174415.022000", "174415.025000", "174415.027000", "174415.030000", "174415.032000", "174415.035000", "174415.037000", "174415.040000", "174415.043000", "174415.045000", "174415.048000", "174415.051000", "174415.053000", "174415.056000", "174415.059000", "174415.062000", "174415.065000", "174415.067000", "174415.070000", "174415.072000", "174438.422000", "174438.425000", "174438.427000", "174438.430000", "174438.433000", "174438.435000", "174438.438000", "174438.440000", "174438.443000", "174438.446000", "174438.448000", "174438.451000", "174438.453000", "174438.456000", "174438.458000", "174438.471000", "174438.473000", "174438.476000", "174438.479000", "174438.481000"],
      "InstanceCreationTime": ["174114.991000", "174114.994000", "174114.997000", "174115.000000", "174115.011000", "174115.014000", "174115.016000", "174115.019000", "174115.022000", "174115.024000", "174115.027000", "174115.029000", "174115.032000", "174115.034000", "174115.037000", "174115.044000", "174115.052000", "174115.054000", "174115.057000", "174115.060000", "174115.063000", "174115.065000", "174115.068000", "174115.070000", "174115.073000", "174134.987000", "174134.989000", "174134.992000", "174134.995000", "174134.997000", "174135.001000", "174135.003000", "174135.006000", "174135.008000", "174135.011000", "174135.013000", "174135.016000", "174135.018000", "174135.021000", "174135.024000", "174135.026000", "174135.029000", "174214.986000", "174214.989000", "174214.992000", "174214.994000", "174214.997000", "174215.001000", "174215.003000", "174215.006000", "174215.008000", "174215.011000", "174215.013000", "174215.016000", "174215.019000", "174215.021000", "174215.024000", "174215.026000", "174215.029000", "174215.031000", "174215.034000", "174215.037000", "174215.039000", "174215.042000", "174215.044000", "174215.047000", "174215.049000", "174215.052000", "174215.055000", "174215.057000", "174215.060000", "174215.063000", "174215.073000", "174215.076000", "174215.078000", "174254.987000", "174254.989000", "174254.992000", "174255.010000", "174255.013000", "174255.015000", "174255.018000", "174255.021000", "174255.023000", "174255.026000", "174255.028000", "174255.031000", "174255.033000", "174255.036000", "174255.039000", "174255.041000", "174255.044000", "174255.046000", "174255.049000", "174255.051000", "174255.054000", "174255.056000", "174255.059000", "174255.061000", "174255.064000", "174255.067000", "174255.069000", "174255.072000", "174255.074000", "174255.077000", "174255.079000", "174255.082000", "174255.085000", "174334.987000", "174334.989000", "174334.992000", "174334.995000", "174334.997000", "174335.001000", "174335.003000", "174335.006000", "174335.008000", "174335.011000", "174335.014000", "174335.016000", "174335.019000", "174335.021000", "174335.024000", "174335.027000", "174335.029000", "174335.032000", "174335.034000", "174335.037000", "174335.039000", "174335.042000", "174335.045000", "174335.047000", "174335.050000", "174335.052000", "174335.055000", "174335.057000", "174335.060000", "174335.063000", "174335.065000", "174335.068000", "174335.070000", "174335.073000", "174414.987000", "174414.990000", "174414.992000", "174414.995000", "174414.998000", "174415.001000", "174415.004000", "174415.006000", "174415.009000", "174415.012000", "174415.014000", "174415.017000", "174415.019000", "174415.022000", "174415.025000", "174415.027000", "174415.030000", "174415.032000", "174415.035000", "174415.037000", "174415.040000", "174415.043000", "174415.045000", "174415.048000", "174415.051000", "174415.053000", "174415.056000", "174415.059000", "174415.062000", "174415.065000", "174415.067000", "174415.070000", "174415.072000", "174438.422000", "174438.425000", "174438.427000", "174438.430000", "174438.433000", "174438.435000", "174438.438000", "174438.440000", "174438.443000", "174438.446000", "174438.448000", "174438.451000", "174438.453000", "174438.456000", "174438.458000", "174438.471000", "174438.473000", "174438.476000", "174438.479000", "174438.481000"],
      "InstanceNumber": [1, 2, 3, 4, 5, 6, 7, 8, 9, 10, 11, 12, 13, 14, 15, 16, 17, 18, 19, 20, 21, 22, 23, 24, 25, 26, 27, 28, 29, 30, 31, 32, 33, 34, 35, 36, 37, 38, 39, 40, 41, 42, 43, 44, 45, 46, 47, 48, 49, 50, 51, 52, 53, 54, 55, 56, 57, 58, 59, 60, 61, 62, 63, 64, 65, 66, 67, 68, 69, 70, 71, 72, 73, 74, 75, 76, 77, 78, 79, 80, 81, 82, 83, 84, 85, 86, 87, 88, 89, 90, 91, 92, 93, 94, 95, 96, 97, 98, 99, 100, 101, 102, 103, 104, 105, 106, 107, 108, 109, 110, 111, 112, 113, 114, 115, 116, 117, 118, 119, 120, 121, 122, 123, 124, 125, 126, 127, 128, 129, 130, 131, 132, 133, 134, 135, 136, 137, 138, 139, 140, 141, 142, 143, 144, 145, 146, 147, 148, 149, 150, 151, 152, 153, 154, 155, 156, 157, 158, 159, 160, 161, 162, 163, 164, 165, 166, 167, 168, 169, 170, 171, 172, 173, 174, 175, 176, 177, 178, 179, 180, 181, 182, 183, 184, 185, 186, 187, 188, 189, 190, 191, 192, 193, 194, 195],
      "LargestImagePixelValue": [2232, 2209, 2163, 2162, 2163, 2090, 2044, 2044, 2043, 2061, 2045, 2086, 2071, 2083, 2129, 2143, 2053, 2057, 2049, 2052, 2098, 2100, 2128, 2154, 2035, 2043, 2072, 2081, 2106, 2114, 2040, 2033, 2046, 2106, 2104, 2129, 2106, 2048, 2062, 2067, 2077, 2053, 2054, 2090, 2165, 2185, 2039, 2045, 2069, 2096, 2144, 2043, 2058, 2060, 2164, 2186, 2067, 2114, 2139, 2067, 2073, 2176, 2040, 2081, 2086, 2080, 2155, 2131, 2151, 2066, 2081, 2126, 2162, 2068, 2081, 2128, 2171, 2202, 2212, 2048, 2103, 2116, 2072, 2075, 2125, 2080, 2088, 2088, 2095, 2090, 2137, 2154, 2075, 2077, 2050, 2065, 2084, 2073, 2129, 2098, 2067, 2064, 2086, 2071, 2142, 2157, 2071, 2103, 2137, 2180, 2085, 2083, 2164, 2179, 2163, 2101, 2052, 2107, 2112, 2175, 2168, 2164, 2161, 2171, 2150, 2067, 2147, 2185, 2198, 2067, 2109, 2138, 2174, 2162, 2174, 2189, 2149, 2077, 2088, 2103, 2117, 2170, 2076, 2096, 2125, 2094, 2152, 2162, 2076, 2072, 2094, 2107, 2145, 2177, 2128, 2079, 2060, 2080, 2081, 2107, 2149, 2152, 2068, 2104, 2167, 2187, 2087, 2137, 2191, 2060, 2108, 2156, 2179, 2066, 2079, 2139, 2200, 2151, 2070, 2055, 2065, 2083, 2075, 2082, 2106, 2112, 2152, 2161, 2163, 2167, 2068, 2087, 2083, 2074, 2084],
      "WindowCenter": [625.0, 622.0, 620.0, 619.0, 618.0, 617.0, 616.0, 616.0, 616.0, 616.0, 616.0, 618.0, 618.0, 618.0, 619.0, 619.0, 618.0, 618.0, 618.0, 617.0, 618.0, 618.0, 619.0, 619.0, 618.0, 618.0, 618.0, 618.0, 618.0, 618.0, 617.0, 617.0, 618.0, 618.0, 618.0, 618.0, 618.0, 617.0, 617.0, 617.0, 618.0, 618.0, 619.0, 620.0, 621.0, 621.0, 617.0, 617.0, 617.0, 617.0, 617.0, 616.0, 617.0, 616.0, 617.0, 617.0, 615.0, 616.0, 617.0, 616.0, 617.0, 618.0, 617.0, 616.0, 616.0, 615.0, 616.0, 616.0, 617.0, 616.0, 617.0, 619.0, 620.0, 619.0, 619.0, 619.0, 619.0, 619.0, 619.0, 616.0, 616.0, 615.0, 614.0, 615.0, 615.0, 616.0, 616.0, 617.0, 617.0, 618.0, 619.0, 620.0, 619.0, 618.0, 618.0, 617.0, 617.0, 617.0, 618.0, 618.0, 619.0, 618.0, 619.0, 617.0, 618.0, 618.0, 616.0, 617.0, 618.0, 619.0, 617.0, 616.0, 616.0, 617.0, 616.0, 614.0, 614.0, 615.0, 616.0, 616.0, 616.0, 615.0, 613.0, 613.0, 614.0, 613.0, 615.0, 617.0, 619.0, 618.0, 618.0, 619.0, 619.0, 618.0, 618.0, 618.0, 617.0, 617.0, 617.0, 617.0, 617.0, 618.0, 617.0, 618.0, 619.0, 617.0, 618.0, 618.0, 617.0, 617.0, 618.0, 617.0, 617.0, 617.0, 616.0, 616.0, 616.0, 616.0, 616.0, 617.0, 618.0, 619.0, 617.0, 618.0, 618.0, 618.0, 617.0, 618.0, 619.0, 617.0, 617.0, 618.0, 617.0, 615.0, 615.0, 616.0, 617.0, 617.0, 615.0, 615.0, 614.0, 614.0, 615.0, 615.0, 617.0, 618.0, 619.0, 620.0, 619.0, 619.0, 617.0, 617.0, 617.0, 617.0, 618.0],
      "WindowWidth": [1328.0, 1320.0, 1314.0, 1311.0, 1309.0, 1306.0, 1305.0, 1304.0, 1304.0, 1306.0, 1307.0, 1309.0, 1311.0, 1310.0, 1312.0, 1312.0, 1310.0, 1311.0, 1309.0, 1309.0, 1310.0, 1310.0, 1311.0, 1312.0, 1309.0, 1310.0, 1310.0, 1310.0, 1309.0, 1309.0, 1307.0, 1308.0, 1309.0, 1311.0, 1311.0, 1311.0, 1309.0, 1307.0, 1307.0, 1308.0, 1309.0, 1310.0, 1311.0, 1313.0, 1315.0, 1315.0, 1309.0, 1308.0, 1307.0, 1306.0, 1308.0, 1306.0, 1307.0, 1305.0, 1306.0, 1306.0, 1303.0, 1305.0, 1306.0, 1306.0, 1308.0, 1310.0, 1307.0, 1306.0, 1306.0, 1304.0, 1304.0, 1304.0, 1307.0, 1306.0, 1308.0, 1311.0, 1314.0, 1312.0, 1312.0, 1312.0, 1311.0, 1311.0, 1309.0, 1305.0, 1304.0, 1303.0, 1301.0, 1302.0, 1303.0, 1304.0, 1305.0, 1306.0, 1307.0, 1308.0, 1311.0, 1313.0, 1311.0, 1310.0, 1309.0, 1307.0, 1307.0, 1307.0, 1309.0, 1310.0, 1311.0, 1310.0, 1311.0, 1308.0, 1308.0, 1309.0, 1306.0, 1308.0, 1309.0, 1310.0, 1307.0, 1304.0, 1303.0, 1305.0, 1304.0, 1300.0, 1300.0, 1302.0, 1303.0, 1305.0, 1304.0, 1302.0, 1298.0, 1298.0, 1299.0, 1298.0, 1303.0, 1307.0, 1311.0, 1310.0, 1310.0, 1310.0, 1311.0, 1309.0, 1308.0, 1307.0, 1306.0, 1306.0, 1306.0, 1306.0, 1306.0, 1307.0, 1307.0, 1310.0, 1310.0, 1308.0, 1308.0, 1309.0, 1308.0, 1308.0, 1308.0, 1307.0, 1306.0, 1307.0, 1306.0, 1306.0, 1304.0, 1306.0, 1306.0, 1308.0, 1310.0, 1311.0, 1308.0, 1309.0, 1309.0, 1310.0, 1308.0, 1309.0, 1311.0, 1308.0, 1307.0, 1307.0, 1306.0, 1303.0, 1303.0, 1304.0, 1306.0, 1305.0, 1303.0, 1302.0, 1301.0, 1301.0, 1301.0, 1303.0, 1306.0, 1308.0, 1312.0, 1312.0, 1311.0, 1310.0, 1306.0, 1308.0, 1306.0, 1307.0, 1309.0]
    },
    "slices": {}
  }
}