{
  "AcquisitionMatrixPE": 88,
  "AcquisitionNumber": 1,
  "AcquisitionTime": "17:19:42.130000",
  "BandwidthPerPixelPhaseEncode": 19.592,
  "BaseResolution": 88,
  "BodyPartExamined": "BRAIN",
  "ConsistencyInfo": "N4_VE11C_LATEST_20160120",
  "ConversionSoftware": "dcm2niix",
  "ConversionSoftwareVersion": "v1.0.20190902",
  "DerivedVendorReportedEchoSpacing": 0.000580014,
  "DeviceSerialNumber": "67050",
  "DwellTime": 2.6e-06,
  "EchoTime": 0.033,
  "EchoTrainLength": 88,
  "EffectiveEchoSpacing": 0.000580014,
  "FlipAngle": 62,
  "ImageOrientationPatientDICOM": [0.999597, -0.0169675, 0.0227395, 0.0181461, 0.998447, -0.0526698],
  "ImageType": [
    "ORIGINAL",
    "PRIMARY",
    "M",
    "ND",
    "MOSAIC"
],
  "ImagingFrequency": 123.251,
  "InPlanePhaseEncodingDirectionDICOM": "COL",
  "InstitutionAddress": "Olive_Street_60_Providence_RI_US_02912",
  "InstitutionName": "BROWN_UNIVERSITY_MRF",
  "InstitutionalDepartmentName": "Department",
  "MRAcquisitionType": "2D",
  "MagneticFieldStrength": 3,
  "Manufacturer": "Siemens",
  "ManufacturersModelName": "Prisma_fit",
  "Modality": "MR",
  "MultibandAccelerationFactor": 4,
  "PartialFourier": 1,
  "PatientPosition": "HFS",
  "PercentPhaseFOV": 100,
  "PhaseEncodingDirection": "j-",
  "PhaseEncodingSteps": 88,
  "PhaseResolution": 1,
  "PixelBandwidth": 2185,
  "ProcedureStepDescription": "ASHENHAV_1222",
  "ProtocolName": "func-bold_task-RDMcolor_run-05",
  "PulseSequenceDetails": "%SiemensSeq%_ep2d_bold",
  "ReceiveCoilActiveElements": "HC1-7",
  "ReceiveCoilName": "HeadNeck_64",
  "ReconMatrixPE": 88,
  "RefLinesPE": 8,
  "RepetitionTime": 1.2,
  "SAR": 0.0645837,
  "ScanOptions": "FS",
  "ScanningSequence": "EP",
  "SequenceName": "_epfid2d1_88",
  "SequenceVariant": "SK",
  "SeriesDescription": "func-bold_task-RDMcolor_run-05",
  "SeriesNumber": 16,
  "ShimSetting": [1755, -9095, 4424, 486, -83, -65, -86, -12],
  "SliceThickness": 2.4,
  "SliceTiming": [0.55, 0, 0.63, 0.0775, 0.7075, 0.1575, 0.785, 0.235, 0.865, 0.315, 0.9425, 0.3925, 1.0225, 0.4725, 1.1, 0.55, 0, 0.63, 0.0775, 0.7075, 0.1575, 0.785, 0.235, 0.865, 0.315, 0.9425, 0.3925, 1.0225, 0.4725, 1.1, 0.55, 0, 0.63, 0.0775, 0.7075, 0.1575, 0.785, 0.235, 0.865, 0.315, 0.9425, 0.3925, 1.0225, 0.4725, 1.1, 0.55, 0, 0.63, 0.0775, 0.7075, 0.1575, 0.785, 0.235, 0.865, 0.315, 0.9425, 0.3925, 1.0225, 0.4725, 1.1],
  "SoftwareVersions": "syngo_MR_E11",
  "SpacingBetweenSlices": 2.4,
  "StationName": "AWP67050",
  "TaskName": "RDMcolor",
  "TotalReadoutTime": 0.0504612,
  "TxRefAmp": 250.311,
  "dcmmeta_affine": [
    [-2.396761894226074, 0.04350942373275757, 0.05234532058238983, 104.64691162109375],
    [0.040683358907699585, 2.3940038681030273, -0.127346932888031, -89.98493194580078],
    [0.054523203521966934, 0.1262877881526947, 2.396047353744507, -76.7020492553711],
    [0.0, 0.0, 0.0, 1.0]
],
  "dcmmeta_reorient_transform": [
    [0.0, -1.0, 0.0, 87.0],
    [1.0, 0.0, 0.0, 0.0],
    [0.0, 0.0, 1.0, 0.0],
    [0.0, 0.0, 0.0, 1.0]
],
  "dcmmeta_shape": [88, 88, 60, 392],
  "dcmmeta_slice_dim": 2,
  "dcmmeta_version": 0.6,
  "global": {
    "const": {
      "AcquisitionMatrix": [88, 0, 0, 88],
      "AngioFlag": "N",
      "BitsAllocated": 16,
      "BitsStored": 12,
      "BodyPartExamined": "BRAIN",
      "Columns": 704,
      "DeidentificationMethodCodeSequence": [
        {
          "CodeMeaning": "XNAT DicomEdit 6 Script",
          "CodeValue": "3",
          "CodingSchemeDesignator": "XNAT",
          "CodingSchemeVersion": "1.0"}
],
      "EchoNumbers": 1,
      "EchoTime": 33.0,
      "EchoTrainLength": 88,
      "FlipAngle": 62.0,
      "HighBit": 11,
      "ImageOrientationPatient": [0.99959742827093, -0.0169674670896, 0.02273953505933, 0.01814610997047, 0.99844710018445, -0.0526697904514],
      "ImagePositionPatient": [-860.03582705944, -843.11609917729, -43.61151482393],
      "ImageType": [
        "ORIGINAL",
        "PRIMARY",
        "M",
        "ND",
        "MOSAIC"
],
      "ImagedNucleus": "1H",
      "ImagingFrequency": 123.250755,
      "InPlanePhaseEncodingDirection": "COL",
      "MRAcquisitionType": "2D",
      "MagneticFieldStrength": 3.0,
      "Manufacturer": "SIEMENS",
      "ManufacturerModelName": "Prisma_fit",
      "Modality": "MR",
      "NumberOfAverages": 1.0,
      "NumberOfPhaseEncodingSteps": 88,
      "PercentPhaseFieldOfView": 100.0,
      "PercentSampling": 100.0,
      "PerformedProcedureStepStartTime": "162113.275000",
      "PhotometricInterpretation": "MONOCHROME2",
      "PixelBandwidth": 2185.0,
      "PixelRepresentation": 0,
      "PixelSpacing": [2.3977272510529, 2.3977272510529],
      "ProtocolName": "func-bold_task-RDMcolor_run-05",
      "RepetitionTime": 1200.0,
      "Rows": 704,
      "SAR": 0.06458367004092,
      "SamplesPerPixel": 1,
      "ScanOptions": "FS",
      "ScanningSequence": "EP",
      "SequenceName": "*epfid2d1_88",
      "SequenceVariant": "SK",
      "SeriesDescription": "func-bold_task-RDMcolor_run-05",
      "SeriesNumber": 16,
      "SeriesTime": "172014.987000",
      "SliceLocation": -69.518604214194,
      "SliceThickness": 2.4000000953674,
      "SmallestImagePixelValue": 0,
      "SoftwareVersions": "syngo MR E11",
      "SpacingBetweenSlices": 2.3999999880093,
      "SpecificCharacterSet": "ISO_IR 100",
      "StudyID": "1",
      "StudyTime": "162113.200000",
      "TransmitCoilName": "Body",
      "VariableFlipAngleFlag": "N",
      "WindowCenterWidthExplanation": "Algo1",
      "dBdt": 0.0},
    "slices": {}
  },
  "time": {
    "samples": {
      "AcquisitionNumber": [1, 2, 3, 4, 5, 6, 7, 8, 9, 10, 11, 12, 13, 14, 15, 16, 17, 18, 19, 20, 21, 22, 23, 24, 25, 26, 27, 28, 29, 30, 31, 32, 33, 34, 35, 36, 37, 38, 39, 40, 41, 42, 43, 44, 45, 46, 47, 48, 49, 50, 51, 52, 53, 54, 55, 56, 57, 58, 59, 60, 61, 62, 63, 64, 65, 66, 67, 68, 69, 70, 71, 72, 73, 74, 75, 76, 77, 78, 79, 80, 81, 82, 83, 84, 85, 86, 87, 88, 89, 90, 91, 92, 93, 94, 95, 96, 97, 98, 99, 100, 101, 102, 103, 104, 105, 106, 107, 108, 109, 110, 111, 112, 113, 114, 115, 116, 117, 118, 119, 120, 121, 122, 123, 124, 125, 126, 127, 128, 129, 130, 131, 132, 133, 134, 135, 136, 137, 138, 139, 140, 141, 142, 143, 144, 145, 146, 147, 148, 149, 150, 151, 152, 153, 154, 155, 156, 157, 158, 159, 160, 161, 162, 163, 164, 165, 166, 167, 168, 169, 170, 171, 172, 173, 174, 175, 176, 177, 178, 179, 180, 181, 182, 183, 184, 185, 186, 187, 188, 189, 190, 191, 192, 193, 194, 195, 196, 197, 198, 199, 200, 201, 202, 203, 204, 205, 206, 207, 208, 209, 210, 211, 212, 213, 214, 215, 216, 217, 218, 219, 220, 221, 222, 223, 224, 225, 226, 227, 228, 229, 230, 231, 232, 233, 234, 235, 236, 237, 238, 239, 240, 241, 242, 243, 244, 245, 246, 247, 248, 249, 250, 251, 252, 253, 254, 255, 256, 257, 258, 259, 260, 261, 262, 263, 264, 265, 266, 267, 268, 269, 270, 271, 272, 273, 274, 275, 276, 277, 278, 279, 280, 281, 282, 283, 284, 285, 286, 287, 288, 289, 290, 291, 292, 293, 294, 295, 296, 297, 298, 299, 300, 301, 302, 303, 304, 305, 306, 307, 308, 309, 310, 311, 312, 313, 314, 315, 316, 317, 318, 319, 320, 321, 322, 323, 324, 325, 326, 327, 328, 329, 330, 331, 332, 333, 334, 335, 336, 337, 338, 339, 340, 341, 342, 343, 344, 345, 346, 347, 348, 349, 350, 351, 352, 353, 354, 355, 356, 357, 358, 359, 360, 361, 362, 363, 364, 365, 366, 367, 368, 369, 370, 371, 372, 373, 374, 375, 376, 377, 378, 379, 380, 381, 382, 383, 384, 385, 386, 387, 388, 389, 390, 391, 392],
      "AcquisitionTime": ["171942.130000", "171943.330000", "171944.530000", "171945.730000", "171946.930000", "171948.130000", "171949.330000", "171950.530000", "171951.730000", "171952.930000", "171954.130000", "171955.330000", "171956.530000", "171957.730000", "171958.930000", "172000.130000", "172001.330000", "172002.530000", "172003.730000", "172004.930000", "172006.130000", "172007.330000", "172008.530000", "172009.730000", "172010.930000", "172012.130000", "172013.330000", "172014.530000", "172015.730000", "172016.930000", "172018.130000", "172019.330000", "172020.530000", "172021.730000", "172022.930000", "172024.130000", "172025.330000", "172026.530000", "172027.730000", "172028.930000", "172030.130000", "172031.330000", "172032.530000", "172033.730000", "172034.930000", "172036.130000", "172037.330000", "172038.530000", "172039.730000", "172040.930000", "172042.130000", "172043.330000", "172044.530000", "172045.730000", "172046.930000", "172048.130000", "172049.330000", "172050.530000", "172051.730000", "172052.930000", "172054.130000", "172055.330000", "172056.530000", "172057.730000", "172058.930000", "172100.130000", "172101.330000", "172102.530000", "172103.730000", "172104.930000", "172106.130000", "172107.330000", "172108.530000", "172109.730000", "172110.930000", "172112.130000", "172113.330000", "172114.530000", "172115.730000", "172116.930000", "172118.130000", "172119.330000", "172120.530000", "172121.730000", "172122.930000", "172124.130000", "172125.330000", "172126.530000", "172127.730000", "172128.930000", "172130.130000", "172131.330000", "172132.530000", "172133.730000", "172134.930000", "172136.130000", "172137.330000", "172138.530000", "172139.730000", "172140.930000", "172142.130000", "172143.330000", "172144.530000", "172145.730000", "172146.930000", "172148.130000", "172149.330000", "172150.530000", "172151.730000", "172152.930000", "172154.130000", "172155.330000", "172156.530000", "172157.730000", "172158.930000", "172200.130000", "172201.330000", "172202.530000", "172203.730000", "172204.930000", "172206.130000", "172207.330000", "172208.530000", "172209.730000", "172210.930000", "172212.130000", "172213.330000", "172214.530000", "172215.730000", "172216.930000", "172218.130000", "172219.330000", "172220.530000", "172221.730000", "172222.930000", "172224.130000", "172225.330000", "172226.530000", "172227.730000", "172228.930000", "172230.130000", "172231.330000", "172232.530000", "172233.730000", "172234.930000", "172236.130000", "172237.330000", "172238.530000", "172239.730000", "172240.930000", "172242.130000", "172243.330000", "172244.530000", "172245.730000", "172246.930000", "172248.130000", "172249.330000", "172250.530000", "172251.730000", "172252.930000", "172254.130000", "172255.330000", "172256.530000", "172257.730000", "172258.930000", "172300.130000", "172301.330000", "172302.530000", "172303.730000", "172304.930000", "172306.130000", "172307.330000", "172308.530000", "172309.730000", "172310.930000", "172312.130000", "172313.330000", "172314.530000", "172315.730000", "172316.930000", "172318.130000", "172319.330000", "172320.530000", "172321.730000", "172322.930000", "172324.130000", "172325.330000", "172326.530000", "172327.730000", "172328.930000", "172330.130000", "172331.330000", "172332.530000", "172333.730000", "172334.930000", "172336.130000", "172337.330000", "172338.530000", "172339.730000", "172340.930000", "172342.130000", "172343.330000", "172344.530000", "172345.730000", "172346.930000", "172348.130000", "172349.330000", "172350.530000", "172351.730000", "172352.930000", "172354.130000", "172355.330000", "172356.530000", "172357.730000", "172358.930000", "172400.130000", "172401.330000", "172402.530000", "172403.730000", "172404.930000", "172406.130000", "172407.330000", "172408.530000", "172409.730000", "172410.930000", "172412.130000", "172413.330000", "172414.530000", "172415.730000", "172416.930000", "172418.130000", "172419.330000", "172420.530000", "172421.730000", "172422.930000", "172424.130000", "172425.330000", "172426.530000", "172427.730000", "172428.930000", "172430.130000", "172431.330000", "172432.530000", "172433.730000", "172434.930000", "172436.130000", "172437.330000", "172438.530000", "172439.730000", "172440.930000", "172442.130000", "172443.330000", "172444.530000", "172445.730000", "172446.930000", "172448.130000", "172449.330000", "172450.530000", "172451.730000", "172452.930000", "172454.130000", "172455.330000", "172456.530000", "172457.730000", "172458.930000", "172500.130000", "172501.330000", "172502.530000", "172503.730000", "172504.930000", "172506.130000", "172507.330000", "172508.530000", "172509.730000", "172510.930000", "172512.130000", "172513.330000", "172514.530000", "172515.730000", "172516.930000", "172518.130000", "172519.330000", "172520.530000", "172521.730000", "172522.930000", "172524.130000", "172525.330000", "172526.530000", "172527.730000", "172528.930000", "172530.130000", "172531.330000", "172532.530000", "172533.730000", "172534.930000", "172536.130000", "172537.330000", "172538.530000", "172539.730000", "172540.930000", "172542.130000", "172543.330000", "172544.530000", "172545.730000", "172546.930000", "172548.130000", "172549.330000", "172550.530000", "172551.730000", "172552.930000", "172554.130000", "172555.330000", "172556.530000", "172557.730000", "172558.930000", "172600.130000", "172601.330000", "172602.530000", "172603.730000", "172604.930000", "172606.130000", "172607.330000", "172608.530000", "172609.730000", "172610.930000", "172612.130000", "172613.330000", "172614.530000", "172615.730000", "172616.930000", "172618.130000", "172619.330000", "172620.530000", "172621.730000", "172622.930000", "172624.130000", "172625.330000", "172626.530000", "172627.730000", "172628.930000", "172630.130000", "172631.330000", "172632.530000", "172633.730000", "172634.930000", "172636.130000", "172637.330000", "172638.530000", "172639.730000", "172640.930000", "172642.130000", "172643.330000", "172644.530000", "172645.730000", "172646.930000", "172648.130000", "172649.330000", "172650.530000", "172651.730000", "172652.930000", "172654.130000", "172655.330000", "172656.530000", "172657.730000", "172658.930000", "172700.130000", "172701.330000", "172702.530000", "172703.730000", "172704.930000", "172706.130000", "172707.330000", "172708.530000", "172709.730000", "172710.930000", "172712.130000", "172713.330000", "172714.530000", "172715.730000", "172716.930000", "172718.130000", "172719.330000", "172720.530000", "172721.730000", "172722.930000", "172724.130000", "172725.330000", "172726.530000", "172727.730000", "172728.930000", "172730.130000", "172731.330000"],
      "ContentTime": ["172014.991000", "172014.994000", "172014.997000", "172015.002000", "172015.004000", "172015.007000", "172015.010000", "172015.012000", "172015.015000", "172015.017000", "172015.020000", "172015.022000", "172015.025000", "172015.028000", "172015.030000", "172015.033000", "172015.035000", "172015.038000", "172015.040000", "172015.046000", "172015.049000", "172015.051000", "172015.054000", "172015.057000", "172015.059000", "172015.062000", "172015.064000", "172054.986000", "172054.989000", "172054.992000", "172054.994000", "172054.997000", "172055.001000", "172055.003000", "172055.006000", "172055.008000", "172055.011000", "172055.013000", "172055.016000", "172055.018000", "172055.021000", "172055.023000", "172055.026000", "172055.028000", "172055.042000", "172055.044000", "172055.047000", "172055.049000", "172055.052000", "172055.054000", "172055.057000", "172055.059000", "172055.062000", "172055.065000", "172055.067000", "172055.070000", "172055.072000", "172055.075000", "172055.077000", "172055.080000", "172134.987000", "172134.989000", "172134.992000", "172134.995000", "172134.997000", "172135.013000", "172135.016000", "172135.018000", "172135.021000", "172135.023000", "172135.026000", "172135.029000", "172135.031000", "172135.034000", "172135.037000", "172135.039000", "172135.042000", "172135.044000", "172135.047000", "172135.050000", "172135.052000", "172135.055000", "172135.058000", "172135.060000", "172135.063000", "172135.065000", "172135.068000", "172135.070000", "172135.073000", "172135.075000", "172135.078000", "172135.080000", "172135.083000", "172214.987000", "172214.989000", "172214.992000", "172214.994000", "172214.997000", "172215.001000", "172215.003000", "172215.006000", "172215.009000", "172215.011000", "172215.014000", "172215.016000", "172215.019000", "172215.021000", "172215.024000", "172215.026000", "172215.029000", "172215.032000", "172215.034000", "172215.037000", "172215.039000", "172215.042000", "172215.044000", "172215.047000", "172215.049000", "172215.052000", "172215.054000", "172215.057000", "172215.060000", "172215.062000", "172215.065000", "172215.067000", "172215.070000", "172215.072000", "172254.987000", "172254.989000", "172254.992000", "172254.994000", "172254.997000", "172255.001000", "172255.003000", "172255.006000", "172255.009000", "172255.011000", "172255.014000", "172255.016000", "172255.019000", "172255.021000", "172255.024000", "172255.026000", "172255.029000", "172255.032000", "172255.034000", "172255.037000", "172255.039000", "172255.042000", "172255.044000", "172255.047000", "172255.050000", "172255.052000", "172255.055000", "172255.057000", "172255.060000", "172255.062000", "172255.065000", "172255.068000", "172255.070000", "172334.987000", "172334.989000", "172334.992000", "172334.995000", "172334.998000", "172335.000000", "172335.003000", "172335.005000", "172335.008000", "172335.010000", "172335.013000", "172335.016000", "172335.018000", "172335.021000", "172335.023000", "172335.026000", "172335.029000", "172335.031000", "172335.034000", "172335.036000", "172335.039000", "172335.041000", "172335.044000", "172335.046000", "172335.049000", "172335.052000", "172335.054000", "172335.057000", "172335.060000", "172335.062000", "172335.065000", "172335.068000", "172335.070000", "172414.987000", "172414.989000", "172414.992000", "172414.995000", "172414.997000", "172415.001000", "172415.003000", "172415.006000", "172415.009000", "172415.011000", "172415.014000", "172415.016000", "172415.019000", "172415.021000", "172415.024000", "172415.027000", "172415.029000", "172415.032000", "172415.034000", "172415.037000", "172415.039000", "172415.042000", "172415.044000", "172415.047000", "172415.050000", "172415.052000", "172415.055000", "172415.057000", "172415.060000", "172415.063000", "172415.065000", "172415.068000", "172415.070000", "172415.073000", "172454.986000", "172454.989000", "172454.992000", "172454.995000", "172454.997000", "172455.001000", "172455.003000", "172455.006000", "172455.008000", "172455.011000", "172455.014000", "172455.016000", "172455.019000", "172455.021000", "172455.031000", "172455.034000", "172455.037000", "172455.039000", "172455.042000", "172455.044000", "172455.047000", "172455.049000", "172455.052000", "172455.055000", "172455.057000", "172455.060000", "172455.062000", "172455.065000", "172455.068000", "172455.070000", "172455.073000", "172455.075000", "172455.078000", "172534.987000", "172534.989000", "172535.007000", "172535.010000", "172535.013000", "172535.015000", "172535.018000", "172535.020000", "172535.023000", "172535.026000", "172535.028000", "172535.031000", "172535.033000", "172535.036000", "172535.038000", "172535.041000", "172535.044000", "172535.046000", "172535.049000", "172535.051000", "172535.054000", "172535.056000", "172535.059000", "172535.061000", "172535.064000", "172535.067000", "172535.069000", "172535.072000", "172535.075000", "172535.077000", "172535.080000", "172535.082000", "172535.085000", "172614.986000", "172614.989000", "172614.992000", "172614.995000", "172614.997000", "172615.001000", "172615.003000", "172615.006000", "172615.008000", "172615.011000", "172615.013000", "172615.016000", "172615.019000", "172615.021000", "172615.024000", "172615.026000", "172615.029000", "172615.032000", "172615.034000", "172615.037000", "172615.039000", "172615.042000", "172615.044000", "172615.047000", "172615.050000", "172615.052000", "172615.055000", "172615.057000", "172615.060000", "172615.063000", "172615.065000", "172615.068000", "172615.070000", "172615.073000", "172654.987000", "172654.989000", "172654.993000", "172654.995000", "172654.998000", "172655.001000", "172655.004000", "172655.006000", "172655.009000", "172655.011000", "172655.014000", "172655.017000", "172655.019000", "172655.022000", "172655.025000", "172655.027000", "172655.030000", "172655.032000", "172655.035000", "172655.038000", "172655.040000", "172655.043000", "172655.046000", "172655.048000", "172655.051000", "172655.053000", "172655.056000", "172655.059000", "172655.062000", "172655.064000", "172655.067000", "172655.069000", "172655.072000", "172732.851000", "172732.854000", "172732.857000", "172732.859000", "172732.862000", "172732.865000", "172732.867000", "172732.870000", "172732.872000", "172732.875000", "172732.878000", "172732.880000", "172732.883000", "172732.886000", "172732.888000", "172732.891000", "172732.893000", "172732.896000", "172732.899000", "172732.901000", "172732.904000", "172732.907000", "172732.909000", "172732.912000", "172732.914000", "172732.917000", "172732.920000", "172732.922000", "172732.925000", "172732.927000", "172732.930000", "172732.932000"],
      "InstanceCreationTime": ["172014.991000", "172014.994000", "172014.997000", "172015.002000", "172015.004000", "172015.007000", "172015.010000", "172015.012000", "172015.015000", "172015.017000", "172015.020000", "172015.022000", "172015.025000", "172015.028000", "172015.030000", "172015.033000", "172015.035000", "172015.038000", "172015.040000", "172015.046000", "172015.049000", "172015.051000", "172015.054000", "172015.057000", "172015.059000", "172015.062000", "172015.064000", "172054.986000", "172054.989000", "172054.992000", "172054.994000", "172054.997000", "172055.001000", "172055.003000", "172055.006000", "172055.008000", "172055.011000", "172055.013000", "172055.016000", "172055.018000", "172055.021000", "172055.023000", "172055.026000", "172055.028000", "172055.042000", "172055.044000", "172055.047000", "172055.049000", "172055.052000", "172055.054000", "172055.057000", "172055.059000", "172055.062000", "172055.065000", "172055.067000", "172055.070000", "172055.072000", "172055.075000", "172055.077000", "172055.080000", "172134.987000", "172134.989000", "172134.992000", "172134.995000", "172134.997000", "172135.013000", "172135.016000", "172135.018000", "172135.021000", "172135.023000", "172135.026000", "172135.029000", "172135.031000", "172135.034000", "172135.037000", "172135.039000", "172135.042000", "172135.044000", "172135.047000", "172135.050000", "172135.052000", "172135.055000", "172135.058000", "172135.060000", "172135.063000", "172135.065000", "172135.068000", "172135.070000", "172135.073000", "172135.075000", "172135.078000", "172135.080000", "172135.083000", "172214.987000", "172214.989000", "172214.992000", "172214.994000", "172214.997000", "172215.001000", "172215.003000", "172215.006000", "172215.009000", "172215.011000", "172215.014000", "172215.016000", "172215.019000", "172215.021000", "172215.024000", "172215.026000", "172215.029000", "172215.032000", "172215.034000", "172215.037000", "172215.039000", "172215.042000", "172215.044000", "172215.047000", "172215.049000", "172215.052000", "172215.054000", "172215.057000", "172215.060000", "172215.062000", "172215.065000", "172215.067000", "172215.070000", "172215.072000", "172254.987000", "172254.989000", "172254.992000", "172254.994000", "172254.997000", "172255.001000", "172255.003000", "172255.006000", "172255.009000", "172255.011000", "172255.014000", "172255.016000", "172255.019000", "172255.021000", "172255.024000", "172255.026000", "172255.029000", "172255.032000", "172255.034000", "172255.037000", "172255.039000", "172255.042000", "172255.044000", "172255.047000", "172255.050000", "172255.052000", "172255.055000", "172255.057000", "172255.060000", "172255.062000", "172255.065000", "172255.068000", "172255.070000", "172334.987000", "172334.989000", "172334.992000", "172334.995000", "172334.998000", "172335.000000", "172335.003000", "172335.005000", "172335.008000", "172335.010000", "172335.013000", "172335.016000", "172335.018000", "172335.021000", "172335.023000", "172335.026000", "172335.029000", "172335.031000", "172335.034000", "172335.036000", "172335.039000", "172335.041000", "172335.044000", "172335.046000", "172335.049000", "172335.052000", "172335.054000", "172335.057000", "172335.060000", "172335.062000", "172335.065000", "172335.068000", "172335.070000", "172414.987000", "172414.989000", "172414.992000", "172414.995000", "172414.997000", "172415.001000", "172415.003000", "172415.006000", "172415.009000", "172415.011000", "172415.014000", "172415.016000", "172415.019000", "172415.021000", "172415.024000", "172415.027000", "172415.029000", "172415.032000", "172415.034000", "172415.037000", "172415.039000", "172415.042000", "172415.044000", "172415.047000", "172415.050000", "172415.052000", "172415.055000", "172415.057000", "172415.060000", "172415.063000", "172415.065000", "172415.068000", "172415.070000", "172415.073000", "172454.986000", "172454.989000", "172454.992000", "172454.995000", "172454.997000", "172455.001000", "172455.003000", "172455.006000", "172455.008000", "172455.011000", "172455.014000", "172455.016000", "172455.019000", "172455.021000", "172455.031000", "172455.034000", "172455.037000", "172455.039000", "172455.042000", "172455.044000", "172455.047000", "172455.049000", "172455.052000", "172455.055000", "172455.057000", "172455.060000", "172455.062000", "172455.065000", "172455.068000", "172455.070000", "172455.073000", "172455.075000", "172455.078000", "172534.987000", "172534.989000", "172535.007000", "172535.010000", "172535.013000", "172535.015000", "172535.018000", "172535.020000", "172535.023000", "172535.026000", "172535.028000", "172535.031000", "172535.033000", "172535.036000", "172535.038000", "172535.041000", "172535.044000", "172535.046000", "172535.049000", "172535.051000", "172535.054000", "172535.056000", "172535.059000", "172535.061000", "172535.064000", "172535.067000", "172535.069000", "172535.072000", "172535.075000", "172535.077000", "172535.080000", "172535.082000", "172535.085000", "172614.986000", "172614.989000", "172614.992000", "172614.995000", "172614.997000", "172615.001000", "172615.003000", "172615.006000", "172615.008000", "172615.011000", "172615.013000", "172615.016000", "172615.019000", "172615.021000", "172615.024000", "172615.026000", "172615.029000", "172615.032000", "172615.034000", "172615.037000", "172615.039000", "172615.042000", "172615.044000", "172615.047000", "172615.050000", "172615.052000", "172615.055000", "172615.057000", "172615.060000", "172615.063000", "172615.065000", "172615.068000", "172615.070000", "172615.073000", "172654.987000", "172654.989000", "172654.993000", "172654.995000", "172654.998000", "172655.001000", "172655.004000", "172655.006000", "172655.009000", "172655.011000", "172655.014000", "172655.017000", "172655.019000", "172655.022000", "172655.025000", "172655.027000", "172655.030000", "172655.032000", "172655.035000", "172655.038000", "172655.040000", "172655.043000", "172655.046000", "172655.048000", "172655.051000", "172655.053000", "172655.056000", "172655.059000", "172655.062000", "172655.064000", "172655.067000", "172655.069000", "172655.072000", "172732.851000", "172732.854000", "172732.857000", "172732.859000", "172732.862000", "172732.865000", "172732.867000", "172732.870000", "172732.872000", "172732.875000", "172732.878000", "172732.880000", "172732.883000", "172732.886000", "172732.888000", "172732.891000", "172732.893000", "172732.896000", "172732.899000", "172732.901000", "172732.904000", "172732.907000", "172732.909000", "172732.912000", "172732.914000", "172732.917000", "172732.920000", "172732.922000", "172732.925000", "172732.927000", "172732.930000", "172732.932000"],
      "InstanceNumber": [1, 2, 3, 4, 5, 6, 7, 8, 9, 10, 11, 12, 13, 14, 15, 16, 17, 18, 19, 20, 21, 22, 23, 24, 25, 26, 27, 28, 29, 30, 31, 32, 33, 34, 35, 36, 37, 38, 39, 40, 41, 42, 43, 44, 45, 46, 47, 48, 49, 50, 51, 52, 53, 54, 55, 56, 57, 58, 59, 60, 61, 62, 63, 64, 65, 66, 67, 68, 69, 70, 71, 72, 73, 74, 75, 76, 77, 78, 79, 80, 81, 82, 83, 84, 85, 86, 87, 88, 89, 90, 91, 92, 93, 94, 95, 96, 97, 98, 99, 100, 101, 102, 103, 104, 105, 106, 107, 108, 109, 110, 111, 112, 113, 114, 115, 116, 117, 118, 119, 120, 121, 122, 123, 124, 125, 126, 127, 128, 129, 130, 131, 132, 133, 134, 135, 136, 137, 138, 139, 140, 141, 142, 143, 144, 145, 146, 147, 148, 149, 150, 151, 152, 153, 154, 155, 156, 157, 158, 159, 160, 161, 162, 163, 164, 165, 166, 167, 168, 169, 170, 171, 172, 173, 174, 175, 176, 177, 178, 179, 180, 181, 182, 183, 184, 185, 186, 187, 188, 189, 190, 191, 192, 193, 194, 195, 196, 197, 198, 199, 200, 201, 202, 203, 204, 205, 206, 207, 208, 209, 210, 211, 212, 213, 214, 215, 216, 217, 218, 219, 220, 221, 222, 223, 224, 225, 226, 227, 228, 229, 230, 231, 232, 233, 234, 235, 236, 237, 238, 239, 240, 241, 242, 243, 244, 245, 246, 247, 248, 249, 250, 251, 252, 253, 254, 255, 256, 257, 258, 259, 260, 261, 262, 263, 264, 265, 266, 267, 268, 269, 270, 271, 272, 273, 274, 275, 276, 277, 278, 279, 280, 281, 282, 283, 284, 285, 286, 287, 288, 289, 290, 291, 292, 293, 294, 295, 296, 297, 298, 299, 300, 301, 302, 303, 304, 305, 306, 307, 308, 309, 310, 311, 312, 313, 314, 315, 316, 317, 318, 319, 320, 321, 322, 323, 324, 325, 326, 327, 328, 329, 330, 331, 332, 333, 334, 335, 336, 337, 338, 339, 340, 341, 342, 343, 344, 345, 346, 347, 348, 349, 350, 351, 352, 353, 354, 355, 356, 357, 358, 359, 360, 361, 362, 363, 364, 365, 366, 367, 368, 369, 370, 371, 372, 373, 374, 375, 376, 377, 378, 379, 380, 381, 382, 383, 384, 385, 386, 387, 388, 389, 390, 391, 392],
