{
  "AcquisitionMatrixPE": 88,
  "AcquisitionNumber": 1,
  "AcquisitionTime": "17:40:57.642500",
  "BandwidthPerPixelPhaseEncode": 19.592,
  "BaseResolution": 88,
  "BodyPartExamined": "BRAIN",
  "ConsistencyInfo": "N4_VE11C_LATEST_20160120",
  "ConversionSoftware": "dcm2niix",
  "ConversionSoftwareVersion": "v1.0.20190902",
  "DerivedVendorReportedEchoSpacing": 0.000580014,
  "DeviceSerialNumber": "67050",
  "DwellTime": 2.6e-06,
  "EchoTime": 0.033,
  "EchoTrainLength": 88,
  "EffectiveEchoSpacing": 0.000580014,
  "FlipAngle": 62,
  "ImageOrientationPatientDICOM": [0.99735, 0.0725488, -0.00548851, -0.0727158, 0.996469, -0.041984],
  "ImageType": [
    "ORIGINAL",
    "PRIMARY",
    "M",
    "ND",
    "MOSAIC"
],
  "ImagingFrequency": 123.25,
  "InPlanePhaseEncodingDirectionDICOM": "COL",
  "InstitutionAddress": "Olive_Street_60_Providence_RI_US_02912",
  "InstitutionName": "BROWN_UNIVERSITY_MRF",
  "InstitutionalDepartmentName": "Department",
  "MRAcquisitionType": "2D",
  "MagneticFieldStrength": 3,
  "Manufacturer": "Siemens",
  "ManufacturersModelName": "Prisma_fit",
  "Modality": "MR",
  "MultibandAccelerationFactor": 4,
  "PartialFourier": 1,
  "PatientPosition": "HFS",
  "PercentPhaseFOV": 100,
  "PhaseEncodingDirection": "j-",
  "PhaseEncodingSteps": 88,
  "PhaseResolution": 1,
  "PixelBandwidth": 2185,
  "ProcedureStepDescription": "ASHENHAV_1222",
  "ProtocolName": "func-bold_task-RDMmotion_run-04",
  "PulseSequenceDetails": "%SiemensSeq%_ep2d_bold",
  "ReceiveCoilActiveElements": "HC1-7",
  "ReceiveCoilName": "HeadNeck_64",
  "ReconMatrixPE": 88,
  "RefLinesPE": 8,
  "RepetitionTime": 1.2,
  "SAR": 0.0594997,
  "ScanOptions": "FS",
  "ScanningSequence": "EP",
  "SequenceName": "_epfid2d1_88",
  "SequenceVariant": "SK",
  "SeriesDescription": "func-bold_task-RDMmotion_run-04",
  "SeriesNumber": 13,
  "ShimSetting": [1752, -9088, 4419, 342, -17, -59, -45, 0],
  "SliceThickness": 2.4,
  "SliceTiming": [0.55, 0, 0.63, 0.08, 0.7075, 0.1575, 0.7875, 0.2375, 0.865, 0.315, 0.945, 0.3925, 1.0225, 0.4725, 1.1025, 0.55, 0, 0.63, 0.08, 0.7075, 0.1575, 0.7875, 0.2375, 0.865, 0.315, 0.945, 0.3925, 1.0225, 0.4725, 1.1025, 0.55, 0, 0.63, 0.08, 0.7075, 0.1575, 0.7875, 0.2375, 0.865, 0.315, 0.945, 0.3925, 1.0225, 0.4725, 1.1025, 0.55, 0, 0.63, 0.08, 0.7075, 0.1575, 0.7875, 0.2375, 0.865, 0.315, 0.945, 0.3925, 1.0225, 0.4725, 1.1025],
  "SoftwareVersions": "syngo_MR_E11",
  "SpacingBetweenSlices": 2.4,
  "StationName": "AWP67050",
  "TaskName": "RDMmotion",
  "TotalReadoutTime": 0.0504612,
  "TxRefAmp": 234.758,
  "dcmmeta_affine": [
    [-2.3913726806640625, -0.17435261607170105, -0.005815757438540459, 115.19979095458984],
    [-0.17395231127738953, 2.3892600536346436, -0.10145245492458344, -85.26564025878906],
    [-0.013159940019249916, 0.10066623985767365, 2.3978476524353027, -58.80396270751953],
    [0.0, 0.0, 0.0, 1.0]
],
  "dcmmeta_reorient_transform": [
    [0.0, -1.0, 0.0, 87.0],
    [1.0, 0.0, 0.0, 0.0],
    [0.0, 0.0, 1.0, 0.0],
    [0.0, 0.0, 0.0, 1.0]
],
  "dcmmeta_shape": [88, 88, 60, 125],
  "dcmmeta_slice_dim": 2,
  "dcmmeta_version": 0.6,
  "global": {
    "const": {
      "AcquisitionMatrix": [88, 0, 0, 88],
      "AngioFlag": "N",
      "BitsAllocated": 16,
      "BitsStored": 12,
      "BodyPartExamined": "BRAIN",
      "Columns": 704,
      "DeidentificationMethodCodeSequence": [
        {
          "CodeMeaning": "XNAT DicomEdit 6 Script",
          "CodeValue": "3",
          "CodingSchemeDesignator": "XNAT",
          "CodingSchemeVersion": "1.0"}
],
      "EchoNumbers": 1,
      "EchoTime": 33.0,
      "EchoTrainLength": 88,
      "FlipAngle": 62.0,
      "HighBit": 11,
      "ImageOrientationPatient": [0.99734975969822, 0.07254883274229, -0.0054885059573, -0.0727157807882, 0.99646864326278, -0.0419840233707],
      "ImagePositionPatient": [-782.87330133211, -912.06938230124, -14.987537415944],
      "ImageType": [
        "ORIGINAL",
        "PRIMARY",
        "M",
        "ND",
        "MOSAIC"
],
      "ImagedNucleus": "1H",
      "ImagingFrequency": 123.249981,
      "InPlanePhaseEncodingDirection": "COL",
      "MRAcquisitionType": "2D",
      "MagneticFieldStrength": 3.0,
      "Manufacturer": "SIEMENS",
      "ManufacturerModelName": "Prisma_fit",
      "Modality": "MR",
      "NumberOfAverages": 1.0,
      "NumberOfPhaseEncodingSteps": 88,
      "PercentPhaseFieldOfView": 100.0,
      "PercentSampling": 100.0,
      "PerformedProcedureStepStartTime": "164442.180000",
      "PhotometricInterpretation": "MONOCHROME2",
      "PixelBandwidth": 2185.0,
      "PixelRepresentation": 0,
      "PixelSpacing": [2.3977272510529, 2.3977272510529],
      "ProtocolName": "func-bold_task-RDMmotion_run-04",
      "RepetitionTime": 1200.0,
      "Rows": 704,
      "SAR": 0.05949972610368,
      "SamplesPerPixel": 1,
      "ScanOptions": "FS",
      "ScanningSequence": "EP",
      "SequenceName": "*epfid2d1_88",
      "SequenceVariant": "SK",
      "SeriesDescription": "func-bold_task-RDMmotion_run-04",
      "SeriesNumber": 13,
      "SeriesTime": "174127.487000",
      "SliceLocation": -55.426046637402,
      "SliceThickness": 2.4000000953674,
      "SmallestImagePixelValue": 0,
      "SoftwareVersions": "syngo MR E11",
      "SpacingBetweenSlices": 2.4000000123726,
      "SpecificCharacterSet": "ISO_IR 100",
      "StudyID": "1",
      "StudyTime": "164442.108000",
      "TransmitCoilName": "Body",
      "VariableFlipAngleFlag": "N",
      "WindowCenterWidthExplanation": "Algo1",
      "dBdt": 0.0},
    "slices": {}
  },
  "time": {
    "samples": {
      "AcquisitionNumber": [1, 2, 3, 4, 5, 6, 7, 8, 9, 10, 11, 12, 13, 14, 15, 16, 17, 18, 19, 20, 21, 22, 23, 24, 25, 26, 27, 28, 29, 30, 31, 32, 33, 34, 35, 36, 37, 38, 39, 40, 41, 42, 43, 44, 45, 46, 47, 48, 49, 50, 51, 52, 53, 54, 55, 56, 57, 58, 59, 60, 61, 62, 63, 64, 65, 66, 67, 68, 69, 70, 71, 72, 73, 74, 75, 76, 77, 78, 79, 80, 81, 82, 83, 84, 85, 86, 87, 88, 89, 90, 91, 92, 93, 94, 95, 96, 97, 98, 99, 100, 101, 102, 103, 104, 105, 106, 107, 108, 109, 110, 111, 112, 113, 114, 115, 116, 117, 118, 119, 120, 121, 122, 123, 124, 125],
      "AcquisitionTime": ["174057.642500", "174058.842500", "174100.042500", "174101.242500", "174102.442500", "174103.642500", "174104.842500", "174106.042500", "174107.242500", "174108.442500", "174109.642500", "174110.842500", "174112.042500", "174113.242500", "174114.442500", "174115.642500", "174116.842500", "174118.042500", "174119.242500", "174120.442500", "174121.642500", "174122.842500", "174124.042500", "174125.242500", "174126.442500", "174127.642500", "174128.842500", "174130.042500", "174131.242500", "174132.442500", "174133.642500", "174134.842500", "174136.042500", "174137.242500", "174138.442500", "174139.642500", "174140.842500", "174142.042500", "174143.242500", "174144.442500", "174145.642500", "174146.842500", "174148.042500", "174149.242500", "174150.442500", "174151.642500", "174152.842500", "174154.042500", "174155.242500", "174156.442500", "174157.642500", "174158.842500", "174200.042500", "174201.242500", "174202.442500", "174203.642500", "174204.842500", "174206.042500", "174207.242500", "174208.442500", "174209.642500", "174210.842500", "174212.042500", "174213.242500", "174214.442500", "174215.642500", "174216.842500", "174218.042500", "174219.242500", "174220.442500", "174221.642500", "174222.842500", "174224.042500", "174225.242500", "174226.442500", "174227.642500", "174228.842500", "174230.042500", "174231.242500", "174232.442500", "174233.642500", "174234.842500", "174236.042500", "174237.242500", "174238.442500", "174239.642500", "174240.842500", "174242.042500", "174243.242500", "174244.442500", "174245.642500", "174246.842500", "174248.042500", "174249.242500", "174250.442500", "174251.642500", "174252.842500", "174254.042500", "174255.242500", "174256.442500", "174257.642500", "174258.842500", "174300.042500", "174301.242500", "174302.442500", "174303.642500", "174304.842500", "174306.042500", "174307.242500", "174308.442500", "174309.642500", "174310.842500", "174312.042500", "174313.242500", "174314.442500", "174315.642500", "174316.842500", "174318.042500", "174319.242500", "174320.442500", "174321.642500", "174322.842500", "174324.042500", "174325.242500", "174326.442500"],
      "ContentTime": ["174127.491000", "174127.494000", "174127.497000", "174127.499000", "174127.512000", "174127.515000", "174127.517000", "174127.520000", "174127.522000", "174127.525000", "174127.527000", "174127.530000", "174127.533000", "174127.541000", "174127.544000", "174127.555000", "174127.557000", "174127.560000", "174127.563000", "174127.565000", "174127.568000", "174127.570000", "174127.573000", "174127.575000", "174207.486000", "174207.489000", "174207.492000", "174207.494000", "174207.497000", "174207.499000", "174207.502000", "174207.504000", "174207.507000", "174207.510000", "174207.512000", "174207.515000", "174207.517000", "174207.520000", "174207.522000", "174207.525000", "174207.527000", "174207.530000", "174207.532000", "174207.535000", "174207.538000", "174207.540000", "174207.543000", "174207.545000", "174207.548000", "174207.550000", "174207.555000", "174207.558000", "174207.561000", "174207.564000", "174207.566000", "174207.569000", "174207.571000", "174207.574000", "174247.487000", "174247.489000", "174247.492000", "174247.494000", "174247.497000", "174247.500000", "174247.502000", "174247.520000", "174247.522000", "174247.525000", "174247.528000", "174247.530000", "174247.533000", "174247.535000", "174247.538000", "174247.541000", "174247.543000", "174247.546000", "174247.548000", "174247.551000", "174247.553000", "174247.556000", "174247.559000", "174247.561000", "174247.564000", "174247.567000", "174247.569000", "174247.572000", "174247.575000", "174247.578000", "174247.580000", "174247.583000", "174247.586000", "174327.486000", "174327.490000", "174327.493000", "174327.495000", "174327.498000", "174327.501000", "174327.503000", "174327.506000", "174327.509000", "174327.512000", "174327.514000", "174327.517000", "174327.520000", "174327.537000", "174327.540000", "174327.543000", "174327.547000", "174327.550000", "174327.553000", "174327.555000", "174327.558000", "174327.561000", "174327.564000", "174327.566000", "174327.569000", "174327.572000", "174327.575000", "174327.578000", "174327.581000", "174327.584000", "174327.586000", "174327.589000", "174327.591000", "174327.627000"],
      "InstanceCreationTime": ["174127.491000", "174127.494000", "174127.497000", "174127.499000", "174127.512000", "174127.515000", "174127.517000", "174127.520000", "174127.522000", "174127.525000", "174127.527000", "174127.530000", "174127.533000", "174127.541000", "174127.544000", "174127.555000", "174127.557000", "174127.560000", "174127.563000", "174127.565000", "174127.568000", "174127.570000", "174127.573000", "174127.575000", "174207.486000", "174207.489000", "174207.492000", "174207.494000", "174207.497000", "174207.499000", "174207.502000", "174207.504000", "174207.507000", "174207.510000", "174207.512000", "174207.515000", "174207.517000", "174207.520000", "174207.522000", "174207.525000", "174207.527000", "174207.530000", "174207.532000", "174207.535000", "174207.538000", "174207.540000", "174207.543000", "174207.545000", "174207.548000", "174207.550000", "174207.555000", "174207.558000", "174207.561000", "174207.564000", "174207.566000", "174207.569000", "174207.571000", "174207.574000", "174247.487000", "174247.489000", "174247.492000", "174247.494000", "174247.497000", "174247.500000", "174247.502000", "174247.520000", "174247.522000", "174247.525000", "174247.528000", "174247.530000", "174247.533000", "174247.535000", "174247.538000", "174247.541000", "174247.543000", "174247.546000", "174247.548000", "174247.551000", "174247.553000", "174247.556000", "174247.559000", "174247.561000", "174247.564000", "174247.567000", "174247.569000", "174247.572000", "174247.575000", "174247.578000", "174247.580000", "174247.583000", "174247.586000", "174327.486000", "174327.490000", "174327.493000", "174327.495000", "174327.498000", "174327.501000", "174327.503000", "174327.506000", "174327.509000", "174327.512000", "174327.514000", "174327.517000", "174327.520000", "174327.537000", "174327.540000", "174327.543000", "174327.547000", "174327.550000", "174327.553000", "174327.555000", "174327.558000", "174327.561000", "174327.564000", "174327.566000", "174327.569000", "174327.572000", "174327.575000", "174327.578000", "174327.581000", "174327.584000", "174327.586000", "174327.589000", "174327.591000", "174327.627000"],
      "InstanceNumber": [1, 2, 3, 4, 5, 6, 7, 8, 9, 10, 11, 12, 13, 14, 15, 16, 17, 18, 19, 20, 21, 22, 23, 24, 25, 26, 27, 28, 29, 30, 31, 32, 33, 34, 35, 36, 37, 38, 39, 40, 41, 42, 43, 44, 45, 46, 47, 48, 49, 50, 51, 52, 53, 54, 55, 56, 57, 58, 59, 60, 61, 62, 63, 64, 65, 66, 67, 68, 69, 70, 71, 72, 73, 74, 75, 76, 77, 78, 79, 80, 81, 82, 83, 84, 85, 86, 87, 88, 89, 90, 91, 92, 93, 94, 95, 96, 97, 98, 99, 100, 101, 102, 103, 104, 105, 106, 107, 108, 109, 110, 111, 112, 113, 114, 115, 116, 117, 118, 119, 120, 121, 122, 123, 124, 125],
      "LargestImagePixelValue": [2102, 2021, 1988, 1979, 1962, 1964, 1954, 1962, 1965, 1948, 1951, 1953, 1947, 1954, 1941, 1947, 1945, 1942, 1963, 1946, 1945, 1950, 1952, 1944, 1951, 1937, 1945, 1948, 1935, 1946, 1945, 1940, 1943, 1941, 1955, 1947, 1938, 1934, 1935, 1946, 1936, 1951, 1960, 1938, 1931, 1944, 1952, 1941, 1945, 1936, 1935, 1936, 1947, 1941, 1934, 1939, 1948, 1946, 1926, 1942, 1937, 1931, 1941, 1939, 1927, 1937, 1924, 1931, 1936, 1921, 1931, 1929, 1931, 1919, 1922, 1927, 1926, 1943, 1926, 1935, 1929, 1935, 1930, 1918, 1928, 1914, 1920, 1929, 1923, 1926, 1927, 1929, 1936, 1927, 1919, 1923, 1933, 1915, 1921, 1923, 1937, 1930, 1915, 1917, 1932, 1927, 1918, 1933, 1926, 1925, 1926, 1909, 1929, 1927, 1922, 1915, 1903, 1918, 1917, 1922, 1937, 1913, 1933, 1930, 1917],
      "WindowCenter": [596.0, 594.0, 593.0, 593.0, 594.0, 594.0, 592.0, 591.0, 590.0, 590.0, 591.0, 592.0, 592.0, 592.0, 591.0, 590.0, 589.0, 589.0, 590.0, 590.0, 590.0, 590.0, 589.0, 588.0, 588.0, 589.0, 590.0, 590.0, 591.0, 590.0, 590.0, 590.0, 590.0, 590.0, 591.0, 590.0, 590.0, 589.0, 589.0, 590.0, 591.0, 591.0, 591.0, 589.0, 589.0, 589.0, 590.0, 589.0, 589.0, 589.0, 589.0, 589.0, 589.0, 590.0, 590.0, 590.0, 589.0, 589.0, 589.0, 589.0, 589.0, 589.0, 589.0, 589.0, 589.0, 589.0, 589.0, 589.0, 589.0, 589.0, 589.0, 589.0, 589.0, 588.0, 588.0, 587.0, 588.0, 588.0, 589.0, 590.0, 590.0, 590.0, 589.0, 589.0, 589.0, 589.0, 588.0, 589.0, 589.0, 590.0, 590.0, 590.0, 590.0, 589.0, 589.0, 589.0, 589.0, 589.0, 589.0, 589.0, 589.0, 588.0, 588.0, 589.0, 589.0, 589.0, 590.0, 590.0, 589.0, 589.0, 588.0, 588.0, 589.0, 589.0, 589.0, 589.0, 588.0, 589.0, 589.0, 590.0, 591.0, 591.0, 591.0, 590.0, 589.0],
      "WindowWidth": [1267.0, 1261.0, 1259.0, 1260.0, 1262.0, 1261.0, 1258.0, 1255.0, 1252.0, 1252.0, 1254.0, 1257.0, 1257.0, 1257.0, 1255.0, 1253.0, 1251.0, 1251.0, 1252.0, 1252.0, 1252.0, 1251.0, 1249.0, 1249.0, 1249.0, 1251.0, 1252.0, 1254.0, 1255.0, 1253.0, 1252.0, 1253.0, 1254.0, 1254.0, 1255.0, 1254.0, 1253.0, 1250.0, 1251.0, 1253.0, 1255.0, 1256.0, 1254.0, 1252.0, 1252.0, 1251.0, 1252.0, 1251.0, 1250.0, 1250.0, 1250.0, 1251.0, 1251.0, 1254.0, 1254.0, 1254.0, 1252.0, 1251.0, 1250.0, 1250.0, 1251.0, 1250.0, 1250.0, 1250.0, 1250.0, 1250.0, 1251.0, 1252.0, 1251.0, 1250.0, 1251.0, 1251.0, 1250.0, 1249.0, 1248.0, 1246.0, 1248.0, 1249.0, 1251.0, 1253.0, 1252.0, 1252.0, 1251.0, 1250.0, 1250.0, 1250.0, 1249.0, 1250.0, 1252.0, 1252.0, 1252.0, 1252.0, 1253.0, 1251.0, 1250.0, 1250.0, 1250.0, 1251.0, 1250.0, 1250.0, 1250.0, 1249.0, 1249.0, 1250.0, 1251.0, 1251.0, 1252.0, 1252.0, 1251.0, 1250.0, 1249.0, 1248.0, 1250.0, 1250.0, 1250.0, 1250.0, 1249.0, 1250.0, 1251.0, 1253.0, 1255.0, 1255.0, 1255.0, 1252.0, 1250.0]
    },
    "slices": {}
  }
}