{
  "AcquisitionMatrixPE": 88,
  "AcquisitionNumber": 1,
  "AcquisitionTime": "18:22:12.527500",
  "BandwidthPerPixelPhaseEncode": 19.592,
  "BaseResolution": 88,
  "BodyPartExamined": "BRAIN",
  "ConsistencyInfo": "N4_VE11C_LATEST_20160120",
  "ConversionSoftware": "dcm2niix",
  "ConversionSoftwareVersion": "v1.0.20190902",
  "DerivedVendorReportedEchoSpacing": 0.000580014,
  "DeviceSerialNumber": "67050",
  "DwellTime": 2.6e-06,
  "EchoTime": 0.033,
  "EchoTrainLength": 88,
  "EffectiveEchoSpacing": 0.000580014,
  "FlipAngle": 62,
  "ImageOrientationPatientDICOM": [0.99735, 0.0725488, -0.00548851, -0.0727158, 0.996469, -0.041984],
  "ImageType": [
    "ORIGINAL",
    "PRIMARY",
    "M",
    "ND",
    "MOSAIC"
],
  "ImagingFrequency": 123.25,
  "InPlanePhaseEncodingDirectionDICOM": "COL",
  "InstitutionAddress": "Olive_Street_60_Providence_RI_US_02912",
  "InstitutionName": "BROWN_UNIVERSITY_MRF",
  "InstitutionalDepartmentName": "Department",
  "MRAcquisitionType": "2D",
  "MagneticFieldStrength": 3,
  "Manufacturer": "Siemens",
  "ManufacturersModelName": "Prisma_fit",
  "Modality": "MR",
  "MultibandAccelerationFactor": 4,
  "PartialFourier": 1,
  "PatientPosition": "HFS",
  "PercentPhaseFOV": 100,
  "PhaseEncodingDirection": "j-",
  "PhaseEncodingSteps": 88,
  "PhaseResolution": 1,
  "PixelBandwidth": 2185,
  "ProcedureStepDescription": "ASHENHAV_1222",
  "ProtocolName": "func-bold_task-RDMlocalizer_run-01",
  "PulseSequenceDetails": "%SiemensSeq%_ep2d_bold",
  "ReceiveCoilActiveElements": "HC1-7",
  "ReceiveCoilName": "HeadNeck_64",
  "ReconMatrixPE": 88,
  "RefLinesPE": 8,
  "RepetitionTime": 1.2,
  "SAR": 0.0598159,
  "ScanOptions": "FS",
  "ScanningSequence": "EP",
  "SequenceName": "_epfid2d1_88",
  "SequenceVariant": "SK",
  "SeriesDescription": "func-bold_task-RDMlocalizer_run-01",
  "SeriesNumber": 19,
  "ShimSetting": [1752, -9088, 4419, 342, -17, -59, -45, 0],
  "SliceThickness": 2.4,
  "SliceTiming": [0.55, 0, 0.6275, 0.0775, 0.7075, 0.1575, 0.785, 0.235, 0.865, 0.315, 0.9425, 0.3925, 1.0225, 0.4725, 1.1, 0.55, 0, 0.6275, 0.0775, 0.7075, 0.1575, 0.785, 0.235, 0.865, 0.315, 0.9425, 0.3925, 1.0225, 0.4725, 1.1, 0.55, 0, 0.6275, 0.0775, 0.7075, 0.1575, 0.785, 0.235, 0.865, 0.315, 0.9425, 0.3925, 1.0225, 0.4725, 1.1, 0.55, 0, 0.6275, 0.0775, 0.7075, 0.1575, 0.785, 0.235, 0.865, 0.315, 0.9425, 0.3925, 1.0225, 0.4725, 1.1],
  "SoftwareVersions": "syngo_MR_E11",
  "SpacingBetweenSlices": 2.4,
  "StationName": "AWP67050",
  "TaskName": "RDMlocalizer",
  "TotalReadoutTime": 0.0504612,
  "TxRefAmp": 234.758,
  "dcmmeta_affine": [
    [-2.3913726806640625, -0.17435261607170105, -0.005815757438540459, 115.19979095458984],
    [-0.17395231127738953, 2.3892600536346436, -0.10145245492458344, -85.26564025878906],
    [-0.013159940019249916, 0.10066623985767365, 2.3978476524353027, -58.80396270751953],
    [0.0, 0.0, 0.0, 1.0]
],
  "dcmmeta_reorient_transform": [
    [0.0, -1.0, 0.0, 87.0],
    [1.0, 0.0, 0.0, 0.0],
    [0.0, 0.0, 1.0, 0.0],
    [0.0, 0.0, 0.0, 1.0]
],
  "dcmmeta_shape": [88, 88, 60, 195],
  "dcmmeta_slice_dim": 2,
  "dcmmeta_version": 0.6,
  "global": {
    "const": {
      "AcquisitionMatrix": [88, 0, 0, 88],
      "AngioFlag": "N",
      "BitsAllocated": 16,
      "BitsStored": 12,
      "BodyPartExamined": "BRAIN",
      "Columns": 704,
      "DeidentificationMethodCodeSequence": [
        {
          "CodeMeaning": "XNAT DicomEdit 6 Script",
          "CodeValue": "3",
          "CodingSchemeDesignator": "XNAT",
          "CodingSchemeVersion": "1.0"}
],
      "EchoNumbers": 1,
      "EchoTime": 33.0,
      "EchoTrainLength": 88,
      "FlipAngle": 62.0,
      "HighBit": 11,
      "ImageOrientationPatient": [0.99734975969822, 0.07254883274229, -0.0054885059573, -0.0727157807882, 0.99646864326278, -0.0419840233707],
      "ImagePositionPatient": [-782.87330133211, -912.06938230124, -14.987537415944],
      "ImageType": [
        "ORIGINAL",
        "PRIMARY",
        "M",
        "ND",
        "MOSAIC"
],
      "ImagedNucleus": "1H",
      "ImagingFrequency": 123.249986,
      "InPlanePhaseEncodingDirection": "COL",
      "MRAcquisitionType": "2D",
      "MagneticFieldStrength": 3.0,
      "Manufacturer": "SIEMENS",
      "ManufacturerModelName": "Prisma_fit",
      "Modality": "MR",
      "NumberOfAverages": 1.0,
      "NumberOfPhaseEncodingSteps": 88,
      "PercentPhaseFieldOfView": 100.0,
      "PercentSampling": 100.0,
      "PerformedProcedureStepStartTime": "164442.180000",
      "PhotometricInterpretation": "MONOCHROME2",
      "PixelBandwidth": 2185.0,
      "PixelRepresentation": 0,
      "PixelSpacing": [2.3977272510529, 2.3977272510529],
      "ProtocolName": "func-bold_task-RDMlocalizer_run-01",
      "RepetitionTime": 1200.0,
      "Rows": 704,
      "SAR": 0.05981586138726,
      "SamplesPerPixel": 1,
      "ScanOptions": "FS",
      "ScanningSequence": "EP",
      "SequenceName": "*epfid2d1_88",
      "SequenceVariant": "SK",
      "SeriesDescription": "func-bold_task-RDMlocalizer_run-01",
      "SeriesNumber": 19,
      "SeriesTime": "182253.346000",
      "SliceLocation": -55.426046637402,
      "SliceThickness": 2.4000000953674,
      "SmallestImagePixelValue": 0,
      "SoftwareVersions": "syngo MR E11",
      "SpacingBetweenSlices": 2.4000000123726,
      "SpecificCharacterSet": "ISO_IR 100",
      "StudyID": "1",
      "StudyTime": "164442.108000",
      "TransmitCoilName": "Body",
      "VariableFlipAngleFlag": "N",
      "WindowCenterWidthExplanation": "Algo1",
      "dBdt": 0.0},
    "slices": {}
  },
  "time": {
    "samples": {
      "AcquisitionNumber": [1, 2, 3, 4, 5, 6, 7, 8, 9, 10, 11, 12, 13, 14, 15, 16, 17, 18, 19, 20, 21, 22, 23, 24, 25, 26, 27, 28, 29, 30, 31, 32, 33, 34, 35, 36, 37, 38, 39, 40, 41, 42, 43, 44, 45, 46, 47, 48, 49, 50, 51, 52, 53, 54, 55, 56, 57, 58, 59, 60, 61, 62, 63, 64, 65, 66, 67, 68, 69, 70, 71, 72, 73, 74, 75, 76, 77, 78, 79, 80, 81, 82, 83, 84, 85, 86, 87, 88, 89, 90, 91, 92, 93, 94, 95, 96, 97, 98, 99, 100, 101, 102, 103, 104, 105, 106, 107, 108, 109, 110, 111, 112, 113, 114, 115, 116, 117, 118, 119, 120, 121, 122, 123, 124, 125, 126, 127, 128, 129, 130, 131, 132, 133, 134, 135, 136, 137, 138, 139, 140, 141, 142, 143, 144, 145, 146, 147, 148, 149, 150, 151, 152, 153, 154, 155, 156, 157, 158, 159, 160, 161, 162, 163, 164, 165, 166, 167, 168, 169, 170, 171, 172, 173, 174, 175, 176, 177, 178, 179, 180, 181, 182, 183, 184, 185, 186, 187, 188, 189, 190, 191, 192, 193, 194, 195],
      "AcquisitionTime": ["182212.527500", "182213.727500", "182214.927500", "182216.127500", "182217.327500", "182218.527500", "182219.727500", "182220.927500", "182222.127500", "182223.327500", "182224.527500", "182225.727500", "182226.927500", "182228.127500", "182229.327500", "182230.527500", "182231.727500", "182232.927500", "182234.127500", "182235.327500", "182236.527500", "182237.727500", "182238.927500", "182240.127500", "182241.327500", "182242.527500", "182243.727500", "182244.927500", "182246.127500", "182247.327500", "182248.527500", "182249.727500", "182250.927500", "182252.127500", "182253.327500", "182254.527500", "182255.727500", "182256.927500", "182258.127500", "182259.327500", "182300.527500", "182301.727500", "182302.927500", "182304.127500", "182305.327500", "182306.527500", "182307.727500", "182308.927500", "182310.127500", "182311.327500", "182312.527500", "182313.727500", "182314.927500", "182316.127500", "182317.327500", "182318.527500", "182319.727500", "182320.927500", "182322.127500", "182323.327500", "182324.527500", "182325.727500", "182326.927500", "182328.127500", "182329.327500", "182330.527500", "182331.727500", "182332.927500", "182334.127500", "182335.327500", "182336.527500", "182337.727500", "182338.927500", "182340.127500", "182341.327500", "182342.527500", "182343.727500", "182344.927500", "182346.127500", "182347.327500", "182348.527500", "182349.727500", "182350.927500", "182352.127500", "182353.327500", "182354.527500", "182355.727500", "182356.927500", "182358.127500", "182359.327500", "182400.527500", "182401.727500", "182402.927500", "182404.127500", "182405.327500", "182406.527500", "182407.727500", "182408.927500", "182410.127500", "182411.327500", "182412.527500", "182413.727500", "182414.927500", "182416.127500", "182417.327500", "182418.527500", "182419.727500", "182420.927500", "182422.127500", "182423.327500", "182424.527500", "182425.727500", "182426.927500", "182428.127500", "182429.327500", "182430.527500", "182431.727500", "182432.927500", "182434.127500", "182435.327500", "182436.527500", "182437.727500", "182438.927500", "182440.127500", "182441.327500", "182442.527500", "182443.727500", "182444.927500", "182446.127500", "182447.327500", "182448.527500", "182449.727500", "182450.927500", "182452.127500", "182453.327500", "182454.527500", "182455.727500", "182456.927500", "182458.127500", "182459.327500", "182500.527500", "182501.727500", "182502.927500", "182504.127500", "182505.327500", "182506.527500", "182507.727500", "182508.927500", "182510.127500", "182511.327500", "182512.527500", "182513.727500", "182514.927500", "182516.127500", "182517.327500", "182518.527500", "182519.727500", "182520.927500", "182522.127500", "182523.327500", "182524.527500", "182525.727500", "182526.927500", "182528.127500", "182529.327500", "182530.527500", "182531.727500", "182532.927500", "182534.127500", "182535.327500", "182536.527500", "182537.727500", "182538.927500", "182540.127500", "182541.327500", "182542.527500", "182543.727500", "182544.927500", "182546.127500", "182547.327500", "182548.527500", "182549.727500", "182550.927500", "182552.127500", "182553.327500", "182554.527500", "182555.727500", "182556.927500", "182558.127500", "182559.327500", "182600.527500", "182601.727500", "182602.927500", "182604.127500", "182605.327500"],
      "ContentTime": ["182253.349000", "182253.352000", "182253.355000", "182253.358000", "182253.360000", "182253.363000", "182253.365000", "182253.368000", "182253.370000", "182253.373000", "182253.375000", "182253.378000", "182253.381000", "182253.383000", "182253.386000", "182253.388000", "182253.391000", "182253.394000", "182253.396000", "182253.399000", "182253.401000", "182253.404000", "182253.406000", "182253.409000", "182253.412000", "182253.414000", "182253.417000", "182253.419000", "182253.422000", "182253.425000", "182253.427000", "182253.430000", "182253.432000", "182333.345000", "182333.347000", "182333.350000", "182333.353000", "182333.355000", "182333.364000", "182333.366000", "182333.369000", "182333.372000", "182333.374000", "182333.377000", "182333.379000", "182333.382000", "182333.385000", "182333.387000", "182333.390000", "182333.392000", "182333.395000", "182333.398000", "182333.401000", "182333.403000", "182333.406000", "182333.408000", "182333.415000", "182333.418000", "182333.421000", "182333.423000", "182333.434000", "182333.437000", "182333.439000", "182333.442000", "182333.445000", "182333.447000", "182413.343000", "182413.346000", "182413.349000", "182413.351000", "182413.354000", "182413.357000", "182413.359000", "182413.362000", "182413.364000", "182413.367000", "182413.370000", "182413.372000", "182413.375000", "182413.377000", "182413.380000", "182413.382000", "182413.385000", "182413.388000", "182413.390000", "182413.393000", "182413.395000", "182413.398000", "182413.401000", "182413.403000", "182413.406000", "182413.408000", "182413.411000", "182413.414000", "182413.416000", "182413.419000", "182413.421000", "182413.424000", "182413.426000", "182413.429000", "182453.344000", "182453.347000", "182453.350000", "182453.352000", "182453.355000", "182453.358000", "182453.361000", "182453.363000", "182453.366000", "182453.368000", "182453.371000", "182453.373000", "182453.376000", "182453.379000", "182453.381000", "182453.384000", "182453.386000", "182453.389000", "182453.392000", "182453.394000", "182453.397000", "182453.400000", "182453.402000", "182453.405000", "182453.408000", "182453.410000", "182453.413000", "182453.415000", "182453.418000", "182453.420000", "182453.423000", "182453.426000", "182453.428000", "182533.344000", "182533.347000", "182533.350000", "182533.353000", "182533.355000", "182533.358000", "182533.360000", "182533.363000", "182533.366000", "182533.368000", "182533.371000", "182533.390000", "182533.393000", "182533.395000", "182533.398000", "182533.401000", "182533.403000", "182533.406000", "182533.409000", "182533.411000", "182533.414000", "182533.417000", "182533.419000", "182533.422000", "182533.425000", "182533.427000", "182533.430000", "182533.433000", "182533.435000", "182533.438000", "182533.440000", "182533.443000", "182533.446000", "182607.274000", "182607.277000", "182607.280000", "182607.283000", "182607.285000", "182607.288000", "182607.291000", "182607.293000", "182607.296000", "182607.299000", "182607.301000", "182607.304000", "182607.312000", "182607.315000", "182607.317000", "182607.320000", "182607.323000", "182607.325000", "182607.328000", "182607.331000", "182607.333000", "182607.336000", "182607.369000", "182607.371000", "182607.374000", "182607.377000", "182607.379000", "182607.382000", "182607.386000"],
      "InstanceCreationTime": ["182253.349000", "182253.352000", "182253.355000", "182253.358000", "182253.360000", "182253.363000", "182253.365000", "182253.368000", "182253.370000", "182253.373000", "182253.375000", "182253.378000", "182253.381000", "182253.383000", "182253.386000", "182253.388000", "182253.391000", "182253.394000", "182253.396000", "182253.399000", "182253.401000", "182253.404000", "182253.406000", "182253.409000", "182253.412000", "182253.414000", "182253.417000", "182253.419000", "182253.422000", "182253.425000", "182253.427000", "182253.430000", "182253.432000", "182333.345000", "182333.347000", "182333.350000", "182333.353000", "182333.355000", "182333.364000", "182333.366000", "182333.369000", "182333.372000", "182333.374000", "182333.377000", "182333.379000", "182333.382000", "182333.385000", "182333.387000", "182333.390000", "182333.392000", "182333.395000", "182333.398000", "182333.401000", "182333.403000", "182333.406000", "182333.408000", "182333.415000", "182333.418000", "182333.421000", "182333.423000", "182333.434000", "182333.437000", "182333.439000", "182333.442000", "182333.445000", "182333.447000", "182413.343000", "182413.346000", "182413.349000", "182413.351000", "182413.354000", "182413.357000", "182413.359000", "182413.362000", "182413.364000", "182413.367000", "182413.370000", "182413.372000", "182413.375000", "182413.377000", "182413.380000", "182413.382000", "182413.385000", "182413.388000", "182413.390000", "182413.393000", "182413.395000", "182413.398000", "182413.401000", "182413.403000", "182413.406000", "182413.408000", "182413.411000", "182413.414000", "182413.416000", "182413.419000", "182413.421000", "182413.424000", "182413.426000", "182413.429000", "182453.344000", "182453.347000", "182453.350000", "182453.352000", "182453.355000", "182453.358000", "182453.361000", "182453.363000", "182453.366000", "182453.368000", "182453.371000", "182453.373000", "182453.376000", "182453.379000", "182453.381000", "182453.384000", "182453.386000", "182453.389000", "182453.392000", "182453.394000", "182453.397000", "182453.400000", "182453.402000", "182453.405000", "182453.408000", "182453.410000", "182453.413000", "182453.415000", "182453.418000", "182453.420000", "182453.423000", "182453.426000", "182453.428000", "182533.344000", "182533.347000", "182533.350000", "182533.353000", "182533.355000", "182533.358000", "182533.360000", "182533.363000", "182533.366000", "182533.368000", "182533.371000", "182533.390000", "182533.393000", "182533.395000", "182533.398000", "182533.401000", "182533.403000", "182533.406000", "182533.409000", "182533.411000", "182533.414000", "182533.417000", "182533.419000", "182533.422000", "182533.425000", "182533.427000", "182533.430000", "182533.433000", "182533.435000", "182533.438000", "182533.440000", "182533.443000", "182533.446000", "182607.274000", "182607.277000", "182607.280000", "182607.283000", "182607.285000", "182607.288000", "182607.291000", "182607.293000", "182607.296000", "182607.299000", "182607.301000", "182607.304000", "182607.312000", "182607.315000", "182607.317000", "182607.320000", "182607.323000", "182607.325000", "182607.328000", "182607.331000", "182607.333000", "182607.336000", "182607.369000", "182607.371000", "182607.374000", "182607.377000", "182607.379000", "182607.382000", "182607.386000"],
      "InstanceNumber": [1, 2, 3, 4, 5, 6, 7, 8, 9, 10, 11, 12, 13, 14, 15, 16, 17, 18, 19, 20, 21, 22, 23, 24, 25, 26, 27, 28, 29, 30, 31, 32, 33, 34, 35, 36, 37, 38, 39, 40, 41, 42, 43, 44, 45, 46, 47, 48, 49, 50, 51, 52, 53, 54, 55, 56, 57, 58, 59, 60, 61, 62, 63, 64, 65, 66, 67, 68, 69, 70, 71, 72, 73, 74, 75, 76, 77, 78, 79, 80, 81, 82, 83, 84, 85, 86, 87, 88, 89, 90, 91, 92, 93, 94, 95, 96, 97, 98, 99, 100, 101, 102, 103, 104, 105, 106, 107, 108, 109, 110, 111, 112, 113, 114, 115, 116, 117, 118, 119, 120, 121, 122, 123, 124, 125, 126, 127, 128, 129, 130, 131, 132, 133, 134, 135, 136, 137, 138, 139, 140, 141, 142, 143, 144, 145, 146, 147, 148, 149, 150, 151, 152, 153, 154, 155, 156, 157, 158, 159, 160, 161, 162, 163, 164, 165, 166, 167, 168, 169, 170, 171, 172, 173, 174, 175, 176, 177, 178, 179, 180, 181, 182, 183, 184, 185, 186, 187, 188, 189, 190, 191, 192, 193, 194, 195],
      "LargestImagePixelValue": [2042, 1959, 1959, 1910, 1911, 1912, 1905, 1906, 1865, 1875, 1880, 1862, 1859, 1865, 1861, 1852, 1853, 1871, 1856, 1855, 1856, 1848, 1865, 1862, 1841, 1885, 1871, 1852, 1852, 1863, 1854, 1842, 1863, 1838, 1842, 1842, 1818, 1813, 1849, 1838, 1839, 1833, 1882, 1897, 1875, 1885, 1928, 1885, 1926, 1916, 1902, 1911, 1877, 1859, 1865, 1875, 1878, 1847, 1846, 1887, 1850, 1870, 1839, 1856, 1860, 1845, 1839, 1857, 1838, 1840, 1853, 1845, 1843, 1847, 1836, 1846, 1864, 1867, 1841, 1856, 1880, 1844, 1843, 1859, 1848, 1835, 1853, 1842, 1822, 1819, 1828, 1828, 1825, 1831, 1850, 1835, 1878, 1861, 1843, 1867, 1834, 1840, 1823, 1820, 1815, 1892, 1877, 1850, 1907, 1870, 1838, 1849, 1825, 1826, 1860, 1829, 1814, 1827, 1835, 1832, 1836, 1819, 1827, 1838, 1803, 1825, 1851, 1818, 1843, 1843, 1843, 1839, 1806, 1820, 1844, 1864, 1830, 1840, 1812, 1804, 1823, 1823, 1819, 1825, 1823, 1825, 1844, 1836, 1806, 1851, 1835, 1829, 1862, 1843, 1823, 1834, 1827, 1842, 1839, 1828, 1824, 1887, 1915, 1904, 1901, 1882, 1830, 1840, 1819, 1825, 1825, 1845, 1834, 1809, 1831, 1839, 1851, 1849, 1851, 1818, 1854, 1819, 1837, 1830, 1881, 1884, 1865, 1891, 1890, 1889, 1883, 1895, 1864, 1880, 1878],
      "WindowCenter": [592.0, 590.0, 588.0, 586.0, 586.0, 586.0, 586.0, 587.0, 587.0, 588.0, 587.0, 586.0, 587.0, 586.0, 586.0, 586.0, 585.0, 585.0, 584.0, 584.0, 585.0, 586.0, 587.0, 586.0, 585.0, 586.0, 585.0, 585.0, 585.0, 585.0, 585.0, 585.0, 585.0, 585.0, 585.0, 584.0, 584.0, 584.0, 586.0, 587.0, 587.0, 586.0, 587.0, 586.0, 586.0, 586.0, 587.0, 586.0, 586.0, 586.0, 586.0, 585.0, 585.0, 585.0, 585.0, 585.0, 585.0, 584.0, 584.0, 586.0, 587.0, 587.0, 585.0, 585.0, 584.0, 584.0, 585.0, 585.0, 586.0, 586.0, 586.0, 585.0, 585.0, 585.0, 585.0, 585.0, 585.0, 585.0, 585.0, 585.0, 585.0, 584.0, 585.0, 586.0, 587.0, 586.0, 586.0, 585.0, 584.0, 584.0, 584.0, 584.0, 583.0, 584.0, 585.0, 585.0, 585.0, 584.0, 584.0, 585.0, 584.0, 585.0, 584.0, 584.0, 584.0, 586.0, 586.0, 585.0, 586.0, 585.0, 585.0, 585.0, 584.0, 585.0, 586.0, 585.0, 584.0, 584.0, 586.0, 586.0, 586.0, 585.0, 583.0, 583.0, 582.0, 583.0, 584.0, 584.0, 584.0, 583.0, 582.0, 582.0, 583.0, 584.0, 587.0, 588.0, 588.0, 586.0, 584.0, 582.0, 582.0, 583.0, 583.0, 583.0, 583.0, 583.0, 582.0, 582.0, 582.0, 583.0, 584.0, 584.0, 584.0, 584.0, 584.0, 585.0, 586.0, 586.0, 587.0, 587.0, 586.0, 587.0, 586.0, 585.0, 585.0, 585.0, 584.0, 584.0, 583.0, 583.0, 583.0, 583.0, 583.0, 583.0, 583.0, 585.0, 588.0, 588.0, 588.0, 586.0, 585.0, 584.0, 585.0, 585.0, 587.0, 587.0, 586.0, 586.0, 585.0, 584.0, 584.0, 584.0, 584.0, 586.0, 587.0],
      "WindowWidth": [1257.0, 1251.0, 1247.0, 1245.0, 1245.0, 1244.0, 1244.0, 1247.0, 1248.0, 1248.0, 1246.0, 1245.0, 1245.0, 1245.0, 1245.0, 1244.0, 1242.0, 1241.0, 1239.0, 1241.0, 1243.0, 1244.0, 1246.0, 1244.0, 1242.0, 1243.0, 1242.0, 1241.0, 1241.0, 1241.0, 1242.0, 1243.0, 1243.0, 1242.0, 1242.0, 1241.0, 1240.0, 1241.0, 1245.0, 1247.0, 1247.0, 1246.0, 1247.0, 1245.0, 1245.0, 1245.0, 1246.0, 1245.0, 1245.0, 1243.0, 1243.0, 1243.0, 1241.0, 1241.0, 1241.0, 1241.0, 1242.0, 1241.0, 1241.0, 1245.0, 1246.0, 1246.0, 1244.0, 1242.0, 1241.0, 1240.0, 1242.0, 1243.0, 1245.0, 1245.0, 1244.0, 1243.0, 1243.0, 1243.0, 1243.0, 1244.0, 1243.0, 1243.0, 1242.0, 1242.0, 1242.0, 1241.0, 1243.0, 1245.0, 1246.0, 1246.0, 1245.0, 1243.0, 1242.0, 1240.0, 1240.0, 1240.0, 1239.0, 1240.0, 1242.0, 1243.0, 1243.0, 1241.0, 1241.0, 1242.0, 1241.0, 1242.0, 1240.0, 1239.0, 1240.0, 1244.0, 1244.0, 1243.0, 1243.0, 1243.0, 1242.0, 1242.0, 1241.0, 1242.0, 1244.0, 1242.0, 1241.0, 1241.0, 1244.0, 1245.0, 1245.0, 1242.0, 1239.0, 1238.0, 1237.0, 1238.0, 1241.0, 1241.0, 1240.0, 1238.0, 1237.0, 1237.0, 1238.0, 1242.0, 1248.0, 1250.0, 1249.0, 1245.0, 1240.0, 1237.0, 1236.0, 1238.0, 1239.0, 1239.0, 1238.0, 1237.0, 1235.0, 1235.0, 1236.0, 1238.0, 1239.0, 1239.0, 1240.0, 1241.0, 1241.0, 1242.0, 1244.0, 1245.0, 1246.0, 1246.0, 1245.0, 1246.0, 1245.0, 1242.0, 1242.0, 1242.0, 1241.0, 1240.0, 1238.0, 1237.0, 1238.0, 1238.0, 1238.0, 1237.0, 1239.0, 1244.0, 1249.0, 1250.0, 1249.0, 1245.0, 1243.0, 1240.0, 1242.0, 1242.0, 1246.0, 1246.0, 1244.0, 1243.0, 1241.0, 1239.0, 1238.0, 1239.0, 1240.0, 1244.0, 1248.0]
    },
    "slices": {}
  }
}