{
  "AcquisitionMatrixPE": 88,
  "AcquisitionNumber": 1,
  "AcquisitionTime": "17:32:22.997500",
  "BandwidthPerPixelPhaseEncode": 19.592,
  "BaseResolution": 88,
  "BodyPartExamined": "BRAIN",
  "ConsistencyInfo": "N4_VE11C_LATEST_20160120",
  "ConversionSoftware": "dcm2niix",
  "ConversionSoftwareVersion": "v1.0.20190902",
  "DerivedVendorReportedEchoSpacing": 0.000580014,
  "DeviceSerialNumber": "67050",
  "DwellTime": 2.6e-06,
  "EchoTime": 0.033,
  "EchoTrainLength": 88,
  "EffectiveEchoSpacing": 0.000580014,
  "FlipAngle": 62,
  "ImageOrientationPatientDICOM": [0.99735, 0.0725488, -0.00548851, -0.0727158, 0.996469, -0.041984],
  "ImageType": [
    "ORIGINAL",
    "PRIMARY",
    "M",
    "ND",
    "MOSAIC"
],
  "ImagingFrequency": 123.25,
  "InPlanePhaseEncodingDirectionDICOM": "COL",
  "InstitutionAddress": "Olive_Street_60_Providence_RI_US_02912",
  "InstitutionName": "BROWN_UNIVERSITY_MRF",
  "InstitutionalDepartmentName": "Department",
  "MRAcquisitionType": "2D",
  "MagneticFieldStrength": 3,
  "Manufacturer": "Siemens",
  "ManufacturersModelName": "Prisma_fit",
  "Modality": "MR",
  "MultibandAccelerationFactor": 4,
  "PartialFourier": 1,
  "PatientPosition": "HFS",
  "PercentPhaseFOV": 100,
  "PhaseEncodingDirection": "j-",
  "PhaseEncodingSteps": 88,
  "PhaseResolution": 1,
  "PixelBandwidth": 2185,
  "ProcedureStepDescription": "ASHENHAV_1222",
  "ProtocolName": "func-bold_task-RDMcolor_run-03",
  "PulseSequenceDetails": "%SiemensSeq%_ep2d_bold",
  "ReceiveCoilActiveElements": "HC1-7",
  "ReceiveCoilName": "HeadNeck_64",
  "ReconMatrixPE": 88,
  "RefLinesPE": 8,
  "RepetitionTime": 1.2,
  "SAR": 0.0601099,
  "ScanOptions": "FS",
  "ScanningSequence": "EP",
  "SequenceName": "_epfid2d1_88",
  "SequenceVariant": "SK",
  "SeriesDescription": "func-bold_task-RDMcolor_run-03",
  "SeriesNumber": 12,
  "ShimSetting": [1752, -9088, 4419, 342, -17, -59, -45, 0],
  "SliceThickness": 2.4,
  "SliceTiming": [0.55, 0, 0.63, 0.08, 0.7075, 0.1575, 0.7875, 0.2375, 0.865, 0.315, 0.945, 0.395, 1.0225, 0.4725, 1.1025, 0.55, 0, 0.63, 0.08, 0.7075, 0.1575, 0.7875, 0.2375, 0.865, 0.315, 0.945, 0.395, 1.0225, 0.4725, 1.1025, 0.55, 0, 0.63, 0.08, 0.7075, 0.1575, 0.7875, 0.2375, 0.865, 0.315, 0.945, 0.395, 1.0225, 0.4725, 1.1025, 0.55, 0, 0.63, 0.08, 0.7075, 0.1575, 0.7875, 0.2375, 0.865, 0.315, 0.945, 0.395, 1.0225, 0.4725, 1.1025],
  "SoftwareVersions": "syngo_MR_E11",
  "SpacingBetweenSlices": 2.4,
  "StationName": "AWP67050",
  "TaskName": "RDMcolor",
  "TotalReadoutTime": 0.0504612,
  "TxRefAmp": 234.758,
  "dcmmeta_affine": [
    [-2.3913726806640625, -0.17435261607170105, -0.005815757438540459, 115.19979095458984],
    [-0.17395231127738953, 2.3892600536346436, -0.10145245492458344, -85.26564025878906],
    [-0.013159940019249916, 0.10066623985767365, 2.3978476524353027, -58.80396270751953],
    [0.0, 0.0, 0.0, 1.0]
],
  "dcmmeta_reorient_transform": [
    [0.0, -1.0, 0.0, 87.0],
    [1.0, 0.0, 0.0, 0.0],
    [0.0, 0.0, 1.0, 0.0],
    [0.0, 0.0, 0.0, 1.0]
],
  "dcmmeta_shape": [88, 88, 60, 392],
  "dcmmeta_slice_dim": 2,
  "dcmmeta_version": 0.6,
  "global": {
    "const": {
      "AcquisitionMatrix": [88, 0, 0, 88],
      "AngioFlag": "N",
      "BitsAllocated": 16,
      "BitsStored": 12,
      "BodyPartExamined": "BRAIN",
      "Columns": 704,
      "DeidentificationMethodCodeSequence": [
        {
          "CodeMeaning": "XNAT DicomEdit 6 Script",
          "CodeValue": "3",
          "CodingSchemeDesignator": "XNAT",
          "CodingSchemeVersion": "1.0"}
],
      "EchoNumbers": 1,
      "EchoTime": 33.0,
      "EchoTrainLength": 88,
      "FlipAngle": 62.0,
      "HighBit": 11,
      "ImageOrientationPatient": [0.99734975969822, 0.07254883274229, -0.0054885059573, -0.0727157807882, 0.99646864326278, -0.0419840233707],
      "ImagePositionPatient": [-782.87330133211, -912.06938230124, -14.987537415944],
      "ImageType": [
        "ORIGINAL",
        "PRIMARY",
        "M",
        "ND",
        "MOSAIC"
],
      "ImagedNucleus": "1H",
      "ImagingFrequency": 123.249977,
      "InPlanePhaseEncodingDirection": "COL",
      "MRAcquisitionType": "2D",
      "MagneticFieldStrength": 3.0,
      "Manufacturer": "SIEMENS",
      "ManufacturerModelName": "Prisma_fit",
      "Modality": "MR",
      "NumberOfAverages": 1.0,
      "NumberOfPhaseEncodingSteps": 88,
      "PercentPhaseFieldOfView": 100.0,
      "PercentSampling": 100.0,
      "PerformedProcedureStepStartTime": "164442.180000",
      "PhotometricInterpretation": "MONOCHROME2",
      "PixelBandwidth": 2185.0,
      "PixelRepresentation": 0,
      "PixelSpacing": [2.3977272510529, 2.3977272510529],
      "ProtocolName": "func-bold_task-RDMcolor_run-03",
      "RepetitionTime": 1200.0,
      "Rows": 704,
      "SAR": 0.06010986175512,
      "SamplesPerPixel": 1,
      "ScanOptions": "FS",
      "ScanningSequence": "EP",
      "SequenceName": "*epfid2d1_88",
      "SequenceVariant": "SK",
      "SeriesDescription": "func-bold_task-RDMcolor_run-03",
      "SeriesNumber": 12,
      "SeriesTime": "173303.225000",
      "SliceLocation": -55.426046637402,
      "SliceThickness": 2.4000000953674,
      "SmallestImagePixelValue": 0,
      "SoftwareVersions": "syngo MR E11",
      "SpacingBetweenSlices": 2.4000000123726,
      "SpecificCharacterSet": "ISO_IR 100",
      "StudyID": "1",
      "StudyTime": "164442.108000",
      "TransmitCoilName": "Body",
      "VariableFlipAngleFlag": "N",
      "WindowCenterWidthExplanation": "Algo1",
      "dBdt": 0.0},
    "slices": {}
  },
  "time": {
    "samples": {
      "AcquisitionNumber": [1, 2, 3, 4, 5, 6, 7, 8, 9, 10, 11, 12, 13, 14, 15, 16, 17, 18, 19, 20, 21, 22, 23, 24, 25, 26, 27, 28, 29, 30, 31, 32, 33, 34, 35, 36, 37, 38, 39, 40, 41, 42, 43, 44, 45, 46, 47, 48, 49, 50, 51, 52, 53, 54, 55, 56, 57, 58, 59, 60, 61, 62, 63, 64, 65, 66, 67, 68, 69, 70, 71, 72, 73, 74, 75, 76, 77, 78, 79, 80, 81, 82, 83, 84, 85, 86, 87, 88, 89, 90, 91, 92, 93, 94, 95, 96, 97, 98, 99, 100, 101, 102, 103, 104, 105, 106, 107, 108, 109, 110, 111, 112, 113, 114, 115, 116, 117, 118, 119, 120, 121, 122, 123, 124, 125, 126, 127, 128, 129, 130, 131, 132, 133, 134, 135, 136, 137, 138, 139, 140, 141, 142, 143, 144, 145, 146, 147, 148, 149, 150, 151, 152, 153, 154, 155, 156, 157, 158, 159, 160, 161, 162, 163, 164, 165, 166, 167, 168, 169, 170, 171, 172, 173, 174, 175, 176, 177, 178, 179, 180, 181, 182, 183, 184, 185, 186, 187, 188, 189, 190, 191, 192, 193, 194, 195, 196, 197, 198, 199, 200, 201, 202, 203, 204, 205, 206, 207, 208, 209, 210, 211, 212, 213, 214, 215, 216, 217, 218, 219, 220, 221, 222, 223, 224, 225, 226, 227, 228, 229, 230, 231, 232, 233, 234, 235, 236, 237, 238, 239, 240, 241, 242, 243, 244, 245, 246, 247, 248, 249, 250, 251, 252, 253, 254, 255, 256, 257, 258, 259, 260, 261, 262, 263, 264, 265, 266, 267, 268, 269, 270, 271, 272, 273, 274, 275, 276, 277, 278, 279, 280, 281, 282, 283, 284, 285, 286, 287, 288, 289, 290, 291, 292, 293, 294, 295, 296, 297, 298, 299, 300, 301, 302, 303, 304, 305, 306, 307, 308, 309, 310, 311, 312, 313, 314, 315, 316, 317, 318, 319, 320, 321, 322, 323, 324, 325, 326, 327, 328, 329, 330, 331, 332, 333, 334, 335, 336, 337, 338, 339, 340, 341, 342, 343, 344, 345, 346, 347, 348, 349, 350, 351, 352, 353, 354, 355, 356, 357, 358, 359, 360, 361, 362, 363, 364, 365, 366, 367, 368, 369, 370, 371, 372, 373, 374, 375, 376, 377, 378, 379, 380, 381, 382, 383, 384, 385, 386, 387, 388, 389, 390, 391, 392],
      "AcquisitionTime": ["173222.997500", "173224.197500", "173225.397500", "173226.597500", "173227.797500", "173228.997500", "173230.197500", "173231.397500", "173232.597500", "173233.797500", "173234.997500", "173236.197500", "173237.397500", "173238.597500", "173239.797500", "173240.997500", "173242.197500", "173243.397500", "173244.597500", "173245.797500", "173246.997500", "173248.197500", "173249.397500", "173250.597500", "173251.797500", "173252.997500", "173254.197500", "173255.397500", "173256.597500", "173257.797500", "173258.997500", "173300.197500", "173301.397500", "173302.597500", "173303.797500", "173304.997500", "173306.197500", "173307.397500", "173308.597500", "173309.797500", "173310.997500", "173312.197500", "173313.397500", "173314.597500", "173315.797500", "173316.997500", "173318.197500", "173319.397500", "173320.597500", "173321.797500", "173322.997500", "173324.197500", "173325.397500", "173326.597500", "173327.797500", "173328.997500", "173330.197500", "173331.397500", "173332.597500", "173333.797500", "173334.997500", "173336.197500", "173337.397500", "173338.597500", "173339.797500", "173340.997500", "173342.197500", "173343.397500", "173344.597500", "173345.797500", "173346.997500", "173348.197500", "173349.397500", "173350.597500", "173351.797500", "173352.997500", "173354.197500", "173355.397500", "173356.597500", "173357.797500", "173358.997500", "173400.197500", "173401.397500", "173402.597500", "173403.797500", "173404.997500", "173406.197500", "173407.397500", "173408.597500", "173409.797500", "173410.997500", "173412.197500", "173413.397500", "173414.597500", "173415.797500", "173416.997500", "173418.197500", "173419.397500", "173420.597500", "173421.797500", "173422.997500", "173424.197500", "173425.397500", "173426.597500", "173427.797500", "173428.997500", "173430.197500", "173431.397500", "173432.597500", "173433.797500", "173434.997500", "173436.197500", "173437.397500", "173438.597500", "173439.797500", "173440.997500", "173442.197500", "173443.397500", "173444.597500", "173445.797500", "173446.997500", "173448.197500", "173449.397500", "173450.597500", "173451.797500", "173452.997500", "173454.197500", "173455.397500", "173456.597500", "173457.797500", "173458.997500", "173500.197500", "173501.397500", "173502.597500", "173503.797500", "173504.997500", "173506.197500", "173507.397500", "173508.597500", "173509.797500", "173510.997500", "173512.197500", "173513.397500", "173514.597500", "173515.797500", "173516.997500", "173518.197500", "173519.397500", "173520.597500", "173521.797500", "173522.997500", "173524.197500", "173525.397500", "173526.597500", "173527.797500", "173528.997500", "173530.197500", "173531.397500", "173532.597500", "173533.797500", "173534.997500", "173536.197500", "173537.397500", "173538.597500", "173539.797500", "173540.997500", "173542.197500", "173543.397500", "173544.597500", "173545.797500", "173546.997500", "173548.197500", "173549.397500", "173550.597500", "173551.797500", "173552.997500", "173554.197500", "173555.397500", "173556.597500", "173557.797500", "173558.997500", "173600.197500", "173601.397500", "173602.597500", "173603.797500", "173604.997500", "173606.197500", "173607.397500", "173608.597500", "173609.797500", "173610.997500", "173612.197500", "173613.397500", "173614.597500", "173615.797500", "173616.997500", "173618.197500", "173619.397500", "173620.597500", "173621.797500", "173622.997500", "173624.197500", "173625.397500", "173626.597500", "173627.797500", "173628.997500", "173630.197500", "173631.397500", "173632.597500", "173633.797500", "173634.997500", "173636.197500", "173637.397500", "173638.597500", "173639.797500", "173640.997500", "173642.197500", "173643.397500", "173644.597500", "173645.797500", "173646.997500", "173648.197500", "173649.397500", "173650.597500", "173651.797500", "173652.997500", "173654.197500", "173655.397500", "173656.597500", "173657.797500", "173658.997500", "173700.197500", "173701.397500", "173702.597500", "173703.797500", "173704.997500", "173706.197500", "173707.397500", "173708.597500", "173709.797500", "173710.997500", "173712.197500", "173713.397500", "173714.597500", "173715.797500", "173716.997500", "173718.197500", "173719.397500", "173720.597500", "173721.797500", "173722.997500", "173724.197500", "173725.397500", "173726.597500", "173727.797500", "173728.997500", "173730.197500", "173731.397500", "173732.597500", "173733.797500", "173734.997500", "173736.197500", "173737.397500", "173738.597500", "173739.797500", "173740.997500", "173742.197500", "173743.397500", "173744.597500", "173745.797500", "173746.997500", "173748.197500", "173749.397500", "173750.597500", "173751.797500", "173752.997500", "173754.197500", "173755.397500", "173756.597500", "173757.797500", "173758.997500", "173800.197500", "173801.397500", "173802.597500", "173803.797500", "173804.997500", "173806.197500", "173807.397500", "173808.597500", "173809.797500", "173810.997500", "173812.197500", "173813.397500", "173814.597500", "173815.797500", "173816.997500", "173818.197500", "173819.397500", "173820.597500", "173821.797500", "173822.997500", "173824.197500", "173825.397500", "173826.597500", "173827.797500", "173828.997500", "173830.197500", "173831.397500", "173832.597500", "173833.797500", "173834.997500", "173836.197500", "173837.397500", "173838.597500", "173839.797500", "173840.997500", "173842.197500", "173843.397500", "173844.597500", "173845.797500", "173846.997500", "173848.197500", "173849.397500", "173850.597500", "173851.797500", "173852.997500", "173854.197500", "173855.397500", "173856.597500", "173857.797500", "173858.997500", "173900.197500", "173901.397500", "173902.597500", "173903.797500", "173904.997500", "173906.197500", "173907.397500", "173908.597500", "173909.797500", "173910.997500", "173912.197500", "173913.397500", "173914.597500", "173915.797500", "173916.997500", "173918.197500", "173919.397500", "173920.597500", "173921.797500", "173922.997500", "173924.197500", "173925.397500", "173926.597500", "173927.797500", "173928.997500", "173930.197500", "173931.397500", "173932.597500", "173933.797500", "173934.997500", "173936.197500", "173937.397500", "173938.597500", "173939.797500", "173940.997500", "173942.197500", "173943.397500", "173944.597500", "173945.797500", "173946.997500", "173948.197500", "173949.397500", "173950.597500", "173951.797500", "173952.997500", "173954.197500", "173955.397500", "173956.597500", "173957.797500", "173958.997500", "174000.197500", "174001.397500", "174002.597500", "174003.797500", "174004.997500", "174006.197500", "174007.397500", "174008.597500", "174009.797500", "174010.997500", "174012.197500"],
      "ContentTime": ["173303.229000", "173303.232000", "173303.235000", "173303.237000", "173303.240000", "173303.243000", "173303.245000", "173303.248000", "173303.250000", "173303.253000", "173303.261000", "173303.263000", "173303.266000", "173303.269000", "173303.271000", "173303.274000", "173303.276000", "173303.279000", "173303.281000", "173303.290000", "173303.293000", "173303.295000", "173303.298000", "173303.300000", "173303.303000", "173303.305000", "173303.308000", "173303.314000", "173303.316000", "173303.319000", "173303.321000", "173303.324000", "173303.327000", "173343.224000", "173343.227000", "173343.230000", "173343.232000", "173343.235000", "173343.238000", "173343.241000", "173343.256000", "173343.258000", "173343.261000", "173343.264000", "173343.266000", "173343.269000", "173343.271000", "173343.274000", "173343.276000", "173343.279000", "173343.282000", "173343.284000", "173343.287000", "173343.289000", "173343.292000", "173343.298000", "173343.301000", "173343.303000", "173343.306000", "173343.309000", "173343.311000", "173343.314000", "173343.316000", "173343.319000", "173343.322000", "173343.324000", "173423.224000", "173423.227000", "173423.230000", "173423.233000", "173423.248000", "173423.252000", "173423.254000", "173423.257000", "173423.259000", "173423.262000", "173423.265000", "173423.267000", "173423.288000", "173423.290000", "173423.293000", "173423.295000", "173423.298000", "173423.301000", "173423.303000", "173423.306000", "173423.308000", "173423.311000", "173423.314000", "173423.316000", "173423.319000", "173423.321000", "173423.324000", "173423.327000", "173423.329000", "173423.332000", "173423.334000", "173423.337000", "173423.346000", "173503.226000", "173503.228000", "173503.231000", "173503.234000", "173503.236000", "173503.239000", "173503.241000", "173503.244000", "173503.247000", "173503.249000", "173503.252000", "173503.254000", "173503.257000", "173503.260000", "173503.262000", "173503.265000", "173503.267000", "173503.270000", "173503.273000", "173503.275000", "173503.278000", "173503.280000", "173503.283000", "173503.286000", "173503.288000", "173503.291000", "173503.293000", "173503.296000", "173503.299000", "173503.301000", "173503.304000", "173503.307000", "173503.309000", "173503.317000", "173543.224000", "173543.227000", "173543.230000", "173543.233000", "173543.235000", "173543.239000", "173543.241000", "173543.244000", "173543.247000", "173543.249000", "173543.252000", "173543.254000", "173543.257000", "173543.260000", "173543.263000", "173543.266000", "173543.268000", "173543.271000", "173543.273000", "173543.276000", "173543.278000", "173543.281000", "173543.284000", "173543.286000", "173543.289000", "173543.292000", "173543.294000", "173543.297000", "173543.300000", "173543.302000", "173543.305000", "173543.307000", "173543.310000", "173623.225000", "173623.228000", "173623.231000", "173623.233000", "173623.236000", "173623.239000", "173623.241000", "173623.244000", "173623.247000", "173623.249000", "173623.252000", "173623.254000", "173623.257000", "173623.260000", "173623.262000", "173623.265000", "173623.268000", "173623.271000", "173623.273000", "173623.276000", "173623.278000", "173623.281000", "173623.284000", "173623.286000", "173623.289000", "173623.292000", "173623.294000", "173623.297000", "173623.299000", "173623.302000", "173623.305000", "173623.307000", "173623.310000", "173703.225000", "173703.229000", "173703.231000", "173703.234000", "173703.236000", "173703.239000", "173703.242000", "173703.244000", "173703.247000", "173703.249000", "173703.252000", "173703.255000", "173703.257000", "173703.260000", "173703.262000", "173703.265000", "173703.268000", "173703.270000", "173703.273000", "173703.275000", "173703.278000", "173703.281000", "173703.283000", "173703.286000", "173703.288000", "173703.291000", "173703.294000", "173703.296000", "173703.299000", "173703.301000", "173703.304000", "173703.307000", "173703.309000", "173703.312000", "173723.226000", "173723.229000", "173723.232000", "173723.234000", "173723.237000", "173723.239000", "173723.242000", "173723.245000", "173723.247000", "173723.250000", "173723.252000", "173723.255000", "173723.265000", "173723.268000", "173723.271000", "173723.273000", "173723.276000", "173803.225000", "173803.227000", "173803.230000", "173803.233000", "173803.236000", "173803.238000", "173803.241000", "173803.243000", "173803.246000", "173803.248000", "173803.251000", "173803.254000", "173803.256000", "173803.259000", "173803.262000", "173803.264000", "173803.267000", "173803.269000", "173803.272000", "173803.274000", "173803.277000", "173803.280000", "173803.282000", "173803.285000", "173803.287000", "173803.305000", "173803.308000", "173803.311000", "173803.313000", "173803.316000", "173803.319000", "173803.321000", "173803.324000", "173843.225000", "173843.227000", "173843.230000", "173843.233000", "173843.237000", "173843.239000", "173843.242000", "173843.245000", "173843.247000", "173843.250000", "173843.252000", "173843.255000", "173843.258000", "173843.260000", "173843.263000", "173843.266000", "173843.268000", "173843.271000", "173843.273000", "173843.276000", "173843.279000", "173843.281000", "173843.284000", "173843.287000", "173843.289000", "173843.292000", "173843.294000", "173843.297000", "173843.300000", "173843.302000", "173843.305000", "173843.308000", "173843.310000", "173923.225000", "173923.229000", "173923.231000", "173923.234000", "173923.237000", "173923.240000", "173923.242000", "173923.245000", "173923.248000", "173923.250000", "173923.253000", "173923.256000", "173923.258000", "173923.261000", "173923.263000", "173923.266000", "173923.269000", "173923.271000", "173923.274000", "173923.276000", "173923.279000", "173923.282000", "173923.284000", "173923.287000", "173923.289000", "173923.292000", "173923.295000", "173923.297000", "173923.300000", "173923.303000", "173923.305000", "173923.308000", "173923.310000", "174003.224000", "174003.227000", "174003.230000", "174003.233000", "174003.235000", "174003.238000", "174003.241000", "174003.244000", "174003.246000", "174003.249000", "174003.251000", "174003.254000", "174003.257000", "174003.259000", "174003.262000", "174003.264000", "174003.267000", "174003.269000", "174003.272000", "174003.274000", "174003.277000", "174003.280000", "174003.282000", "174003.285000", "174003.287000", "174003.290000", "174003.292000", "174003.295000", "174003.298000", "174003.300000", "174003.303000", "174003.305000", "174003.308000", "174003.311000", "174013.673000", "174013.676000", "174013.685000", "174013.688000", "174013.690000", "174013.693000", "174013.696000", "174013.698000", "174013.701000"],
      "InstanceCreationTime": ["173303.229000", "173303.232000", "173303.235000", "173303.237000", "173303.240000", "173303.243000", "173303.245000", "173303.248000", "173303.250000", "173303.253000", "173303.261000", "173303.263000", "173303.266000", "173303.269000", "173303.271000", "173303.274000", "173303.276000", "173303.279000", "173303.281000", "173303.290000", "173303.293000", "173303.295000", "173303.298000", "173303.300000", "173303.303000", "173303.305000", "173303.308000", "173303.314000", "173303.316000", "173303.319000", "173303.321000", "173303.324000", "173303.327000", "173343.224000", "173343.227000", "173343.230000", "173343.232000", "173343.235000", "173343.238000", "173343.241000", "173343.256000", "173343.258000", "173343.261000", "173343.264000", "173343.266000", "173343.269000", "173343.271000", "173343.274000", "173343.276000", "173343.279000", "173343.282000", "173343.284000", "173343.287000", "173343.289000", "173343.292000", "173343.298000", "173343.301000", "173343.303000", "173343.306000", "173343.309000", "173343.311000", "173343.314000", "173343.316000", "173343.319000", "173343.322000", "173343.324000", "173423.224000", "173423.227000", "173423.230000", "173423.233000", "173423.248000", "173423.252000", "173423.254000", "173423.257000", "173423.259000", "173423.262000", "173423.265000", "173423.267000", "173423.288000", "173423.290000", "173423.293000", "173423.295000", "173423.298000", "173423.301000", "173423.303000", "173423.306000", "173423.308000", "173423.311000", "173423.314000", "173423.316000", "173423.319000", "173423.321000", "173423.324000", "173423.327000", "173423.329000", "173423.332000", "173423.334000", "173423.337000", "173423.346000", "173503.226000", "173503.228000", "173503.231000", "173503.234000", "173503.236000", "173503.239000", "173503.241000", "173503.244000", "173503.247000", "173503.249000", "173503.252000", "173503.254000", "173503.257000", "173503.260000", "173503.262000", "173503.265000", "173503.267000", "173503.270000", "173503.273000", "173503.275000", "173503.278000", "173503.280000", "173503.283000", "173503.286000", "173503.288000", "173503.291000", "173503.293000", "173503.296000", "173503.299000", "173503.301000", "173503.304000", "173503.307000", "173503.309000", "173503.317000", "173543.224000", "173543.227000", "173543.230000", "173543.233000", "173543.235000", "173543.239000", "173543.241000", "173543.244000", "173543.247000", "173543.249000", "173543.252000", "173543.254000", "173543.257000", "173543.260000", "173543.263000", "173543.266000", "173543.268000", "173543.271000", "173543.273000", "173543.276000", "173543.278000", "173543.281000", "173543.284000", "173543.286000", "173543.289000", "173543.292000", "173543.294000", "173543.297000", "173543.300000", "173543.302000", "173543.305000", "173543.307000", "173543.310000", "173623.225000", "173623.228000", "173623.231000", "173623.233000", "173623.236000", "173623.239000", "173623.241000", "173623.244000", "173623.247000", "173623.249000", "173623.252000", "173623.254000", "173623.257000", "173623.260000", "173623.262000", "173623.265000", "173623.268000", "173623.271000", "173623.273000", "173623.276000", "173623.278000", "173623.281000", "173623.284000", "173623.286000", "173623.289000", "173623.292000", "173623.294000", "173623.297000", "173623.299000", "173623.302000", "173623.305000", "173623.307000", "173623.310000", "173703.225000", "173703.229000", "173703.231000", "173703.234000", "173703.236000", "173703.239000", "173703.242000", "173703.244000", "173703.247000", "173703.249000", "173703.252000", "173703.255000", "173703.257000", "173703.260000", "173703.262000", "173703.265000", "173703.268000", "173703.270000", "173703.273000", "173703.275000", "173703.278000", "173703.281000", "173703.283000", "173703.286000", "173703.288000", "173703.291000", "173703.294000", "173703.296000", "173703.299000", "173703.301000", "173703.304000", "173703.307000", "173703.309000", "173703.312000", "173723.226000", "173723.229000", "173723.232000", "173723.234000", "173723.237000", "173723.239000", "173723.242000", "173723.245000", "173723.247000", "173723.250000", "173723.252000", "173723.255000", "173723.265000", "173723.268000", "173723.271000", "173723.273000", "173723.276000", "173803.225000", "173803.227000", "173803.230000", "173803.233000", "173803.236000", "173803.238000", "173803.241000", "173803.243000", "173803.246000", "173803.248000", "173803.251000", "173803.254000", "173803.256000", "173803.259000", "173803.262000", "173803.264000", "173803.267000", "173803.269000", "173803.272000", "173803.274000", "173803.277000", "173803.280000", "173803.282000", "173803.285000", "173803.287000", "173803.305000", "173803.308000", "173803.311000", "173803.313000", "173803.316000", "173803.319000", "173803.321000", "173803.324000", "173843.225000", "173843.227000", "173843.230000", "173843.233000", "173843.237000", "173843.239000", "173843.242000", "173843.245000", "173843.247000", "173843.250000", "173843.252000", "173843.255000", "173843.258000", "173843.260000", "173843.263000", "173843.266000", "173843.268000", "173843.271000", "173843.273000", "173843.276000", "173843.279000", "173843.281000", "173843.284000", "173843.287000", "173843.289000", "173843.292000", "173843.294000", "173843.297000", "173843.300000", "173843.302000", "173843.305000", "173843.308000", "173843.310000", "173923.225000", "173923.229000", "173923.231000", "173923.234000", "173923.237000", "173923.240000", "173923.242000", "173923.245000", "173923.248000", "173923.250000", "173923.253000", "173923.256000", "173923.258000", "173923.261000", "173923.263000", "173923.266000", "173923.269000", "173923.271000", "173923.274000", "173923.276000", "173923.279000", "173923.282000", "173923.284000", "173923.287000", "173923.289000", "173923.292000", "173923.295000", "173923.297000", "173923.300000", "173923.303000", "173923.305000", "173923.308000", "173923.310000", "174003.224000", "174003.227000", "174003.230000", "174003.233000", "174003.235000", "174003.238000", "174003.241000", "174003.244000", "174003.246000", "174003.249000", "174003.251000", "174003.254000", "174003.257000", "174003.259000", "174003.262000", "174003.264000", "174003.267000", "174003.269000", "174003.272000", "174003.274000", "174003.277000", "174003.280000", "174003.282000", "174003.285000", "174003.287000", "174003.290000", "174003.292000", "174003.295000", "174003.298000", "174003.300000", "174003.303000", "174003.305000", "174003.308000", "174003.311000", "174013.673000", "174013.676000", "174013.685000", "174013.688000", "174013.690000", "174013.693000", "174013.696000", "174013.698000", "174013.701000"],
      "InstanceNumber": [1, 2, 3, 4, 5, 6, 7, 8, 9, 10, 11, 12, 13, 14, 15, 16, 17, 18, 19, 20, 21, 22, 23, 24, 25, 26, 27, 28, 29, 30, 31, 32, 33, 34, 35, 36, 37, 38, 39, 40, 41, 42, 43, 44, 45, 46, 47, 48, 49, 50, 51, 52, 53, 54, 55, 56, 57, 58, 59, 60, 61, 62, 63, 64, 65, 66, 67, 68, 69, 70, 71, 72, 73, 74, 75, 76, 77, 78, 79, 80, 81, 82, 83, 84, 85, 86, 87, 88, 89, 90, 91, 92, 93, 94, 95, 96, 97, 98, 99, 100, 101, 102, 103, 104, 105, 106, 107, 108, 109, 110, 111, 112, 113, 114, 115, 116, 117, 118, 119, 120, 121, 122, 123, 124, 125, 126, 127, 128, 129, 130, 131, 132, 133, 134, 135, 136, 137, 138, 139, 140, 141, 142, 143, 144, 145, 146, 147, 148, 149, 150, 151, 152, 153, 154, 155, 156, 157, 158, 159, 160, 161, 162, 163, 164, 165, 166, 167, 168, 169, 170, 171, 172, 173, 174, 175, 176, 177, 178, 179, 180, 181, 182, 183, 184, 185, 186, 187, 188, 189, 190, 191, 192, 193, 194, 195, 196, 197, 198, 199, 200, 201, 202, 203, 204, 205, 206, 207, 208, 209, 210, 211, 212, 213, 214, 215, 216, 217, 218, 219, 220, 221, 222, 223, 224, 225, 226, 227, 228, 229, 230, 231, 232, 233, 234, 235, 236, 237, 238, 239, 240, 241, 242, 243, 244, 245, 246, 247, 248, 249, 250, 251, 252, 253, 254, 255, 256, 257, 258, 259, 260, 261, 262, 263, 264, 265, 266, 267, 268, 269, 270, 271, 272, 273, 274, 275, 276, 277, 278, 279, 280, 281, 282, 283, 284, 285, 286, 287, 288, 289, 290, 291, 292, 293, 294, 295, 296, 297, 298, 299, 300, 301, 302, 303, 304, 305, 306, 307, 308, 309, 310, 311, 312, 313, 314, 315, 316, 317, 318, 319, 320, 321, 322, 323, 324, 325, 326, 327, 328, 329, 330, 331, 332, 333, 334, 335, 336, 337, 338, 339, 340, 341, 342, 343, 344, 345, 346, 347, 348, 349, 350, 351, 352, 353, 354, 355, 356, 357, 358, 359, 360, 361, 362, 363, 364, 365, 366, 367, 368, 369, 370, 371, 372, 373, 374, 375, 376, 377, 378, 379, 380, 381, 382, 383, 384, 385, 386, 387, 388, 389, 390, 391, 392],
