{
  "AcquisitionMatrixPE": 88,
  "AcquisitionNumber": 1,
  "AcquisitionTime": "17:17:20.047500",
  "BandwidthPerPixelPhaseEncode": 19.592,
  "BaseResolution": 88,
  "BodyPartExamined": "BRAIN",
  "ConsistencyInfo": "N4_VE11C_LATEST_20160120",
  "ConversionSoftware": "dcm2niix",
  "ConversionSoftwareVersion": "v1.0.20190902",
  "DerivedVendorReportedEchoSpacing": 0.000580014,
  "DeviceSerialNumber": "67050",
  "DwellTime": 2.6e-06,
  "EchoTime": 0.033,
  "EchoTrainLength": 88,
  "EffectiveEchoSpacing": 0.000580014,
  "FlipAngle": 62,
  "ImageOrientationPatientDICOM": [0.99735, 0.0725488, -0.00548851, -0.0727158, 0.996469, -0.041984],
  "ImageType": [
    "ORIGINAL",
    "PRIMARY",
    "M",
    "ND",
    "MOSAIC"
],
  "ImagingFrequency": 123.25,
  "InPlanePhaseEncodingDirectionDICOM": "COL",
  "InstitutionAddress": "Olive_Street_60_Providence_RI_US_02912",
  "InstitutionName": "BROWN_UNIVERSITY_MRF",
  "InstitutionalDepartmentName": "Department",
  "MRAcquisitionType": "2D",
  "MagneticFieldStrength": 3,
  "Manufacturer": "Siemens",
  "ManufacturersModelName": "Prisma_fit",
  "Modality": "MR",
  "MultibandAccelerationFactor": 4,
  "PartialFourier": 1,
  "PatientPosition": "HFS",
  "PercentPhaseFOV": 100,
  "PhaseEncodingDirection": "j-",
  "PhaseEncodingSteps": 88,
  "PhaseResolution": 1,
  "PixelBandwidth": 2185,
  "ProcedureStepDescription": "ASHENHAV_1222",
  "ProtocolName": "func-bold_task-RDMmotion_run-02",
  "PulseSequenceDetails": "%SiemensSeq%_ep2d_bold",
  "ReceiveCoilActiveElements": "HC1-7",
  "ReceiveCoilName": "HeadNeck_64",
  "ReconMatrixPE": 88,
  "RefLinesPE": 8,
  "RepetitionTime": 1.2,
  "SAR": 0.0594997,
  "ScanOptions": "FS",
  "ScanningSequence": "EP",
  "SequenceName": "_epfid2d1_88",
  "SequenceVariant": "SK",
  "SeriesDescription": "func-bold_task-RDMmotion_run-02",
  "SeriesNumber": 9,
  "ShimSetting": [1752, -9088, 4419, 342, -17, -59, -45, 0],
  "SliceThickness": 2.4,
  "SliceTiming": [0.5525, 0, 0.63, 0.08, 0.71, 0.1575, 0.7875, 0.2375, 0.8675, 0.315, 0.945, 0.395, 1.0225, 0.4725, 1.1025, 0.5525, 0, 0.63, 0.08, 0.71, 0.1575, 0.7875, 0.2375, 0.8675, 0.315, 0.945, 0.395, 1.0225, 0.4725, 1.1025, 0.5525, 0, 0.63, 0.08, 0.71, 0.1575, 0.7875, 0.2375, 0.8675, 0.315, 0.945, 0.395, 1.0225, 0.4725, 1.1025, 0.5525, 0, 0.63, 0.08, 0.71, 0.1575, 0.7875, 0.2375, 0.8675, 0.315, 0.945, 0.395, 1.0225, 0.4725, 1.1025],
  "SoftwareVersions": "syngo_MR_E11",
  "SpacingBetweenSlices": 2.4,
  "StationName": "AWP67050",
  "TaskName": "RDMmotion",
  "TotalReadoutTime": 0.0504612,
  "TxRefAmp": 234.758,
  "dcmmeta_affine": [
    [-2.3913726806640625, -0.17435261607170105, -0.005815757438540459, 115.19979095458984],
    [-0.17395231127738953, 2.3892600536346436, -0.10145245492458344, -85.26564025878906],
    [-0.013159940019249916, 0.10066623985767365, 2.3978476524353027, -58.80396270751953],
    [0.0, 0.0, 0.0, 1.0]
],
  "dcmmeta_reorient_transform": [
    [0.0, -1.0, 0.0, 87.0],
    [1.0, 0.0, 0.0, 0.0],
    [0.0, 0.0, 1.0, 0.0],
    [0.0, 0.0, 0.0, 1.0]
],
  "dcmmeta_shape": [88, 88, 60, 125],
  "dcmmeta_slice_dim": 2,
  "dcmmeta_version": 0.6,
  "global": {
    "const": {
      "AcquisitionMatrix": [88, 0, 0, 88],
      "AngioFlag": "N",
      "BitsAllocated": 16,
      "BitsStored": 12,
      "BodyPartExamined": "BRAIN",
      "Columns": 704,
      "DeidentificationMethodCodeSequence": [
        {
          "CodeMeaning": "XNAT DicomEdit 6 Script",
          "CodeValue": "3",
          "CodingSchemeDesignator": "XNAT",
          "CodingSchemeVersion": "1.0"}
],
      "EchoNumbers": 1,
      "EchoTime": 33.0,
      "EchoTrainLength": 88,
      "FlipAngle": 62.0,
      "HighBit": 11,
      "ImageOrientationPatient": [0.99734975969822, 0.07254883274229, -0.0054885059573, -0.0727157807882, 0.99646864326278, -0.0419840233707],
      "ImagePositionPatient": [-782.87330133211, -912.06938230124, -14.987537415944],
      "ImageType": [
        "ORIGINAL",
        "PRIMARY",
        "M",
        "ND",
        "MOSAIC"
],
      "ImagedNucleus": "1H",
      "ImagingFrequency": 123.249974,
      "InPlanePhaseEncodingDirection": "COL",
      "MRAcquisitionType": "2D",
      "MagneticFieldStrength": 3.0,
      "Manufacturer": "SIEMENS",
      "ManufacturerModelName": "Prisma_fit",
      "Modality": "MR",
      "NumberOfAverages": 1.0,
      "NumberOfPhaseEncodingSteps": 88,
      "PercentPhaseFieldOfView": 100.0,
      "PercentSampling": 100.0,
      "PerformedProcedureStepStartTime": "164442.180000",
      "PhotometricInterpretation": "MONOCHROME2",
      "PixelBandwidth": 2185.0,
      "PixelRepresentation": 0,
      "PixelSpacing": [2.3977272510529, 2.3977272510529],
      "ProtocolName": "func-bold_task-RDMmotion_run-02",
      "RepetitionTime": 1200.0,
      "Rows": 704,
      "SAR": 0.05949972610368,
      "SamplesPerPixel": 1,
      "ScanOptions": "FS",
      "ScanningSequence": "EP",
      "SequenceName": "*epfid2d1_88",
      "SequenceVariant": "SK",
      "SeriesDescription": "func-bold_task-RDMmotion_run-02",
      "SeriesNumber": 9,
      "SeriesTime": "171723.240000",
      "SliceLocation": -55.426046637402,
      "SliceThickness": 2.4000000953674,
      "SmallestImagePixelValue": 0,
      "SoftwareVersions": "syngo MR E11",
      "SpacingBetweenSlices": 2.4000000123726,
      "SpecificCharacterSet": "ISO_IR 100",
      "StudyID": "1",
      "StudyTime": "164442.108000",
      "TransmitCoilName": "Body",
      "VariableFlipAngleFlag": "N",
      "WindowCenterWidthExplanation": "Algo1",
      "dBdt": 0.0},
    "slices": {}
  },
  "time": {
    "samples": {
      "AcquisitionNumber": [1, 2, 3, 4, 5, 6, 7, 8, 9, 10, 11, 12, 13, 14, 15, 16, 17, 18, 19, 20, 21, 22, 23, 24, 25, 26, 27, 28, 29, 30, 31, 32, 33, 34, 35, 36, 37, 38, 39, 40, 41, 42, 43, 44, 45, 46, 47, 48, 49, 50, 51, 52, 53, 54, 55, 56, 57, 58, 59, 60, 61, 62, 63, 64, 65, 66, 67, 68, 69, 70, 71, 72, 73, 74, 75, 76, 77, 78, 79, 80, 81, 82, 83, 84, 85, 86, 87, 88, 89, 90, 91, 92, 93, 94, 95, 96, 97, 98, 99, 100, 101, 102, 103, 104, 105, 106, 107, 108, 109, 110, 111, 112, 113, 114, 115, 116, 117, 118, 119, 120, 121, 122, 123, 124, 125],
      "AcquisitionTime": ["171720.047500", "171721.247500", "171722.447500", "171723.647500", "171724.847500", "171726.047500", "171727.247500", "171728.447500", "171729.647500", "171730.847500", "171732.047500", "171733.247500", "171734.447500", "171735.647500", "171736.847500", "171738.047500", "171739.247500", "171740.447500", "171741.647500", "171742.847500", "171744.047500", "171745.247500", "171746.447500", "171747.647500", "171748.847500", "171750.047500", "171751.247500", "171752.447500", "171753.647500", "171754.847500", "171756.047500", "171757.247500", "171758.447500", "171759.647500", "171800.847500", "171802.047500", "171803.247500", "171804.447500", "171805.647500", "171806.847500", "171808.047500", "171809.247500", "171810.447500", "171811.647500", "171812.847500", "171814.047500", "171815.247500", "171816.447500", "171817.647500", "171818.847500", "171820.047500", "171821.247500", "171822.447500", "171823.647500", "171824.847500", "171826.047500", "171827.247500", "171828.447500", "171829.647500", "171830.847500", "171832.047500", "171833.247500", "171834.447500", "171835.647500", "171836.847500", "171838.047500", "171839.247500", "171840.447500", "171841.647500", "171842.847500", "171844.047500", "171845.247500", "171846.447500", "171847.647500", "171848.847500", "171850.047500", "171851.247500", "171852.447500", "171853.647500", "171854.847500", "171856.047500", "171857.247500", "171858.447500", "171859.647500", "171900.847500", "171902.047500", "171903.247500", "171904.447500", "171905.647500", "171906.847500", "171908.047500", "171909.247500", "171910.447500", "171911.647500", "171912.847500", "171914.047500", "171915.247500", "171916.447500", "171917.647500", "171918.847500", "171920.047500", "171921.247500", "171922.447500", "171923.647500", "171924.847500", "171926.047500", "171927.247500", "171928.447500", "171929.647500", "171930.847500", "171932.047500", "171933.247500", "171934.447500", "171935.647500", "171936.847500", "171938.047500", "171939.247500", "171940.447500", "171941.647500", "171942.847500", "171944.047500", "171945.247500", "171946.447500", "171947.647500", "171948.847500"],
      "ContentTime": ["171723.244000", "171723.247000", "171803.225000", "171803.227000", "171803.230000", "171803.233000", "171803.235000", "171803.238000", "171803.240000", "171803.243000", "171803.246000", "171803.248000", "171803.251000", "171803.253000", "171803.261000", "171803.264000", "171803.266000", "171803.269000", "171803.272000", "171803.274000", "171803.277000", "171803.280000", "171803.282000", "171803.285000", "171803.295000", "171803.297000", "171803.300000", "171803.302000", "171803.305000", "171803.308000", "171803.310000", "171803.313000", "171803.315000", "171803.318000", "171803.320000", "171803.323000", "171843.225000", "171843.228000", "171843.231000", "171843.233000", "171843.236000", "171843.239000", "171843.241000", "171843.244000", "171843.246000", "171843.249000", "171843.251000", "171843.254000", "171843.256000", "171843.259000", "171843.261000", "171843.264000", "171843.267000", "171843.269000", "171843.279000", "171843.282000", "171843.285000", "171843.287000", "171843.290000", "171843.292000", "171843.295000", "171843.297000", "171843.300000", "171843.303000", "171843.305000", "171843.308000", "171843.310000", "171843.313000", "171843.316000", "171923.225000", "171923.227000", "171923.230000", "171923.232000", "171923.235000", "171923.238000", "171923.240000", "171923.243000", "171923.246000", "171923.248000", "171923.251000", "171923.254000", "171923.256000", "171923.259000", "171923.261000", "171923.264000", "171923.267000", "171923.269000", "171923.272000", "171923.274000", "171923.277000", "171923.280000", "171923.282000", "171923.285000", "171923.288000", "171923.290000", "171923.293000", "171923.295000", "171923.298000", "171923.301000", "171923.303000", "171923.306000", "171923.308000", "171949.962000", "171949.965000", "171949.968000", "171949.970000", "171949.973000", "171949.976000", "171949.978000", "171949.981000", "171949.983000", "171949.986000", "171949.989000", "171949.991000", "171949.994000", "171949.997000", "171950.000000", "171950.003000", "171950.005000", "171950.008000", "171950.011000", "171950.013000", "171950.024000", "171950.026000", "171950.029000"],
      "InstanceCreationTime": ["171723.244000", "171723.247000", "171803.225000", "171803.227000", "171803.230000", "171803.233000", "171803.235000", "171803.238000", "171803.240000", "171803.243000", "171803.246000", "171803.248000", "171803.251000", "171803.253000", "171803.261000", "171803.264000", "171803.266000", "171803.269000", "171803.272000", "171803.274000", "171803.277000", "171803.280000", "171803.282000", "171803.285000", "171803.295000", "171803.297000", "171803.300000", "171803.302000", "171803.305000", "171803.308000", "171803.310000", "171803.313000", "171803.315000", "171803.318000", "171803.320000", "171803.323000", "171843.225000", "171843.228000", "171843.231000", "171843.233000", "171843.236000", "171843.239000", "171843.241000", "171843.244000", "171843.246000", "171843.249000", "171843.251000", "171843.254000", "171843.256000", "171843.259000", "171843.261000", "171843.264000", "171843.267000", "171843.269000", "171843.279000", "171843.282000", "171843.285000", "171843.287000", "171843.290000", "171843.292000", "171843.295000", "171843.297000", "171843.300000", "171843.303000", "171843.305000", "171843.308000", "171843.310000", "171843.313000", "171843.316000", "171923.225000", "171923.227000", "171923.230000", "171923.232000", "171923.235000", "171923.238000", "171923.240000", "171923.243000", "171923.246000", "171923.248000", "171923.251000", "171923.254000", "171923.256000", "171923.259000", "171923.261000", "171923.264000", "171923.267000", "171923.269000", "171923.272000", "171923.274000", "171923.277000", "171923.280000", "171923.282000", "171923.285000", "171923.288000", "171923.290000", "171923.293000", "171923.295000", "171923.298000", "171923.301000", "171923.303000", "171923.306000", "171923.308000", "171949.962000", "171949.965000", "171949.968000", "171949.970000", "171949.973000", "171949.976000", "171949.978000", "171949.981000", "171949.983000", "171949.986000", "171949.989000", "171949.991000", "171949.994000", "171949.997000", "171950.000000", "171950.003000", "171950.005000", "171950.008000", "171950.011000", "171950.013000", "171950.024000", "171950.026000", "171950.029000"],
      "InstanceNumber": [1, 2, 3, 4, 5, 6, 7, 8, 9, 10, 11, 12, 13, 14, 15, 16, 17, 18, 19, 20, 21, 22, 23, 24, 25, 26, 27, 28, 29, 30, 31, 32, 33, 34, 35, 36, 37, 38, 39, 40, 41, 42, 43, 44, 45, 46, 47, 48, 49, 50, 51, 52, 53, 54, 55, 56, 57, 58, 59, 60, 61, 62, 63, 64, 65, 66, 67, 68, 69, 70, 71, 72, 73, 74, 75, 76, 77, 78, 79, 80, 81, 82, 83, 84, 85, 86, 87, 88, 89, 90, 91, 92, 93, 94, 95, 96, 97, 98, 99, 100, 101, 102, 103, 104, 105, 106, 107, 108, 109, 110, 111, 112, 113, 114, 115, 116, 117, 118, 119, 120, 121, 122, 123, 124, 125],
      "LargestImagePixelValue": [2143, 2074, 2023, 1998, 2047, 2035, 2052, 2022, 2025, 2029, 2029, 2034, 2021, 2022, 2021, 2015, 2045, 2037, 2031, 2016, 2044, 2033, 2037, 2012, 1997, 1969, 2020, 2017, 2010, 1998, 1983, 1991, 2003, 1994, 2021, 2006, 1995, 1986, 1983, 1973, 1977, 1952, 1982, 1969, 1966, 1975, 1963, 1946, 1969, 1974, 2002, 1972, 1971, 1989, 2006, 1991, 1965, 1972, 1965, 1977, 1936, 1972, 1995, 1989, 1983, 1975, 1997, 1964, 1970, 1993, 1982, 2001, 1993, 2002, 1953, 1956, 1948, 1986, 1988, 1985, 2009, 1999, 1997, 1963, 1975, 1972, 1930, 2002, 1988, 1972, 2015, 1993, 2020, 1997, 1988, 1982, 1950, 1969, 1967, 1934, 1968, 1979, 1982, 1963, 2001, 1982, 1989, 1933, 1984, 2006, 1979, 1974, 1938, 1953, 1983, 1971, 1956, 1994, 1969, 1952, 1983, 1996, 1977, 1987, 1967],
      "WindowCenter": [598.0, 595.0, 593.0, 591.0, 591.0, 591.0, 592.0, 591.0, 591.0, 591.0, 590.0, 590.0, 589.0, 589.0, 590.0, 590.0, 590.0, 590.0, 590.0, 590.0, 591.0, 591.0, 591.0, 591.0, 590.0, 589.0, 590.0, 590.0, 591.0, 591.0, 590.0, 589.0, 589.0, 590.0, 590.0, 590.0, 591.0, 590.0, 589.0, 589.0, 589.0, 589.0, 590.0, 590.0, 590.0, 590.0, 588.0, 588.0, 588.0, 589.0, 589.0, 589.0, 590.0, 590.0, 592.0, 592.0, 590.0, 589.0, 588.0, 588.0, 588.0, 588.0, 589.0, 590.0, 591.0, 591.0, 591.0, 589.0, 588.0, 588.0, 588.0, 590.0, 591.0, 591.0, 591.0, 590.0, 589.0, 590.0, 590.0, 591.0, 592.0, 591.0, 591.0, 589.0, 589.0, 589.0, 588.0, 589.0, 589.0, 589.0, 590.0, 590.0, 590.0, 590.0, 590.0, 590.0, 589.0, 589.0, 590.0, 590.0, 590.0, 590.0, 590.0, 589.0, 589.0, 589.0, 589.0, 588.0, 589.0, 590.0, 589.0, 589.0, 589.0, 589.0, 589.0, 589.0, 589.0, 590.0, 588.0, 589.0, 591.0, 593.0, 592.0, 591.0, 590.0],
      "WindowWidth": [1270.0, 1263.0, 1258.0, 1254.0, 1254.0, 1253.0, 1255.0, 1254.0, 1256.0, 1255.0, 1252.0, 1251.0, 1251.0, 1250.0, 1252.0, 1252.0, 1253.0, 1252.0, 1252.0, 1252.0, 1253.0, 1254.0, 1254.0, 1253.0, 1252.0, 1250.0, 1251.0, 1252.0, 1253.0, 1253.0, 1251.0, 1250.0, 1250.0, 1251.0, 1253.0, 1253.0, 1254.0, 1252.0, 1250.0, 1250.0, 1250.0, 1250.0, 1251.0, 1253.0, 1253.0, 1251.0, 1248.0, 1248.0, 1249.0, 1250.0, 1250.0, 1250.0, 1252.0, 1253.0, 1257.0, 1257.0, 1252.0, 1250.0, 1248.0, 1249.0, 1248.0, 1249.0, 1251.0, 1253.0, 1254.0, 1254.0, 1254.0, 1250.0, 1248.0, 1247.0, 1248.0, 1252.0, 1255.0, 1256.0, 1254.0, 1252.0, 1251.0, 1252.0, 1253.0, 1255.0, 1256.0, 1255.0, 1254.0, 1251.0, 1250.0, 1250.0, 1249.0, 1251.0, 1250.0, 1250.0, 1251.0, 1252.0, 1253.0, 1251.0, 1251.0, 1251.0, 1249.0, 1250.0, 1252.0, 1253.0, 1253.0, 1252.0, 1252.0, 1250.0, 1250.0, 1249.0, 1249.0, 1248.0, 1250.0, 1251.0, 1251.0, 1251.0, 1249.0, 1249.0, 1250.0, 1251.0, 1251.0, 1251.0, 1249.0, 1251.0, 1255.0, 1259.0, 1258.0, 1254.0, 1252.0]
    },
    "slices": {}
  }
}