{
  "AcquisitionMatrixPE": 88,
  "AcquisitionNumber": 1,
  "AcquisitionTime": "19:58:14.902500",
  "BandwidthPerPixelPhaseEncode": 19.592,
  "BaseResolution": 88,
  "BodyPartExamined": "BRAIN",
  "ConsistencyInfo": "N4_VE11C_LATEST_20160120",
  "ConversionSoftware": "dcm2niix",
  "ConversionSoftwareVersion": "v1.0.20190902",
  "DerivedVendorReportedEchoSpacing": 0.000580014,
  "DeviceSerialNumber": "67050",
  "DwellTime": 2.6e-06,
  "EchoTime": 0.033,
  "EchoTrainLength": 88,
  "EffectiveEchoSpacing": 0.000580014,
  "FlipAngle": 62,
  "ImageOrientationPatientDICOM": [0.998014, 0.0384476, -0.0498984, -0.0433997, 0.993808, -0.102289],
  "ImageType": [
    "ORIGINAL",
    "PRIMARY",
    "M",
    "ND",
    "MOSAIC"
],
  "ImagingFrequency": 123.251,
  "InPlanePhaseEncodingDirectionDICOM": "COL",
  "InstitutionAddress": "Olive_Street_60_Providence_RI_US_02912",
  "InstitutionName": "BROWN_UNIVERSITY_MRF",
  "InstitutionalDepartmentName": "Department",
  "MRAcquisitionType": "2D",
  "MagneticFieldStrength": 3,
  "Manufacturer": "Siemens",
  "ManufacturersModelName": "Prisma_fit",
  "Modality": "MR",
  "MultibandAccelerationFactor": 4,
  "PartialFourier": 1,
  "PatientPosition": "HFS",
  "PercentPhaseFOV": 100,
  "PhaseEncodingDirection": "j-",
  "PhaseEncodingSteps": 88,
  "PhaseResolution": 1,
  "PixelBandwidth": 2185,
  "ProcedureStepDescription": "ASHENHAV_1222",
  "ProtocolName": "func-bold_task-RDMcolor_run-05",
  "PulseSequenceDetails": "%SiemensSeq%_ep2d_bold",
  "ReceiveCoilActiveElements": "HC1-7",
  "ReceiveCoilName": "HeadNeck_64",
  "ReconMatrixPE": 88,
  "RefLinesPE": 8,
  "RepetitionTime": 1.2,
  "SAR": 0.0525599,
  "ScanOptions": "FS",
  "ScanningSequence": "EP",
  "SequenceName": "_epfid2d1_88",
  "SequenceVariant": "SK",
  "SeriesDescription": "func-bold_task-RDMcolor_run-05",
  "SeriesNumber": 16,
  "ShimSetting": [1741, -9068, 4403, 269, -89, -72, 6, -9],
  "SliceThickness": 2.4,
  "SliceTiming": [0.55, 0, 0.63, 0.08, 0.7075, 0.1575, 0.7875, 0.235, 0.865, 0.315, 0.945, 0.3925, 1.0225, 0.4725, 1.1025, 0.55, 0, 0.63, 0.08, 0.7075, 0.1575, 0.7875, 0.235, 0.865, 0.315, 0.945, 0.3925, 1.0225, 0.4725, 1.1025, 0.55, 0, 0.63, 0.08, 0.7075, 0.1575, 0.7875, 0.235, 0.865, 0.315, 0.945, 0.3925, 1.0225, 0.4725, 1.1025, 0.55, 0, 0.63, 0.08, 0.7075, 0.1575, 0.7875, 0.235, 0.865, 0.315, 0.945, 0.3925, 1.0225, 0.4725, 1.1025],
  "SoftwareVersions": "syngo_MR_E11",
  "SpacingBetweenSlices": 2.4,
  "StationName": "AWP67050",
  "TaskName": "RDMcolor",
  "TotalReadoutTime": 0.0504612,
  "TxRefAmp": 217.047,
  "dcmmeta_affine": [
    [-2.392965316772461, -0.10406072437763214, -0.10957609117031097, 114.28421783447266],
    [-0.09218680113554001, 2.3828794956207275, -0.2502027750015259, -94.86282348632812],
    [-0.11964287608861923, 0.24526047706604004, 2.3844058513641357, -50.089759826660156],
    [0.0, 0.0, 0.0, 1.0]
],
  "dcmmeta_reorient_transform": [
    [0.0, -1.0, 0.0, 87.0],
    [1.0, 0.0, 0.0, 0.0],
    [0.0, 0.0, 1.0, 0.0],
    [0.0, 0.0, 0.0, 1.0]
],
  "dcmmeta_shape": [88, 88, 60, 392],
  "dcmmeta_slice_dim": 2,
  "dcmmeta_version": 0.6,
  "global": {
    "const": {
      "AcquisitionMatrix": [88, 0, 0, 88],
      "AngioFlag": "N",
      "BitsAllocated": 16,
      "BitsStored": 12,
      "BodyPartExamined": "BRAIN",
      "Columns": 704,
      "DeidentificationMethodCodeSequence": [
        {
          "CodeMeaning": "XNAT DicomEdit 6 Script",
          "CodeValue": "3",
          "CodingSchemeDesignator": "XNAT",
          "CodingSchemeVersion": "1.0"}
],
      "EchoNumbers": 1,
      "EchoTime": 33.0,
      "EchoTrainLength": 88,
      "FlipAngle": 62.0,
      "HighBit": 11,
      "ImageOrientationPatient": [0.9980139920881, 0.03844757699521, -0.0498984510739, -0.0433997342538, 0.99380756643847, -0.1022887283934],
      "ImagePositionPatient": [-810.21355608212, -874.76810938379, 83.638132239951],
      "ImageType": [
        "ORIGINAL",
        "PRIMARY",
        "M",
        "ND",
        "MOSAIC"
],
      "ImagedNucleus": "1H",
      "ImagingFrequency": 123.250737,
      "InPlanePhaseEncodingDirection": "COL",
      "MRAcquisitionType": "2D",
      "MagneticFieldStrength": 3.0,
      "Manufacturer": "SIEMENS",
      "ManufacturerModelName": "Prisma_fit",
      "Modality": "MR",
      "NumberOfAverages": 1.0,
      "NumberOfPhaseEncodingSteps": 88,
      "PercentPhaseFieldOfView": 100.0,
      "PercentSampling": 100.0,
      "PerformedProcedureStepStartTime": "184918.066000",
      "PhotometricInterpretation": "MONOCHROME2",
      "PixelBandwidth": 2185.0,
      "PixelRepresentation": 0,
      "PixelSpacing": [2.3977272510529, 2.3977272510529],
      "ProtocolName": "func-bold_task-RDMcolor_run-05",
      "RepetitionTime": 1200.0,
      "Rows": 704,
      "SAR": 0.05255989591746,
      "SamplesPerPixel": 1,
      "ScanOptions": "FS",
      "ScanningSequence": "EP",
      "SequenceName": "*epfid2d1_88",
      "SequenceVariant": "SK",
      "SeriesDescription": "func-bold_task-RDMcolor_run-05",
      "SeriesNumber": 16,
      "SeriesTime": "195848.520000",
      "SliceLocation": -45.092581415279,
      "SliceThickness": 2.4000000953674,
      "SmallestImagePixelValue": 0,
      "SoftwareVersions": "syngo MR E11",
      "SpacingBetweenSlices": 2.3999999476495,
      "SpecificCharacterSet": "ISO_IR 100",
      "StudyID": "1",
      "StudyTime": "184917.972000",
      "TransmitCoilName": "Body",
      "VariableFlipAngleFlag": "N",
      "WindowCenterWidthExplanation": "Algo1",
      "dBdt": 0.0},
    "slices": {}
  },
  "time": {
    "samples": {
      "AcquisitionNumber": [1, 2, 3, 4, 5, 6, 7, 8, 9, 10, 11, 12, 13, 14, 15, 16, 17, 18, 19, 20, 21, 22, 23, 24, 25, 26, 27, 28, 29, 30, 31, 32, 33, 34, 35, 36, 37, 38, 39, 40, 41, 42, 43, 44, 45, 46, 47, 48, 49, 50, 51, 52, 53, 54, 55, 56, 57, 58, 59, 60, 61, 62, 63, 64, 65, 66, 67, 68, 69, 70, 71, 72, 73, 74, 75, 76, 77, 78, 79, 80, 81, 82, 83, 84, 85, 86, 87, 88, 89, 90, 91, 92, 93, 94, 95, 96, 97, 98, 99, 100, 101, 102, 103, 104, 105, 106, 107, 108, 109, 110, 111, 112, 113, 114, 115, 116, 117, 118, 119, 120, 121, 122, 123, 124, 125, 126, 127, 128, 129, 130, 131, 132, 133, 134, 135, 136, 137, 138, 139, 140, 141, 142, 143, 144, 145, 146, 147, 148, 149, 150, 151, 152, 153, 154, 155, 156, 157, 158, 159, 160, 161, 162, 163, 164, 165, 166, 167, 168, 169, 170, 171, 172, 173, 174, 175, 176, 177, 178, 179, 180, 181, 182, 183, 184, 185, 186, 187, 188, 189, 190, 191, 192, 193, 194, 195, 196, 197, 198, 199, 200, 201, 202, 203, 204, 205, 206, 207, 208, 209, 210, 211, 212, 213, 214, 215, 216, 217, 218, 219, 220, 221, 222, 223, 224, 225, 226, 227, 228, 229, 230, 231, 232, 233, 234, 235, 236, 237, 238, 239, 240, 241, 242, 243, 244, 245, 246, 247, 248, 249, 250, 251, 252, 253, 254, 255, 256, 257, 258, 259, 260, 261, 262, 263, 264, 265, 266, 267, 268, 269, 270, 271, 272, 273, 274, 275, 276, 277, 278, 279, 280, 281, 282, 283, 284, 285, 286, 287, 288, 289, 290, 291, 292, 293, 294, 295, 296, 297, 298, 299, 300, 301, 302, 303, 304, 305, 306, 307, 308, 309, 310, 311, 312, 313, 314, 315, 316, 317, 318, 319, 320, 321, 322, 323, 324, 325, 326, 327, 328, 329, 330, 331, 332, 333, 334, 335, 336, 337, 338, 339, 340, 341, 342, 343, 344, 345, 346, 347, 348, 349, 350, 351, 352, 353, 354, 355, 356, 357, 358, 359, 360, 361, 362, 363, 364, 365, 366, 367, 368, 369, 370, 371, 372, 373, 374, 375, 376, 377, 378, 379, 380, 381, 382, 383, 384, 385, 386, 387, 388, 389, 390, 391, 392],
      "AcquisitionTime": ["195814.902500", "195816.102500", "195817.302500", "195818.502500", "195819.702500", "195820.902500", "195822.102500", "195823.302500", "195824.502500", "195825.702500", "195826.902500", "195828.102500", "195829.302500", "195830.502500", "195831.702500", "195832.902500", "195834.102500", "195835.302500", "195836.502500", "195837.702500", "195838.902500", "195840.102500", "195841.302500", "195842.502500", "195843.702500", "195844.902500", "195846.102500", "195847.302500", "195848.502500", "195849.702500", "195850.902500", "195852.102500", "195853.302500", "195854.502500", "195855.702500", "195856.902500", "195858.102500", "195859.302500", "195900.502500", "195901.702500", "195902.902500", "195904.102500", "195905.302500", "195906.502500", "195907.702500", "195908.902500", "195910.102500", "195911.302500", "195912.502500", "195913.702500", "195914.902500", "195916.102500", "195917.302500", "195918.502500", "195919.702500", "195920.902500", "195922.102500", "195923.302500", "195924.502500", "195925.702500", "195926.902500", "195928.102500", "195929.302500", "195930.502500", "195931.702500", "195932.902500", "195934.102500", "195935.302500", "195936.502500", "195937.702500", "195938.902500", "195940.102500", "195941.302500", "195942.502500", "195943.702500", "195944.902500", "195946.102500", "195947.302500", "195948.502500", "195949.702500", "195950.902500", "195952.102500", "195953.302500", "195954.502500", "195955.702500", "195956.902500", "195958.102500", "195959.302500", "200000.502500", "200001.702500", "200002.902500", "200004.102500", "200005.302500", "200006.502500", "200007.702500", "200008.902500", "200010.102500", "200011.302500", "200012.502500", "200013.702500", "200014.902500", "200016.102500", "200017.302500", "200018.502500", "200019.702500", "200020.902500", "200022.102500", "200023.302500", "200024.502500", "200025.702500", "200026.902500", "200028.102500", "200029.302500", "200030.502500", "200031.702500", "200032.902500", "200034.102500", "200035.302500", "200036.502500", "200037.702500", "200038.902500", "200040.102500", "200041.302500", "200042.502500", "200043.702500", "200044.902500", "200046.102500", "200047.302500", "200048.502500", "200049.702500", "200050.902500", "200052.102500", "200053.302500", "200054.502500", "200055.702500", "200056.902500", "200058.102500", "200059.302500", "200100.502500", "200101.702500", "200102.902500", "200104.102500", "200105.302500", "200106.502500", "200107.702500", "200108.902500", "200110.102500", "200111.302500", "200112.502500", "200113.702500", "200114.902500", "200116.102500", "200117.302500", "200118.502500", "200119.702500", "200120.902500", "200122.102500", "200123.302500", "200124.502500", "200125.702500", "200126.902500", "200128.102500", "200129.302500", "200130.502500", "200131.702500", "200132.902500", "200134.102500", "200135.302500", "200136.502500", "200137.702500", "200138.902500", "200140.102500", "200141.302500", "200142.502500", "200143.702500", "200144.902500", "200146.102500", "200147.302500", "200148.502500", "200149.702500", "200150.902500", "200152.102500", "200153.302500", "200154.502500", "200155.702500", "200156.902500", "200158.102500", "200159.302500", "200200.502500", "200201.702500", "200202.902500", "200204.102500", "200205.302500", "200206.502500", "200207.702500", "200208.902500", "200210.102500", "200211.302500", "200212.502500", "200213.702500", "200214.902500", "200216.102500", "200217.302500", "200218.502500", "200219.702500", "200220.902500", "200222.102500", "200223.302500", "200224.502500", "200225.702500", "200226.902500", "200228.102500", "200229.302500", "200230.502500", "200231.702500", "200232.902500", "200234.102500", "200235.302500", "200236.502500", "200237.702500", "200238.902500", "200240.102500", "200241.302500", "200242.502500", "200243.702500", "200244.902500", "200246.102500", "200247.302500", "200248.502500", "200249.702500", "200250.902500", "200252.102500", "200253.302500", "200254.502500", "200255.702500", "200256.902500", "200258.102500", "200259.302500", "200300.502500", "200301.702500", "200302.902500", "200304.102500", "200305.302500", "200306.502500", "200307.702500", "200308.902500", "200310.102500", "200311.302500", "200312.502500", "200313.702500", "200314.902500", "200316.102500", "200317.302500", "200318.502500", "200319.702500", "200320.902500", "200322.102500", "200323.302500", "200324.502500", "200325.702500", "200326.902500", "200328.102500", "200329.302500", "200330.502500", "200331.702500", "200332.902500", "200334.102500", "200335.302500", "200336.502500", "200337.702500", "200338.902500", "200340.102500", "200341.302500", "200342.502500", "200343.702500", "200344.902500", "200346.102500", "200347.302500", "200348.502500", "200349.702500", "200350.902500", "200352.102500", "200353.302500", "200354.502500", "200355.702500", "200356.902500", "200358.102500", "200359.302500", "200400.502500", "200401.702500", "200402.902500", "200404.102500", "200405.302500", "200406.502500", "200407.702500", "200408.902500", "200410.102500", "200411.302500", "200412.502500", "200413.702500", "200414.902500", "200416.102500", "200417.302500", "200418.502500", "200419.702500", "200420.902500", "200422.102500", "200423.302500", "200424.502500", "200425.702500", "200426.902500", "200428.102500", "200429.302500", "200430.502500", "200431.702500", "200432.902500", "200434.102500", "200435.302500", "200436.502500", "200437.702500", "200438.902500", "200440.102500", "200441.302500", "200442.502500", "200443.702500", "200444.902500", "200446.102500", "200447.302500", "200448.502500", "200449.702500", "200450.902500", "200452.102500", "200453.302500", "200454.502500", "200455.702500", "200456.902500", "200458.102500", "200459.302500", "200500.502500", "200501.702500", "200502.902500", "200504.102500", "200505.302500", "200506.502500", "200507.702500", "200508.902500", "200510.102500", "200511.302500", "200512.502500", "200513.702500", "200514.902500", "200516.102500", "200517.302500", "200518.502500", "200519.702500", "200520.902500", "200522.102500", "200523.302500", "200524.502500", "200525.702500", "200526.902500", "200528.102500", "200529.302500", "200530.502500", "200531.702500", "200532.902500", "200534.102500", "200535.302500", "200536.502500", "200537.702500", "200538.902500", "200540.102500", "200541.302500", "200542.502500", "200543.702500", "200544.902500", "200546.102500", "200547.302500", "200548.502500", "200549.702500", "200550.902500", "200552.102500", "200553.302500", "200554.502500", "200555.702500", "200556.902500", "200558.102500", "200559.302500", "200600.502500", "200601.702500", "200602.902500", "200604.102500"],
      "ContentTime": ["195848.524000", "195848.527000", "195848.530000", "195848.532000", "195848.535000", "195848.538000", "195848.540000", "195848.543000", "195848.545000", "195848.548000", "195848.551000", "195848.553000", "195848.556000", "195848.559000", "195848.566000", "195848.568000", "195848.571000", "195848.573000", "195848.576000", "195848.579000", "195848.581000", "195848.584000", "195848.586000", "195848.589000", "195848.592000", "195848.594000", "195848.597000", "195848.599000", "195928.519000", "195928.521000", "195928.524000", "195928.527000", "195928.529000", "195928.532000", "195928.535000", "195928.537000", "195928.540000", "195928.542000", "195928.545000", "195928.548000", "195928.550000", "195928.553000", "195928.556000", "195928.558000", "195928.561000", "195928.563000", "195928.566000", "195928.568000", "195928.571000", "195928.580000", "195928.582000", "195928.585000", "195928.587000", "195928.590000", "195928.593000", "195928.595000", "195928.598000", "195928.600000", "195928.603000", "195928.606000", "195928.608000", "200008.518000", "200008.521000", "200008.524000", "200008.527000", "200008.530000", "200008.532000", "200008.535000", "200008.537000", "200008.540000", "200008.543000", "200008.545000", "200008.548000", "200008.551000", "200008.553000", "200008.556000", "200008.558000", "200008.561000", "200008.564000", "200008.566000", "200008.569000", "200008.572000", "200008.574000", "200008.582000", "200008.585000", "200008.587000", "200008.590000", "200008.593000", "200008.595000", "200008.598000", "200008.600000", "200008.615000", "200008.618000", "200008.621000", "200028.518000", "200028.521000", "200028.524000", "200028.527000", "200028.529000", "200028.532000", "200028.534000", "200028.537000", "200028.540000", "200028.542000", "200028.545000", "200028.548000", "200028.550000", "200028.553000", "200028.555000", "200028.558000", "200028.560000", "200108.519000", "200108.523000", "200108.525000", "200108.528000", "200108.530000", "200108.533000", "200108.536000", "200108.538000", "200108.541000", "200108.544000", "200108.549000", "200108.552000", "200108.554000", "200108.557000", "200108.560000", "200108.562000", "200108.565000", "200108.567000", "200108.570000", "200108.573000", "200108.575000", "200108.578000", "200108.581000", "200108.583000", "200108.586000", "200108.588000", "200108.591000", "200108.594000", "200108.596000", "200108.599000", "200108.601000", "200108.604000", "200108.607000", "200148.518000", "200148.521000", "200148.524000", "200148.526000", "200148.529000", "200148.532000", "200148.534000", "200148.537000", "200148.539000", "200148.542000", "200148.545000", "200148.547000", "200148.550000", "200148.552000", "200148.555000", "200148.558000", "200148.560000", "200148.563000", "200148.565000", "200148.568000", "200148.571000", "200148.573000", "200148.576000", "200148.579000", "200148.581000", "200148.584000", "200148.586000", "200148.589000", "200148.592000", "200148.594000", "200148.597000", "200148.599000", "200148.602000", "200148.605000", "200228.518000", "200228.521000", "200228.524000", "200228.527000", "200228.529000", "200228.532000", "200228.534000", "200228.537000", "200228.540000", "200228.542000", "200228.545000", "200228.548000", "200228.550000", "200228.553000", "200228.555000", "200228.558000", "200228.561000", "200228.563000", "200228.566000", "200228.568000", "200228.571000", "200228.574000", "200228.576000", "200228.579000", "200228.581000", "200228.584000", "200228.586000", "200228.589000", "200228.592000", "200228.594000", "200228.597000", "200228.600000", "200228.602000", "200308.519000", "200308.521000", "200308.524000", "200308.527000", "200308.529000", "200308.532000", "200308.535000", "200308.537000", "200308.540000", "200308.542000", "200308.545000", "200308.548000", "200308.550000", "200308.553000", "200308.555000", "200308.558000", "200308.561000", "200308.563000", "200308.566000", "200308.568000", "200308.571000", "200308.574000", "200308.576000", "200308.579000", "200308.581000", "200308.584000", "200308.587000", "200308.589000", "200308.592000", "200308.594000", "200308.597000", "200308.600000", "200308.603000", "200348.519000", "200348.522000", "200348.525000", "200348.528000", "200348.530000", "200348.533000", "200348.536000", "200348.538000", "200348.541000", "200348.544000", "200348.546000", "200348.549000", "200348.551000", "200348.554000", "200348.556000", "200348.559000", "200348.562000", "200348.564000", "200348.567000", "200348.570000", "200348.572000", "200348.575000", "200348.577000", "200348.580000", "200348.583000", "200348.585000", "200348.588000", "200348.590000", "200348.593000", "200348.595000", "200348.598000", "200348.601000", "200348.603000", "200348.606000", "200428.519000", "200428.521000", "200428.524000", "200428.527000", "200428.529000", "200428.532000", "200428.535000", "200428.537000", "200428.540000", "200428.543000", "200428.545000", "200428.548000", "200428.551000", "200428.553000", "200428.556000", "200428.558000", "200428.561000", "200428.564000", "200428.566000", "200428.569000", "200428.572000", "200428.574000", "200428.577000", "200428.580000", "200428.582000", "200428.585000", "200428.587000", "200428.590000", "200428.592000", "200428.595000", "200428.598000", "200428.600000", "200428.603000", "200508.519000", "200508.521000", "200508.524000", "200508.527000", "200508.530000", "200508.532000", "200508.535000", "200508.537000", "200508.540000", "200508.543000", "200508.545000", "200508.548000", "200508.550000", "200508.553000", "200508.556000", "200508.558000", "200508.561000", "200508.563000", "200508.566000", "200508.569000", "200508.571000", "200508.574000", "200508.576000", "200508.579000", "200508.582000", "200508.584000", "200508.587000", "200508.589000", "200508.592000", "200508.595000", "200508.597000", "200508.600000", "200508.603000", "200548.520000", "200548.522000", "200548.525000", "200548.528000", "200548.531000", "200548.533000", "200548.536000", "200548.539000", "200548.541000", "200548.544000", "200548.547000", "200548.549000", "200548.552000", "200548.554000", "200548.557000", "200548.560000", "200548.562000", "200548.565000", "200548.567000", "200548.570000", "200548.573000", "200548.575000", "200548.578000", "200548.581000", "200548.583000", "200548.586000", "200548.588000", "200548.591000", "200548.594000", "200548.596000", "200548.599000", "200548.602000", "200548.604000", "200548.607000", "200605.287000", "200605.290000", "200605.292000", "200605.295000", "200605.298000", "200605.301000", "200605.303000", "200605.306000", "200605.308000", "200605.311000", "200605.314000", "200605.316000", "200605.319000", "200605.322000"],
      "InstanceCreationTime": ["195848.524000", "195848.527000", "195848.530000", "195848.532000", "195848.535000", "195848.538000", "195848.540000", "195848.543000", "195848.545000", "195848.548000", "195848.551000", "195848.553000", "195848.556000", "195848.559000", "195848.566000", "195848.568000", "195848.571000", "195848.573000", "195848.576000", "195848.579000", "195848.581000", "195848.584000", "195848.586000", "195848.589000", "195848.592000", "195848.594000", "195848.597000", "195848.599000", "195928.519000", "195928.521000", "195928.524000", "195928.527000", "195928.529000", "195928.532000", "195928.535000", "195928.537000", "195928.540000", "195928.542000", "195928.545000", "195928.548000", "195928.550000", "195928.553000", "195928.556000", "195928.558000", "195928.561000", "195928.563000", "195928.566000", "195928.568000", "195928.571000", "195928.580000", "195928.582000", "195928.585000", "195928.587000", "195928.590000", "195928.593000", "195928.595000", "195928.598000", "195928.600000", "195928.603000", "195928.606000", "195928.608000", "200008.518000", "200008.521000", "200008.524000", "200008.527000", "200008.530000", "200008.532000", "200008.535000", "200008.537000", "200008.540000", "200008.543000", "200008.545000", "200008.548000", "200008.551000", "200008.553000", "200008.556000", "200008.558000", "200008.561000", "200008.564000", "200008.566000", "200008.569000", "200008.572000", "200008.574000", "200008.582000", "200008.585000", "200008.587000", "200008.590000", "200008.593000", "200008.595000", "200008.598000", "200008.600000", "200008.615000", "200008.618000", "200008.621000", "200028.518000", "200028.521000", "200028.524000", "200028.527000", "200028.529000", "200028.532000", "200028.534000", "200028.537000", "200028.540000", "200028.542000", "200028.545000", "200028.548000", "200028.550000", "200028.553000", "200028.555000", "200028.558000", "200028.560000", "200108.519000", "200108.523000", "200108.525000", "200108.528000", "200108.530000", "200108.533000", "200108.536000", "200108.538000", "200108.541000", "200108.544000", "200108.549000", "200108.552000", "200108.554000", "200108.557000", "200108.560000", "200108.562000", "200108.565000", "200108.567000", "200108.570000", "200108.573000", "200108.575000", "200108.578000", "200108.581000", "200108.583000", "200108.586000", "200108.588000", "200108.591000", "200108.594000", "200108.596000", "200108.599000", "200108.601000", "200108.604000", "200108.607000", "200148.518000", "200148.521000", "200148.524000", "200148.526000", "200148.529000", "200148.532000", "200148.534000", "200148.537000", "200148.539000", "200148.542000", "200148.545000", "200148.547000", "200148.550000", "200148.552000", "200148.555000", "200148.558000", "200148.560000", "200148.563000", "200148.565000", "200148.568000", "200148.571000", "200148.573000", "200148.576000", "200148.579000", "200148.581000", "200148.584000", "200148.586000", "200148.589000", "200148.592000", "200148.594000", "200148.597000", "200148.599000", "200148.602000", "200148.605000", "200228.518000", "200228.521000", "200228.524000", "200228.527000", "200228.529000", "200228.532000", "200228.534000", "200228.537000", "200228.540000", "200228.542000", "200228.545000", "200228.548000", "200228.550000", "200228.553000", "200228.555000", "200228.558000", "200228.561000", "200228.563000", "200228.566000", "200228.568000", "200228.571000", "200228.574000", "200228.576000", "200228.579000", "200228.581000", "200228.584000", "200228.586000", "200228.589000", "200228.592000", "200228.594000", "200228.597000", "200228.600000", "200228.602000", "200308.519000", "200308.521000", "200308.524000", "200308.527000", "200308.529000", "200308.532000", "200308.535000", "200308.537000", "200308.540000", "200308.542000", "200308.545000", "200308.548000", "200308.550000", "200308.553000", "200308.555000", "200308.558000", "200308.561000", "200308.563000", "200308.566000", "200308.568000", "200308.571000", "200308.574000", "200308.576000", "200308.579000", "200308.581000", "200308.584000", "200308.587000", "200308.589000", "200308.592000", "200308.594000", "200308.597000", "200308.600000", "200308.603000", "200348.519000", "200348.522000", "200348.525000", "200348.528000", "200348.530000", "200348.533000", "200348.536000", "200348.538000", "200348.541000", "200348.544000", "200348.546000", "200348.549000", "200348.551000", "200348.554000", "200348.556000", "200348.559000", "200348.562000", "200348.564000", "200348.567000", "200348.570000", "200348.572000", "200348.575000", "200348.577000", "200348.580000", "200348.583000", "200348.585000", "200348.588000", "200348.590000", "200348.593000", "200348.595000", "200348.598000", "200348.601000", "200348.603000", "200348.606000", "200428.519000", "200428.521000", "200428.524000", "200428.527000", "200428.529000", "200428.532000", "200428.535000", "200428.537000", "200428.540000", "200428.543000", "200428.545000", "200428.548000", "200428.551000", "200428.553000", "200428.556000", "200428.558000", "200428.561000", "200428.564000", "200428.566000", "200428.569000", "200428.572000", "200428.574000", "200428.577000", "200428.580000", "200428.582000", "200428.585000", "200428.587000", "200428.590000", "200428.592000", "200428.595000", "200428.598000", "200428.600000", "200428.603000", "200508.519000", "200508.521000", "200508.524000", "200508.527000", "200508.530000", "200508.532000", "200508.535000", "200508.537000", "200508.540000", "200508.543000", "200508.545000", "200508.548000", "200508.550000", "200508.553000", "200508.556000", "200508.558000", "200508.561000", "200508.563000", "200508.566000", "200508.569000", "200508.571000", "200508.574000", "200508.576000", "200508.579000", "200508.582000", "200508.584000", "200508.587000", "200508.589000", "200508.592000", "200508.595000", "200508.597000", "200508.600000", "200508.603000", "200548.520000", "200548.522000", "200548.525000", "200548.528000", "200548.531000", "200548.533000", "200548.536000", "200548.539000", "200548.541000", "200548.544000", "200548.547000", "200548.549000", "200548.552000", "200548.554000", "200548.557000", "200548.560000", "200548.562000", "200548.565000", "200548.567000", "200548.570000", "200548.573000", "200548.575000", "200548.578000", "200548.581000", "200548.583000", "200548.586000", "200548.588000", "200548.591000", "200548.594000", "200548.596000", "200548.599000", "200548.602000", "200548.604000", "200548.607000", "200605.287000", "200605.290000", "200605.292000", "200605.295000", "200605.298000", "200605.301000", "200605.303000", "200605.306000", "200605.308000", "200605.311000", "200605.314000", "200605.316000", "200605.319000", "200605.322000"],
      "InstanceNumber": [1, 2, 3, 4, 5, 6, 7, 8, 9, 10, 11, 12, 13, 14, 15, 16, 17, 18, 19, 20, 21, 22, 23, 24, 25, 26, 27, 28, 29, 30, 31, 32, 33, 34, 35, 36, 37, 38, 39, 40, 41, 42, 43, 44, 45, 46, 47, 48, 49, 50, 51, 52, 53, 54, 55, 56, 57, 58, 59, 60, 61, 62, 63, 64, 65, 66, 67, 68, 69, 70, 71, 72, 73, 74, 75, 76, 77, 78, 79, 80, 81, 82, 83, 84, 85, 86, 87, 88, 89, 90, 91, 92, 93, 94, 95, 96, 97, 98, 99, 100, 101, 102, 103, 104, 105, 106, 107, 108, 109, 110, 111, 112, 113, 114, 115, 116, 117, 118, 119, 120, 121, 122, 123, 124, 125, 126, 127, 128, 129, 130, 131, 132, 133, 134, 135, 136, 137, 138, 139, 140, 141, 142, 143, 144, 145, 146, 147, 148, 149, 150, 151, 152, 153, 154, 155, 156, 157, 158, 159, 160, 161, 162, 163, 164, 165, 166, 167, 168, 169, 170, 171, 172, 173, 174, 175, 176, 177, 178, 179, 180, 181, 182, 183, 184, 185, 186, 187, 188, 189, 190, 191, 192, 193, 194, 195, 196, 197, 198, 199, 200, 201, 202, 203, 204, 205, 206, 207, 208, 209, 210, 211, 212, 213, 214, 215, 216, 217, 218, 219, 220, 221, 222, 223, 224, 225, 226, 227, 228, 229, 230, 231, 232, 233, 234, 235, 236, 237, 238, 239, 240, 241, 242, 243, 244, 245, 246, 247, 248, 249, 250, 251, 252, 253, 254, 255, 256, 257, 258, 259, 260, 261, 262, 263, 264, 265, 266, 267, 268, 269, 270, 271, 272, 273, 274, 275, 276, 277, 278, 279, 280, 281, 282, 283, 284, 285, 286, 287, 288, 289, 290, 291, 292, 293, 294, 295, 296, 297, 298, 299, 300, 301, 302, 303, 304, 305, 306, 307, 308, 309, 310, 311, 312, 313, 314, 315, 316, 317, 318, 319, 320, 321, 322, 323, 324, 325, 326, 327, 328, 329, 330, 331, 332, 333, 334, 335, 336, 337, 338, 339, 340, 341, 342, 343, 344, 345, 346, 347, 348, 349, 350, 351, 352, 353, 354, 355, 356, 357, 358, 359, 360, 361, 362, 363, 364, 365, 366, 367, 368, 369, 370, 371, 372, 373, 374, 375, 376, 377, 378, 379, 380, 381, 382, 383, 384, 385, 386, 387, 388, 389, 390, 391, 392],
