{
  "AcquisitionMatrixPE": 88,
  "AcquisitionNumber": 1,
  "AcquisitionTime": "19:19:4.920000",
  "BandwidthPerPixelPhaseEncode": 19.592,
  "BaseResolution": 88,
  "BodyPartExamined": "BRAIN",
  "ConsistencyInfo": "N4_VE11C_LATEST_20160120",
  "ConversionSoftware": "dcm2niix",
  "ConversionSoftwareVersion": "v1.0.20190902",
  "DerivedVendorReportedEchoSpacing": 0.000580014,
  "DeviceSerialNumber": "67050",
  "DwellTime": 2.6e-06,
  "EchoTime": 0.033,
  "EchoTrainLength": 88,
  "EffectiveEchoSpacing": 0.000580014,
  "FlipAngle": 62,
  "ImageOrientationPatientDICOM": [0.998014, 0.0384476, -0.0498984, -0.0433997, 0.993808, -0.102289],
  "ImageType": [
    "ORIGINAL",
    "PRIMARY",
    "M",
    "ND",
    "MOSAIC"
],
  "ImagingFrequency": 123.251,
  "InPlanePhaseEncodingDirectionDICOM": "COL",
  "InstitutionAddress": "Olive_Street_60_Providence_RI_US_02912",
  "InstitutionName": "BROWN_UNIVERSITY_MRF",
  "InstitutionalDepartmentName": "Department",
  "MRAcquisitionType": "2D",
  "MagneticFieldStrength": 3,
  "Manufacturer": "Siemens",
  "ManufacturersModelName": "Prisma_fit",
  "Modality": "MR",
  "MultibandAccelerationFactor": 4,
  "PartialFourier": 1,
  "PatientPosition": "HFS",
  "PercentPhaseFOV": 100,
  "PhaseEncodingDirection": "j-",
  "PhaseEncodingSteps": 88,
  "PhaseResolution": 1,
  "PixelBandwidth": 2185,
  "ProcedureStepDescription": "ASHENHAV_1222",
  "ProtocolName": "func-bold_task-RDMmotion_run-02",
  "PulseSequenceDetails": "%SiemensSeq%_ep2d_bold",
  "ReceiveCoilActiveElements": "HC1-7",
  "ReceiveCoilName": "HeadNeck_64",
  "ReconMatrixPE": 88,
  "RefLinesPE": 8,
  "RepetitionTime": 1.2,
  "SAR": 0.0520264,
  "ScanOptions": "FS",
  "ScanningSequence": "EP",
  "SequenceName": "_epfid2d1_88",
  "SequenceVariant": "SK",
  "SeriesDescription": "func-bold_task-RDMmotion_run-02",
  "SeriesNumber": 9,
  "ShimSetting": [1741, -9068, 4403, 269, -89, -72, 6, -9],
  "SliceThickness": 2.4,
  "SliceTiming": [0.55, 0, 0.6275, 0.0775, 0.7075, 0.1575, 0.785, 0.235, 0.865, 0.3125, 0.9425, 0.3925, 1.0225, 0.47, 1.1, 0.55, 0, 0.6275, 0.0775, 0.7075, 0.1575, 0.785, 0.235, 0.865, 0.3125, 0.9425, 0.3925, 1.0225, 0.47, 1.1, 0.55, 0, 0.6275, 0.0775, 0.7075, 0.1575, 0.785, 0.235, 0.865, 0.3125, 0.9425, 0.3925, 1.0225, 0.47, 1.1, 0.55, 0, 0.6275, 0.0775, 0.7075, 0.1575, 0.785, 0.235, 0.865, 0.3125, 0.9425, 0.3925, 1.0225, 0.47, 1.1],
  "SoftwareVersions": "syngo_MR_E11",
  "SpacingBetweenSlices": 2.4,
  "StationName": "AWP67050",
  "TaskName": "RDMmotion",
  "TotalReadoutTime": 0.0504612,
  "TxRefAmp": 217.047,
  "dcmmeta_affine": [
    [-2.392965316772461, -0.10406072437763214, -0.10957609117031097, 114.28421783447266],
    [-0.09218680113554001, 2.3828794956207275, -0.2502027750015259, -94.86282348632812],
    [-0.11964287608861923, 0.24526047706604004, 2.3844058513641357, -50.089759826660156],
    [0.0, 0.0, 0.0, 1.0]
],
  "dcmmeta_reorient_transform": [
    [0.0, -1.0, 0.0, 87.0],
    [1.0, 0.0, 0.0, 0.0],
    [0.0, 0.0, 1.0, 0.0],
    [0.0, 0.0, 0.0, 1.0]
],
  "dcmmeta_shape": [88, 88, 60, 125],
  "dcmmeta_slice_dim": 2,
  "dcmmeta_version": 0.6,
  "global": {
    "const": {
      "AcquisitionMatrix": [88, 0, 0, 88],
      "AngioFlag": "N",
      "BitsAllocated": 16,
      "BitsStored": 12,
      "BodyPartExamined": "BRAIN",
      "Columns": 704,
      "DeidentificationMethodCodeSequence": [
        {
          "CodeMeaning": "XNAT DicomEdit 6 Script",
          "CodeValue": "3",
          "CodingSchemeDesignator": "XNAT",
          "CodingSchemeVersion": "1.0"}
],
      "EchoNumbers": 1,
      "EchoTime": 33.0,
      "EchoTrainLength": 88,
      "FlipAngle": 62.0,
      "HighBit": 11,
      "ImageOrientationPatient": [0.9980139920881, 0.03844757699521, -0.0498984510739, -0.0433997342538, 0.99380756643847, -0.1022887283934],
      "ImagePositionPatient": [-810.21355608212, -874.76810938379, 83.638132239951],
      "ImageType": [
        "ORIGINAL",
        "PRIMARY",
        "M",
        "ND",
        "MOSAIC"
],
      "ImagedNucleus": "1H",
      "ImagingFrequency": 123.250712,
      "InPlanePhaseEncodingDirection": "COL",
      "MRAcquisitionType": "2D",
      "MagneticFieldStrength": 3.0,
      "Manufacturer": "SIEMENS",
      "ManufacturerModelName": "Prisma_fit",
      "Modality": "MR",
      "NumberOfAverages": 1.0,
      "NumberOfPhaseEncodingSteps": 88,
      "PercentPhaseFieldOfView": 100.0,
      "PercentSampling": 100.0,
      "PerformedProcedureStepStartTime": "184918.066000",
      "PhotometricInterpretation": "MONOCHROME2",
      "PixelBandwidth": 2185.0,
      "PixelRepresentation": 0,
      "PixelSpacing": [2.3977272510529, 2.3977272510529],
      "ProtocolName": "func-bold_task-RDMmotion_run-02",
      "RepetitionTime": 1200.0,
      "Rows": 704,
      "SAR": 0.05202639529665,
      "SamplesPerPixel": 1,
      "ScanOptions": "FS",
      "ScanningSequence": "EP",
      "SequenceName": "*epfid2d1_88",
      "SequenceVariant": "SK",
      "SeriesDescription": "func-bold_task-RDMmotion_run-02",
      "SeriesNumber": 9,
      "SeriesTime": "191944.589000",
      "SliceLocation": -45.092581415279,
      "SliceThickness": 2.4000000953674,
      "SmallestImagePixelValue": 0,
      "SoftwareVersions": "syngo MR E11",
      "SpacingBetweenSlices": 2.3999999476495,
      "SpecificCharacterSet": "ISO_IR 100",
      "StudyID": "1",
      "StudyTime": "184917.972000",
      "TransmitCoilName": "Body",
      "VariableFlipAngleFlag": "N",
      "WindowCenterWidthExplanation": "Algo1",
      "dBdt": 0.0},
    "slices": {}
  },
  "time": {
    "samples": {
      "AcquisitionNumber": [1, 2, 3, 4, 5, 6, 7, 8, 9, 10, 11, 12, 13, 14, 15, 16, 17, 18, 19, 20, 21, 22, 23, 24, 25, 26, 27, 28, 29, 30, 31, 32, 33, 34, 35, 36, 37, 38, 39, 40, 41, 42, 43, 44, 45, 46, 47, 48, 49, 50, 51, 52, 53, 54, 55, 56, 57, 58, 59, 60, 61, 62, 63, 64, 65, 66, 67, 68, 69, 70, 71, 72, 73, 74, 75, 76, 77, 78, 79, 80, 81, 82, 83, 84, 85, 86, 87, 88, 89, 90, 91, 92, 93, 94, 95, 96, 97, 98, 99, 100, 101, 102, 103, 104, 105, 106, 107, 108, 109, 110, 111, 112, 113, 114, 115, 116, 117, 118, 119, 120, 121, 122, 123, 124, 125],
      "AcquisitionTime": ["191904.920000", "191906.120000", "191907.320000", "191908.520000", "191909.720000", "191910.920000", "191912.120000", "191913.320000", "191914.520000", "191915.720000", "191916.920000", "191918.120000", "191919.320000", "191920.520000", "191921.720000", "191922.920000", "191924.120000", "191925.320000", "191926.520000", "191927.720000", "191928.920000", "191930.120000", "191931.320000", "191932.520000", "191933.720000", "191934.920000", "191936.120000", "191937.320000", "191938.520000", "191939.720000", "191940.920000", "191942.120000", "191943.320000", "191944.520000", "191945.720000", "191946.920000", "191948.120000", "191949.320000", "191950.520000", "191951.720000", "191952.920000", "191954.120000", "191955.320000", "191956.520000", "191957.720000", "191958.920000", "192000.120000", "192001.320000", "192002.520000", "192003.720000", "192004.920000", "192006.120000", "192007.320000", "192008.520000", "192009.720000", "192010.920000", "192012.120000", "192013.320000", "192014.520000", "192015.720000", "192016.920000", "192018.120000", "192019.320000", "192020.520000", "192021.720000", "192022.920000", "192024.120000", "192025.320000", "192026.520000", "192027.720000", "192028.920000", "192030.120000", "192031.320000", "192032.520000", "192033.720000", "192034.920000", "192036.120000", "192037.320000", "192038.520000", "192039.720000", "192040.920000", "192042.120000", "192043.320000", "192044.520000", "192045.720000", "192046.920000", "192048.120000", "192049.320000", "192050.520000", "192051.720000", "192052.920000", "192054.120000", "192055.320000", "192056.520000", "192057.720000", "192058.920000", "192100.120000", "192101.320000", "192102.520000", "192103.720000", "192104.920000", "192106.120000", "192107.320000", "192108.520000", "192109.720000", "192110.920000", "192112.120000", "192113.320000", "192114.520000", "192115.720000", "192116.920000", "192118.120000", "192119.320000", "192120.520000", "192121.720000", "192122.920000", "192124.120000", "192125.320000", "192126.520000", "192127.720000", "192128.920000", "192130.120000", "192131.320000", "192132.520000", "192133.720000"],
      "ContentTime": ["191944.593000", "191944.596000", "191944.599000", "191944.601000", "191944.604000", "191944.607000", "191944.609000", "191944.612000", "191944.620000", "191944.623000", "191944.625000", "191944.628000", "191944.631000", "191944.633000", "191944.636000", "191944.639000", "191944.641000", "191944.644000", "191944.646000", "191944.649000", "191944.651000", "191944.654000", "191944.657000", "191944.659000", "191944.667000", "191944.670000", "191944.673000", "191944.676000", "191944.678000", "191944.681000", "191944.683000", "191944.686000", "191944.688000", "192024.589000", "192024.591000", "192024.594000", "192024.603000", "192024.606000", "192024.608000", "192024.611000", "192024.614000", "192024.616000", "192024.619000", "192024.621000", "192024.624000", "192024.627000", "192024.629000", "192024.632000", "192024.634000", "192024.637000", "192024.639000", "192024.642000", "192024.645000", "192024.647000", "192024.650000", "192024.652000", "192024.655000", "192024.658000", "192024.660000", "192024.663000", "192024.665000", "192024.668000", "192024.670000", "192024.673000", "192024.680000", "192024.683000", "192104.588000", "192104.590000", "192104.593000", "192104.595000", "192104.598000", "192104.601000", "192104.603000", "192104.606000", "192104.609000", "192104.611000", "192104.614000", "192104.616000", "192104.619000", "192104.622000", "192104.624000", "192104.627000", "192104.630000", "192104.632000", "192104.635000", "192104.637000", "192104.651000", "192104.653000", "192104.656000", "192104.658000", "192104.661000", "192104.664000", "192104.666000", "192104.669000", "192104.671000", "192104.674000", "192104.677000", "192104.679000", "192104.682000", "192134.947000", "192134.950000", "192134.953000", "192134.956000", "192134.958000", "192134.961000", "192134.964000", "192134.966000", "192134.969000", "192134.972000", "192134.974000", "192134.977000", "192134.980000", "192134.982000", "192134.985000", "192134.987000", "192134.990000", "192134.993000", "192134.995000", "192134.998000", "192135.002000", "192135.004000", "192135.007000", "192135.009000", "192135.012000", "192135.014000"],
      "InstanceCreationTime": ["191944.593000", "191944.596000", "191944.599000", "191944.601000", "191944.604000", "191944.607000", "191944.609000", "191944.612000", "191944.620000", "191944.623000", "191944.625000", "191944.628000", "191944.631000", "191944.633000", "191944.636000", "191944.639000", "191944.641000", "191944.644000", "191944.646000", "191944.649000", "191944.651000", "191944.654000", "191944.657000", "191944.659000", "191944.667000", "191944.670000", "191944.673000", "191944.676000", "191944.678000", "191944.681000", "191944.683000", "191944.686000", "191944.688000", "192024.589000", "192024.591000", "192024.594000", "192024.603000", "192024.606000", "192024.608000", "192024.611000", "192024.614000", "192024.616000", "192024.619000", "192024.621000", "192024.624000", "192024.627000", "192024.629000", "192024.632000", "192024.634000", "192024.637000", "192024.639000", "192024.642000", "192024.645000", "192024.647000", "192024.650000", "192024.652000", "192024.655000", "192024.658000", "192024.660000", "192024.663000", "192024.665000", "192024.668000", "192024.670000", "192024.673000", "192024.680000", "192024.683000", "192104.588000", "192104.590000", "192104.593000", "192104.595000", "192104.598000", "192104.601000", "192104.603000", "192104.606000", "192104.609000", "192104.611000", "192104.614000", "192104.616000", "192104.619000", "192104.622000", "192104.624000", "192104.627000", "192104.630000", "192104.632000", "192104.635000", "192104.637000", "192104.651000", "192104.653000", "192104.656000", "192104.658000", "192104.661000", "192104.664000", "192104.666000", "192104.669000", "192104.671000", "192104.674000", "192104.677000", "192104.679000", "192104.682000", "192134.947000", "192134.950000", "192134.953000", "192134.956000", "192134.958000", "192134.961000", "192134.964000", "192134.966000", "192134.969000", "192134.972000", "192134.974000", "192134.977000", "192134.980000", "192134.982000", "192134.985000", "192134.987000", "192134.990000", "192134.993000", "192134.995000", "192134.998000", "192135.002000", "192135.004000", "192135.007000", "192135.009000", "192135.012000", "192135.014000"],
      "InstanceNumber": [1, 2, 3, 4, 5, 6, 7, 8, 9, 10, 11, 12, 13, 14, 15, 16, 17, 18, 19, 20, 21, 22, 23, 24, 25, 26, 27, 28, 29, 30, 31, 32, 33, 34, 35, 36, 37, 38, 39, 40, 41, 42, 43, 44, 45, 46, 47, 48, 49, 50, 51, 52, 53, 54, 55, 56, 57, 58, 59, 60, 61, 62, 63, 64, 65, 66, 67, 68, 69, 70, 71, 72, 73, 74, 75, 76, 77, 78, 79, 80, 81, 82, 83, 84, 85, 86, 87, 88, 89, 90, 91, 92, 93, 94, 95, 96, 97, 98, 99, 100, 101, 102, 103, 104, 105, 106, 107, 108, 109, 110, 111, 112, 113, 114, 115, 116, 117, 118, 119, 120, 121, 122, 123, 124, 125],
      "LargestImagePixelValue": [2523, 2468, 2383, 2393, 2359, 2385, 2365, 2354, 2359, 2351, 2360, 2353, 2380, 2341, 2352, 2360, 2350, 2371, 2351, 2369, 2363, 2390, 2383, 2389, 2381, 2392, 2378, 2363, 2389, 2362, 2379, 2379, 2389, 2395, 2420, 2384, 2408, 2406, 2410, 2410, 2399, 2399, 2402, 2403, 2409, 2399, 2402, 2391, 2413, 2368, 2428, 2413, 2436, 2429, 2428, 2415, 2406, 2415, 2405, 2425, 2422, 2415, 2416, 2418, 2428, 2412, 2424, 2418, 2412, 2395, 2407, 2444, 2437, 2422, 2420, 2428, 2427, 2422, 2441, 2432, 2427, 2435, 2411, 2427, 2405, 2418, 2414, 2429, 2427, 2426, 2419, 2427, 2438, 2411, 2436, 2421, 2403, 2413, 2383, 2434, 2391, 2414, 2427, 2432, 2445, 2429, 2433, 2436, 2421, 2418, 2417, 2419, 2441, 2402, 2432, 2437, 2449, 2434, 2452, 2423, 2433, 2436, 2422, 2449, 2425],
      "WindowCenter": [632.0, 630.0, 629.0, 629.0, 629.0, 629.0, 629.0, 629.0, 629.0, 629.0, 628.0, 628.0, 629.0, 628.0, 628.0, 628.0, 628.0, 628.0, 628.0, 628.0, 628.0, 628.0, 628.0, 628.0, 628.0, 629.0, 628.0, 628.0, 628.0, 627.0, 627.0, 627.0, 627.0, 628.0, 628.0, 627.0, 627.0, 627.0, 628.0, 628.0, 627.0, 627.0, 627.0, 627.0, 627.0, 628.0, 628.0, 628.0, 628.0, 627.0, 628.0, 628.0, 628.0, 628.0, 628.0, 629.0, 628.0, 629.0, 628.0, 629.0, 629.0, 630.0, 630.0, 630.0, 629.0, 629.0, 629.0, 628.0, 628.0, 628.0, 628.0, 629.0, 629.0, 629.0, 628.0, 628.0, 628.0, 628.0, 628.0, 628.0, 628.0, 628.0, 628.0, 628.0, 629.0, 629.0, 629.0, 628.0, 628.0, 629.0, 629.0, 628.0, 628.0, 628.0, 629.0, 629.0, 629.0, 628.0, 628.0, 628.0, 627.0, 628.0, 628.0, 628.0, 628.0, 628.0, 628.0, 629.0, 628.0, 628.0, 628.0, 628.0, 628.0, 628.0, 628.0, 628.0, 628.0, 629.0, 630.0, 630.0, 630.0, 630.0, 630.0, 630.0, 629.0],
      "WindowWidth": [1360.0, 1355.0, 1352.0, 1352.0, 1352.0, 1354.0, 1354.0, 1353.0, 1353.0, 1352.0, 1351.0, 1351.0, 1352.0, 1351.0, 1351.0, 1351.0, 1350.0, 1351.0, 1350.0, 1350.0, 1350.0, 1351.0, 1350.0, 1351.0, 1352.0, 1352.0, 1351.0, 1350.0, 1349.0, 1348.0, 1348.0, 1348.0, 1348.0, 1349.0, 1350.0, 1349.0, 1348.0, 1348.0, 1349.0, 1349.0, 1348.0, 1347.0, 1347.0, 1348.0, 1348.0, 1349.0, 1349.0, 1349.0, 1349.0, 1348.0, 1350.0, 1350.0, 1351.0, 1351.0, 1351.0, 1352.0, 1351.0, 1352.0, 1352.0, 1353.0, 1354.0, 1354.0, 1354.0, 1354.0, 1353.0, 1353.0, 1352.0, 1350.0, 1350.0, 1350.0, 1351.0, 1352.0, 1353.0, 1352.0, 1351.0, 1350.0, 1349.0, 1349.0, 1350.0, 1350.0, 1350.0, 1351.0, 1351.0, 1351.0, 1352.0, 1353.0, 1352.0, 1351.0, 1351.0, 1352.0, 1352.0, 1351.0, 1350.0, 1350.0, 1352.0, 1352.0, 1352.0, 1351.0, 1350.0, 1350.0, 1348.0, 1349.0, 1349.0, 1349.0, 1349.0, 1350.0, 1351.0, 1351.0, 1350.0, 1351.0, 1351.0, 1351.0, 1351.0, 1350.0, 1351.0, 1350.0, 1351.0, 1352.0, 1354.0, 1355.0, 1356.0, 1356.0, 1355.0, 1354.0, 1353.0]
    },
    "slices": {}
  }
}