{
  "AcquisitionMatrixPE": 88,
  "AcquisitionNumber": 1,
  "AcquisitionTime": "20:07:0.547500",
  "BandwidthPerPixelPhaseEncode": 19.592,
  "BaseResolution": 88,
  "BodyPartExamined": "BRAIN",
  "ConsistencyInfo": "N4_VE11C_LATEST_20160120",
  "ConversionSoftware": "dcm2niix",
  "ConversionSoftwareVersion": "v1.0.20190902",
  "DerivedVendorReportedEchoSpacing": 0.000580014,
  "DeviceSerialNumber": "67050",
  "DwellTime": 2.6e-06,
  "EchoTime": 0.033,
  "EchoTrainLength": 88,
  "EffectiveEchoSpacing": 0.000580014,
  "FlipAngle": 62,
  "ImageOrientationPatientDICOM": [0.998014, 0.0384476, -0.0498984, -0.0433997, 0.993808, -0.102289],
  "ImageType": [
    "ORIGINAL",
    "PRIMARY",
    "M",
    "ND",
    "MOSAIC"
],
  "ImagingFrequency": 123.251,
  "InPlanePhaseEncodingDirectionDICOM": "COL",
  "InstitutionAddress": "Olive_Street_60_Providence_RI_US_02912",
  "InstitutionName": "BROWN_UNIVERSITY_MRF",
  "InstitutionalDepartmentName": "Department",
  "MRAcquisitionType": "2D",
  "MagneticFieldStrength": 3,
  "Manufacturer": "Siemens",
  "ManufacturersModelName": "Prisma_fit",
  "Modality": "MR",
  "MultibandAccelerationFactor": 4,
  "PartialFourier": 1,
  "PatientPosition": "HFS",
  "PercentPhaseFOV": 100,
  "PhaseEncodingDirection": "j-",
  "PhaseEncodingSteps": 88,
  "PhaseResolution": 1,
  "PixelBandwidth": 2185,
  "ProcedureStepDescription": "ASHENHAV_1222",
  "ProtocolName": "func-bold_task-RDMmotion_run-06",
  "PulseSequenceDetails": "%SiemensSeq%_ep2d_bold",
  "ReceiveCoilActiveElements": "HC1-7",
  "ReceiveCoilName": "HeadNeck_64",
  "ReconMatrixPE": 88,
  "RefLinesPE": 8,
  "RepetitionTime": 1.2,
  "SAR": 0.0520264,
  "ScanOptions": "FS",
  "ScanningSequence": "EP",
  "SequenceName": "_epfid2d1_88",
  "SequenceVariant": "SK",
  "SeriesDescription": "func-bold_task-RDMmotion_run-06",
  "SeriesNumber": 17,
  "ShimSetting": [1741, -9068, 4403, 269, -89, -72, 6, -9],
  "SliceThickness": 2.4,
  "SliceTiming": [0.55, 0, 0.6275, 0.0775, 0.7075, 0.1575, 0.785, 0.235, 0.865, 0.3125, 0.9425, 0.3925, 1.0225, 0.47, 1.1, 0.55, 0, 0.6275, 0.0775, 0.7075, 0.1575, 0.785, 0.235, 0.865, 0.3125, 0.9425, 0.3925, 1.0225, 0.47, 1.1, 0.55, 0, 0.6275, 0.0775, 0.7075, 0.1575, 0.785, 0.235, 0.865, 0.3125, 0.9425, 0.3925, 1.0225, 0.47, 1.1, 0.55, 0, 0.6275, 0.0775, 0.7075, 0.1575, 0.785, 0.235, 0.865, 0.3125, 0.9425, 0.3925, 1.0225, 0.47, 1.1],
  "SoftwareVersions": "syngo_MR_E11",
  "SpacingBetweenSlices": 2.4,
  "StationName": "AWP67050",
  "TaskName": "RDMmotion",
  "TotalReadoutTime": 0.0504612,
  "TxRefAmp": 217.047,
  "dcmmeta_affine": [
    [-2.392965316772461, -0.10406072437763214, -0.10957609117031097, 114.28421783447266],
    [-0.09218680113554001, 2.3828794956207275, -0.2502027750015259, -94.86282348632812],
    [-0.11964287608861923, 0.24526047706604004, 2.3844058513641357, -50.089759826660156],
    [0.0, 0.0, 0.0, 1.0]
],
  "dcmmeta_reorient_transform": [
    [0.0, -1.0, 0.0, 87.0],
    [1.0, 0.0, 0.0, 0.0],
    [0.0, 0.0, 1.0, 0.0],
    [0.0, 0.0, 0.0, 1.0]
],
  "dcmmeta_shape": [88, 88, 60, 125],
  "dcmmeta_slice_dim": 2,
  "dcmmeta_version": 0.6,
  "global": {
    "const": {
      "AcquisitionMatrix": [88, 0, 0, 88],
      "AngioFlag": "N",
      "BitsAllocated": 16,
      "BitsStored": 12,
      "BodyPartExamined": "BRAIN",
      "Columns": 704,
      "DeidentificationMethodCodeSequence": [
        {
          "CodeMeaning": "XNAT DicomEdit 6 Script",
          "CodeValue": "3",
          "CodingSchemeDesignator": "XNAT",
          "CodingSchemeVersion": "1.0"}
],
      "EchoNumbers": 1,
      "EchoTime": 33.0,
      "EchoTrainLength": 88,
      "FlipAngle": 62.0,
      "HighBit": 11,
      "ImageOrientationPatient": [0.9980139920881, 0.03844757699521, -0.0498984510739, -0.0433997342538, 0.99380756643847, -0.1022887283934],
      "ImagePositionPatient": [-810.21355608212, -874.76810938379, 83.638132239951],
      "ImageType": [
        "ORIGINAL",
        "PRIMARY",
        "M",
        "ND",
        "MOSAIC"
],
      "ImagedNucleus": "1H",
      "ImagingFrequency": 123.250746,
      "InPlanePhaseEncodingDirection": "COL",
      "MRAcquisitionType": "2D",
      "MagneticFieldStrength": 3.0,
      "Manufacturer": "SIEMENS",
      "ManufacturerModelName": "Prisma_fit",
      "Modality": "MR",
      "NumberOfAverages": 1.0,
      "NumberOfPhaseEncodingSteps": 88,
      "PercentPhaseFieldOfView": 100.0,
      "PercentSampling": 100.0,
      "PerformedProcedureStepStartTime": "184918.066000",
      "PhotometricInterpretation": "MONOCHROME2",
      "PixelBandwidth": 2185.0,
      "PixelRepresentation": 0,
      "PixelSpacing": [2.3977272510529, 2.3977272510529],
      "ProtocolName": "func-bold_task-RDMmotion_run-06",
      "RepetitionTime": 1200.0,
      "Rows": 704,
      "SAR": 0.05202639529665,
      "SamplesPerPixel": 1,
      "ScanOptions": "FS",
      "ScanningSequence": "EP",
      "SequenceName": "*epfid2d1_88",
      "SequenceVariant": "SK",
      "SeriesDescription": "func-bold_task-RDMmotion_run-06",
      "SeriesNumber": 17,
      "SeriesTime": "200731.740000",
      "SliceLocation": -45.092581415279,
      "SliceThickness": 2.4000000953674,
      "SmallestImagePixelValue": 0,
      "SoftwareVersions": "syngo MR E11",
      "SpacingBetweenSlices": 2.3999999476495,
      "SpecificCharacterSet": "ISO_IR 100",
      "StudyID": "1",
      "StudyTime": "184917.972000",
      "TransmitCoilName": "Body",
      "VariableFlipAngleFlag": "N",
      "WindowCenterWidthExplanation": "Algo1",
      "dBdt": 0.0},
    "slices": {}
  },
  "time": {
    "samples": {
      "AcquisitionNumber": [1, 2, 3, 4, 5, 6, 7, 8, 9, 10, 11, 12, 13, 14, 15, 16, 17, 18, 19, 20, 21, 22, 23, 24, 25, 26, 27, 28, 29, 30, 31, 32, 33, 34, 35, 36, 37, 38, 39, 40, 41, 42, 43, 44, 45, 46, 47, 48, 49, 50, 51, 52, 53, 54, 55, 56, 57, 58, 59, 60, 61, 62, 63, 64, 65, 66, 67, 68, 69, 70, 71, 72, 73, 74, 75, 76, 77, 78, 79, 80, 81, 82, 83, 84, 85, 86, 87, 88, 89, 90, 91, 92, 93, 94, 95, 96, 97, 98, 99, 100, 101, 102, 103, 104, 105, 106, 107, 108, 109, 110, 111, 112, 113, 114, 115, 116, 117, 118, 119, 120, 121, 122, 123, 124, 125],
      "AcquisitionTime": ["200700.547500", "200701.747500", "200702.947500", "200704.147500", "200705.347500", "200706.547500", "200707.747500", "200708.947500", "200710.147500", "200711.347500", "200712.547500", "200713.747500", "200714.947500", "200716.147500", "200717.347500", "200718.547500", "200719.747500", "200720.947500", "200722.147500", "200723.347500", "200724.547500", "200725.747500", "200726.947500", "200728.147500", "200729.347500", "200730.547500", "200731.747500", "200732.947500", "200734.147500", "200735.347500", "200736.547500", "200737.747500", "200738.947500", "200740.147500", "200741.347500", "200742.547500", "200743.747500", "200744.947500", "200746.147500", "200747.347500", "200748.547500", "200749.747500", "200750.947500", "200752.147500", "200753.347500", "200754.547500", "200755.747500", "200756.947500", "200758.147500", "200759.347500", "200800.547500", "200801.747500", "200802.947500", "200804.147500", "200805.347500", "200806.547500", "200807.747500", "200808.947500", "200810.147500", "200811.347500", "200812.547500", "200813.747500", "200814.947500", "200816.147500", "200817.347500", "200818.547500", "200819.747500", "200820.947500", "200822.147500", "200823.347500", "200824.547500", "200825.747500", "200826.947500", "200828.147500", "200829.347500", "200830.547500", "200831.747500", "200832.947500", "200834.147500", "200835.347500", "200836.547500", "200837.747500", "200838.947500", "200840.147500", "200841.347500", "200842.547500", "200843.747500", "200844.947500", "200846.147500", "200847.347500", "200848.547500", "200849.747500", "200850.947500", "200852.147500", "200853.347500", "200854.547500", "200855.747500", "200856.947500", "200858.147500", "200859.347500", "200900.547500", "200901.747500", "200902.947500", "200904.147500", "200905.347500", "200906.547500", "200907.747500", "200908.947500", "200910.147500", "200911.347500", "200912.547500", "200913.747500", "200914.947500", "200916.147500", "200917.347500", "200918.547500", "200919.747500", "200920.947500", "200922.147500", "200923.347500", "200924.547500", "200925.747500", "200926.947500", "200928.147500", "200929.347500"],
      "ContentTime": ["200731.744000", "200731.747000", "200731.750000", "200731.753000", "200731.766000", "200731.769000", "200731.771000", "200731.774000", "200731.776000", "200731.779000", "200731.781000", "200731.790000", "200731.792000", "200731.795000", "200731.797000", "200731.809000", "200731.812000", "200731.814000", "200731.817000", "200731.819000", "200731.823000", "200731.825000", "200731.828000", "200731.834000", "200731.836000", "200811.741000", "200811.743000", "200811.746000", "200811.749000", "200811.751000", "200811.754000", "200811.756000", "200811.759000", "200811.762000", "200811.764000", "200811.767000", "200811.769000", "200811.772000", "200811.774000", "200811.777000", "200811.780000", "200811.791000", "200811.794000", "200811.796000", "200811.799000", "200811.802000", "200811.804000", "200811.807000", "200811.809000", "200811.812000", "200811.814000", "200811.817000", "200811.820000", "200811.822000", "200811.825000", "200811.828000", "200811.831000", "200811.833000", "200851.739000", "200851.742000", "200851.745000", "200851.747000", "200851.750000", "200851.753000", "200851.755000", "200851.758000", "200851.761000", "200851.763000", "200851.766000", "200851.768000", "200851.771000", "200851.773000", "200851.776000", "200851.779000", "200851.781000", "200851.784000", "200851.786000", "200851.789000", "200851.810000", "200851.813000", "200851.818000", "200851.820000", "200851.823000", "200851.825000", "200851.828000", "200851.830000", "200851.833000", "200851.835000", "200851.838000", "200851.841000", "200851.843000", "200851.846000", "200931.095000", "200931.098000", "200931.100000", "200931.103000", "200931.106000", "200931.108000", "200931.118000", "200931.120000", "200931.123000", "200931.125000", "200931.128000", "200931.131000", "200931.133000", "200931.136000", "200931.139000", "200931.141000", "200931.144000", "200931.147000", "200931.150000", "200931.152000", "200931.155000", "200931.158000", "200931.160000", "200931.163000", "200931.165000", "200931.168000", "200931.171000", "200931.173000", "200931.176000", "200931.179000", "200931.181000", "200931.184000", "200931.186000"],
      "InstanceCreationTime": ["200731.744000", "200731.747000", "200731.750000", "200731.753000", "200731.766000", "200731.769000", "200731.771000", "200731.774000", "200731.776000", "200731.779000", "200731.781000", "200731.790000", "200731.792000", "200731.795000", "200731.797000", "200731.809000", "200731.812000", "200731.814000", "200731.817000", "200731.819000", "200731.823000", "200731.825000", "200731.828000", "200731.834000", "200731.836000", "200811.741000", "200811.743000", "200811.746000", "200811.749000", "200811.751000", "200811.754000", "200811.756000", "200811.759000", "200811.762000", "200811.764000", "200811.767000", "200811.769000", "200811.772000", "200811.774000", "200811.777000", "200811.780000", "200811.791000", "200811.794000", "200811.796000", "200811.799000", "200811.802000", "200811.804000", "200811.807000", "200811.809000", "200811.812000", "200811.814000", "200811.817000", "200811.820000", "200811.822000", "200811.825000", "200811.828000", "200811.831000", "200811.833000", "200851.739000", "200851.742000", "200851.745000", "200851.747000", "200851.750000", "200851.753000", "200851.755000", "200851.758000", "200851.761000", "200851.763000", "200851.766000", "200851.768000", "200851.771000", "200851.773000", "200851.776000", "200851.779000", "200851.781000", "200851.784000", "200851.786000", "200851.789000", "200851.810000", "200851.813000", "200851.818000", "200851.820000", "200851.823000", "200851.825000", "200851.828000", "200851.830000", "200851.833000", "200851.835000", "200851.838000", "200851.841000", "200851.843000", "200851.846000", "200931.095000", "200931.098000", "200931.100000", "200931.103000", "200931.106000", "200931.108000", "200931.118000", "200931.120000", "200931.123000", "200931.125000", "200931.128000", "200931.131000", "200931.133000", "200931.136000", "200931.139000", "200931.141000", "200931.144000", "200931.147000", "200931.150000", "200931.152000", "200931.155000", "200931.158000", "200931.160000", "200931.163000", "200931.165000", "200931.168000", "200931.171000", "200931.173000", "200931.176000", "200931.179000", "200931.181000", "200931.184000", "200931.186000"],
      "InstanceNumber": [1, 2, 3, 4, 5, 6, 7, 8, 9, 10, 11, 12, 13, 14, 15, 16, 17, 18, 19, 20, 21, 22, 23, 24, 25, 26, 27, 28, 29, 30, 31, 32, 33, 34, 35, 36, 37, 38, 39, 40, 41, 42, 43, 44, 45, 46, 47, 48, 49, 50, 51, 52, 53, 54, 55, 56, 57, 58, 59, 60, 61, 62, 63, 64, 65, 66, 67, 68, 69, 70, 71, 72, 73, 74, 75, 76, 77, 78, 79, 80, 81, 82, 83, 84, 85, 86, 87, 88, 89, 90, 91, 92, 93, 94, 95, 96, 97, 98, 99, 100, 101, 102, 103, 104, 105, 106, 107, 108, 109, 110, 111, 112, 113, 114, 115, 116, 117, 118, 119, 120, 121, 122, 123, 124, 125],
      "LargestImagePixelValue": [2105, 2027, 1959, 1955, 1904, 1921, 1894, 1926, 1895, 1909, 1951, 1922, 1930, 1896, 1916, 1935, 1912, 1928, 1903, 1916, 1938, 1932, 1933, 1912, 1933, 1943, 1921, 1926, 1919, 1932, 1914, 1919, 1900, 1919, 1933, 1915, 1912, 1906, 1926, 1909, 1918, 1903, 1942, 1894, 1930, 1897, 1940, 1918, 1926, 1918, 1943, 1920, 1937, 1926, 1901, 1928, 1923, 1921, 1925, 1908, 1932, 1933, 1914, 1918, 1923, 1928, 1916, 1905, 1940, 1907, 1932, 1926, 1920, 1911, 1883, 1924, 1897, 1934, 1912, 1921, 1911, 1917, 1910, 1888, 1918, 1894, 1930, 1914, 1923, 1914, 1893, 1930, 1912, 1912, 1913, 1929, 1893, 1921, 1892, 1929, 1894, 1923, 1878, 1918, 1884, 1918, 1889, 1926, 1883, 1919, 1900, 1910, 1914, 1903, 1884, 1909, 1926, 1906, 1923, 1867, 1916, 1921, 1897, 1936, 1905],
      "WindowCenter": [589.0, 587.0, 586.0, 586.0, 586.0, 586.0, 587.0, 587.0, 586.0, 586.0, 586.0, 585.0, 585.0, 584.0, 584.0, 585.0, 585.0, 585.0, 584.0, 585.0, 585.0, 585.0, 585.0, 584.0, 585.0, 585.0, 584.0, 585.0, 585.0, 585.0, 586.0, 586.0, 585.0, 585.0, 585.0, 585.0, 585.0, 585.0, 586.0, 586.0, 586.0, 586.0, 586.0, 585.0, 585.0, 585.0, 586.0, 586.0, 586.0, 585.0, 586.0, 585.0, 585.0, 584.0, 584.0, 585.0, 584.0, 585.0, 585.0, 584.0, 585.0, 584.0, 585.0, 585.0, 585.0, 585.0, 584.0, 584.0, 585.0, 584.0, 584.0, 583.0, 584.0, 584.0, 584.0, 584.0, 584.0, 584.0, 584.0, 584.0, 584.0, 584.0, 584.0, 585.0, 585.0, 585.0, 585.0, 585.0, 584.0, 584.0, 584.0, 585.0, 585.0, 584.0, 584.0, 584.0, 584.0, 584.0, 584.0, 584.0, 585.0, 585.0, 585.0, 586.0, 585.0, 586.0, 584.0, 584.0, 584.0, 584.0, 584.0, 584.0, 584.0, 584.0, 585.0, 585.0, 586.0, 586.0, 585.0, 585.0, 585.0, 586.0, 586.0, 586.0, 585.0],
      "WindowWidth": [1256.0, 1251.0, 1249.0, 1249.0, 1249.0, 1251.0, 1253.0, 1252.0, 1251.0, 1249.0, 1249.0, 1248.0, 1247.0, 1246.0, 1246.0, 1246.0, 1246.0, 1247.0, 1246.0, 1247.0, 1247.0, 1246.0, 1247.0, 1246.0, 1247.0, 1247.0, 1246.0, 1247.0, 1247.0, 1247.0, 1249.0, 1249.0, 1248.0, 1248.0, 1248.0, 1247.0, 1248.0, 1248.0, 1250.0, 1250.0, 1249.0, 1249.0, 1249.0, 1248.0, 1247.0, 1247.0, 1249.0, 1249.0, 1249.0, 1248.0, 1248.0, 1246.0, 1246.0, 1245.0, 1245.0, 1246.0, 1246.0, 1248.0, 1247.0, 1246.0, 1247.0, 1245.0, 1246.0, 1247.0, 1247.0, 1248.0, 1246.0, 1246.0, 1246.0, 1244.0, 1244.0, 1244.0, 1245.0, 1245.0, 1245.0, 1246.0, 1246.0, 1246.0, 1245.0, 1244.0, 1246.0, 1246.0, 1246.0, 1246.0, 1248.0, 1248.0, 1248.0, 1247.0, 1245.0, 1245.0, 1244.0, 1247.0, 1247.0, 1246.0, 1246.0, 1245.0, 1244.0, 1244.0, 1245.0, 1245.0, 1247.0, 1248.0, 1249.0, 1249.0, 1248.0, 1249.0, 1246.0, 1245.0, 1244.0, 1245.0, 1245.0, 1246.0, 1245.0, 1245.0, 1247.0, 1248.0, 1249.0, 1249.0, 1247.0, 1248.0, 1247.0, 1249.0, 1248.0, 1248.0, 1247.0]
    },
    "slices": {}
  }
}