{
  "AcquisitionMatrixPE": 88,
  "AcquisitionNumber": 1,
  "AcquisitionTime": "19:46:19.982500",
  "BandwidthPerPixelPhaseEncode": 19.592,
  "BaseResolution": 88,
  "BodyPartExamined": "BRAIN",
  "ConsistencyInfo": "N4_VE11C_LATEST_20160120",
  "ConversionSoftware": "dcm2niix",
  "ConversionSoftwareVersion": "v1.0.20190902",
  "DerivedVendorReportedEchoSpacing": 0.000580014,
  "DeviceSerialNumber": "67050",
  "DwellTime": 2.6e-06,
  "EchoTime": 0.033,
  "EchoTrainLength": 88,
  "EffectiveEchoSpacing": 0.000580014,
  "FlipAngle": 62,
  "ImageOrientationPatientDICOM": [0.998014, 0.0384476, -0.0498984, -0.0433997, 0.993808, -0.102289],
  "ImageType": [
    "ORIGINAL",
    "PRIMARY",
    "M",
    "ND",
    "MOSAIC"
],
  "ImagingFrequency": 123.251,
  "InPlanePhaseEncodingDirectionDICOM": "COL",
  "InstitutionAddress": "Olive_Street_60_Providence_RI_US_02912",
  "InstitutionName": "BROWN_UNIVERSITY_MRF",
  "InstitutionalDepartmentName": "Department",
  "MRAcquisitionType": "2D",
  "MagneticFieldStrength": 3,
  "Manufacturer": "Siemens",
  "ManufacturersModelName": "Prisma_fit",
  "Modality": "MR",
  "MultibandAccelerationFactor": 4,
  "PartialFourier": 1,
  "PatientPosition": "HFS",
  "PercentPhaseFOV": 100,
  "PhaseEncodingDirection": "j-",
  "PhaseEncodingSteps": 88,
  "PhaseResolution": 1,
  "PixelBandwidth": 2185,
  "ProcedureStepDescription": "ASHENHAV_1222",
  "ProtocolName": "func-bold_task-RDMcolor_run-04",
  "PulseSequenceDetails": "%SiemensSeq%_ep2d_bold",
  "ReceiveCoilActiveElements": "HC1-7",
  "ReceiveCoilName": "HeadNeck_64",
  "ReconMatrixPE": 88,
  "RefLinesPE": 8,
  "RepetitionTime": 1.2,
  "SAR": 0.0525599,
  "ScanOptions": "FS",
  "ScanningSequence": "EP",
  "SequenceName": "_epfid2d1_88",
  "SequenceVariant": "SK",
  "SeriesDescription": "func-bold_task-RDMcolor_run-04",
  "SeriesNumber": 14,
  "ShimSetting": [1741, -9068, 4403, 269, -89, -72, 6, -9],
  "SliceThickness": 2.4,
  "SliceTiming": [0.5525, 0, 0.63, 0.08, 0.7075, 0.1575, 0.7875, 0.2375, 0.865, 0.315, 0.945, 0.395, 1.0225, 0.4725, 1.1025, 0.5525, 0, 0.63, 0.08, 0.7075, 0.1575, 0.7875, 0.2375, 0.865, 0.315, 0.945, 0.395, 1.0225, 0.4725, 1.1025, 0.5525, 0, 0.63, 0.08, 0.7075, 0.1575, 0.7875, 0.2375, 0.865, 0.315, 0.945, 0.395, 1.0225, 0.4725, 1.1025, 0.5525, 0, 0.63, 0.08, 0.7075, 0.1575, 0.7875, 0.2375, 0.865, 0.315, 0.945, 0.395, 1.0225, 0.4725, 1.1025],
  "SoftwareVersions": "syngo_MR_E11",
  "SpacingBetweenSlices": 2.4,
  "StationName": "AWP67050",
  "TaskName": "RDMcolor",
  "TotalReadoutTime": 0.0504612,
  "TxRefAmp": 217.047,
  "dcmmeta_affine": [
    [-2.392965316772461, -0.10406072437763214, -0.10957609117031097, 114.28421783447266],
    [-0.09218680113554001, 2.3828794956207275, -0.2502027750015259, -94.86282348632812],
    [-0.11964287608861923, 0.24526047706604004, 2.3844058513641357, -50.089759826660156],
    [0.0, 0.0, 0.0, 1.0]
],
  "dcmmeta_reorient_transform": [
    [0.0, -1.0, 0.0, 87.0],
    [1.0, 0.0, 0.0, 0.0],
    [0.0, 0.0, 1.0, 0.0],
    [0.0, 0.0, 0.0, 1.0]
],
  "dcmmeta_shape": [88, 88, 60, 392],
  "dcmmeta_slice_dim": 2,
  "dcmmeta_version": 0.6,
  "global": {
    "const": {
      "AcquisitionMatrix": [88, 0, 0, 88],
      "AngioFlag": "N",
      "BitsAllocated": 16,
      "BitsStored": 12,
      "BodyPartExamined": "BRAIN",
      "Columns": 704,
      "DeidentificationMethodCodeSequence": [
        {
          "CodeMeaning": "XNAT DicomEdit 6 Script",
          "CodeValue": "3",
          "CodingSchemeDesignator": "XNAT",
          "CodingSchemeVersion": "1.0"}
],
      "EchoNumbers": 1,
      "EchoTime": 33.0,
      "EchoTrainLength": 88,
      "FlipAngle": 62.0,
      "HighBit": 11,
      "ImageOrientationPatient": [0.9980139920881, 0.03844757699521, -0.0498984510739, -0.0433997342538, 0.99380756643847, -0.1022887283934],
      "ImagePositionPatient": [-810.21355608212, -874.76810938379, 83.638132239951],
      "ImageType": [
        "ORIGINAL",
        "PRIMARY",
        "M",
        "ND",
        "MOSAIC"
],
      "ImagedNucleus": "1H",
      "ImagingFrequency": 123.250726,
      "InPlanePhaseEncodingDirection": "COL",
      "MRAcquisitionType": "2D",
      "MagneticFieldStrength": 3.0,
      "Manufacturer": "SIEMENS",
      "ManufacturerModelName": "Prisma_fit",
      "Modality": "MR",
      "NumberOfAverages": 1.0,
      "NumberOfPhaseEncodingSteps": 88,
      "PercentPhaseFieldOfView": 100.0,
      "PercentSampling": 100.0,
      "PerformedProcedureStepStartTime": "184918.066000",
      "PhotometricInterpretation": "MONOCHROME2",
      "PixelBandwidth": 2185.0,
      "PixelRepresentation": 0,
      "PixelSpacing": [2.3977272510529, 2.3977272510529],
      "ProtocolName": "func-bold_task-RDMcolor_run-04",
      "RepetitionTime": 1200.0,
      "Rows": 704,
      "SAR": 0.05255989591746,
      "SamplesPerPixel": 1,
      "ScanOptions": "FS",
      "ScanningSequence": "EP",
      "SequenceName": "*epfid2d1_88",
      "SequenceVariant": "SK",
      "SeriesDescription": "func-bold_task-RDMcolor_run-04",
      "SeriesNumber": 14,
      "SeriesTime": "194651.741000",
      "SliceLocation": -45.092581415279,
      "SliceThickness": 2.4000000953674,
      "SmallestImagePixelValue": 0,
      "SoftwareVersions": "syngo MR E11",
      "SpacingBetweenSlices": 2.3999999476495,
      "SpecificCharacterSet": "ISO_IR 100",
      "StudyID": "1",
      "StudyTime": "184917.972000",
      "TransmitCoilName": "Body",
      "VariableFlipAngleFlag": "N",
      "WindowCenterWidthExplanation": "Algo1",
      "dBdt": 0.0},
    "slices": {}
  },
  "time": {
    "samples": {
      "AcquisitionNumber": [1, 2, 3, 4, 5, 6, 7, 8, 9, 10, 11, 12, 13, 14, 15, 16, 17, 18, 19, 20, 21, 22, 23, 24, 25, 26, 27, 28, 29, 30, 31, 32, 33, 34, 35, 36, 37, 38, 39, 40, 41, 42, 43, 44, 45, 46, 47, 48, 49, 50, 51, 52, 53, 54, 55, 56, 57, 58, 59, 60, 61, 62, 63, 64, 65, 66, 67, 68, 69, 70, 71, 72, 73, 74, 75, 76, 77, 78, 79, 80, 81, 82, 83, 84, 85, 86, 87, 88, 89, 90, 91, 92, 93, 94, 95, 96, 97, 98, 99, 100, 101, 102, 103, 104, 105, 106, 107, 108, 109, 110, 111, 112, 113, 114, 115, 116, 117, 118, 119, 120, 121, 122, 123, 124, 125, 126, 127, 128, 129, 130, 131, 132, 133, 134, 135, 136, 137, 138, 139, 140, 141, 142, 143, 144, 145, 146, 147, 148, 149, 150, 151, 152, 153, 154, 155, 156, 157, 158, 159, 160, 161, 162, 163, 164, 165, 166, 167, 168, 169, 170, 171, 172, 173, 174, 175, 176, 177, 178, 179, 180, 181, 182, 183, 184, 185, 186, 187, 188, 189, 190, 191, 192, 193, 194, 195, 196, 197, 198, 199, 200, 201, 202, 203, 204, 205, 206, 207, 208, 209, 210, 211, 212, 213, 214, 215, 216, 217, 218, 219, 220, 221, 222, 223, 224, 225, 226, 227, 228, 229, 230, 231, 232, 233, 234, 235, 236, 237, 238, 239, 240, 241, 242, 243, 244, 245, 246, 247, 248, 249, 250, 251, 252, 253, 254, 255, 256, 257, 258, 259, 260, 261, 262, 263, 264, 265, 266, 267, 268, 269, 270, 271, 272, 273, 274, 275, 276, 277, 278, 279, 280, 281, 282, 283, 284, 285, 286, 287, 288, 289, 290, 291, 292, 293, 294, 295, 296, 297, 298, 299, 300, 301, 302, 303, 304, 305, 306, 307, 308, 309, 310, 311, 312, 313, 314, 315, 316, 317, 318, 319, 320, 321, 322, 323, 324, 325, 326, 327, 328, 329, 330, 331, 332, 333, 334, 335, 336, 337, 338, 339, 340, 341, 342, 343, 344, 345, 346, 347, 348, 349, 350, 351, 352, 353, 354, 355, 356, 357, 358, 359, 360, 361, 362, 363, 364, 365, 366, 367, 368, 369, 370, 371, 372, 373, 374, 375, 376, 377, 378, 379, 380, 381, 382, 383, 384, 385, 386, 387, 388, 389, 390, 391, 392],
      "AcquisitionTime": ["194619.982500", "194621.182500", "194622.382500", "194623.582500", "194624.782500", "194625.982500", "194627.182500", "194628.382500", "194629.582500", "194630.782500", "194631.982500", "194633.182500", "194634.382500", "194635.582500", "194636.782500", "194637.982500", "194639.182500", "194640.382500", "194641.582500", "194642.782500", "194643.982500", "194645.182500", "194646.382500", "194647.582500", "194648.782500", "194649.982500", "194651.182500", "194652.382500", "194653.582500", "194654.782500", "194655.982500", "194657.182500", "194658.382500", "194659.582500", "194700.782500", "194701.982500", "194703.182500", "194704.382500", "194705.582500", "194706.782500", "194707.982500", "194709.182500", "194710.382500", "194711.582500", "194712.782500", "194713.982500", "194715.182500", "194716.382500", "194717.582500", "194718.782500", "194719.982500", "194721.182500", "194722.382500", "194723.582500", "194724.782500", "194725.982500", "194727.182500", "194728.382500", "194729.582500", "194730.782500", "194731.982500", "194733.182500", "194734.382500", "194735.582500", "194736.782500", "194737.982500", "194739.182500", "194740.382500", "194741.582500", "194742.782500", "194743.982500", "194745.182500", "194746.382500", "194747.582500", "194748.782500", "194749.982500", "194751.182500", "194752.382500", "194753.582500", "194754.782500", "194755.982500", "194757.182500", "194758.382500", "194759.582500", "194800.782500", "194801.982500", "194803.182500", "194804.382500", "194805.582500", "194806.782500", "194807.982500", "194809.182500", "194810.382500", "194811.582500", "194812.782500", "194813.982500", "194815.182500", "194816.382500", "194817.582500", "194818.782500", "194819.982500", "194821.182500", "194822.382500", "194823.582500", "194824.782500", "194825.982500", "194827.182500", "194828.382500", "194829.582500", "194830.782500", "194831.982500", "194833.182500", "194834.382500", "194835.582500", "194836.782500", "194837.982500", "194839.182500", "194840.382500", "194841.582500", "194842.782500", "194843.982500", "194845.182500", "194846.382500", "194847.582500", "194848.782500", "194849.982500", "194851.182500", "194852.382500", "194853.582500", "194854.782500", "194855.982500", "194857.182500", "194858.382500", "194859.582500", "194900.782500", "194901.982500", "194903.182500", "194904.382500", "194905.582500", "194906.782500", "194907.982500", "194909.182500", "194910.382500", "194911.582500", "194912.782500", "194913.982500", "194915.182500", "194916.382500", "194917.582500", "194918.782500", "194919.982500", "194921.182500", "194922.382500", "194923.582500", "194924.782500", "194925.982500", "194927.182500", "194928.382500", "194929.582500", "194930.782500", "194931.982500", "194933.182500", "194934.382500", "194935.582500", "194936.782500", "194937.982500", "194939.182500", "194940.382500", "194941.582500", "194942.782500", "194943.982500", "194945.182500", "194946.382500", "194947.582500", "194948.782500", "194949.982500", "194951.182500", "194952.382500", "194953.582500", "194954.782500", "194955.982500", "194957.182500", "194958.382500", "194959.582500", "195000.782500", "195001.982500", "195003.182500", "195004.382500", "195005.582500", "195006.782500", "195007.982500", "195009.182500", "195010.382500", "195011.582500", "195012.782500", "195013.982500", "195015.182500", "195016.382500", "195017.582500", "195018.782500", "195019.982500", "195021.182500", "195022.382500", "195023.582500", "195024.782500", "195025.982500", "195027.182500", "195028.382500", "195029.582500", "195030.782500", "195031.982500", "195033.182500", "195034.382500", "195035.582500", "195036.782500", "195037.982500", "195039.182500", "195040.382500", "195041.582500", "195042.782500", "195043.982500", "195045.182500", "195046.382500", "195047.582500", "195048.782500", "195049.982500", "195051.182500", "195052.382500", "195053.582500", "195054.782500", "195055.982500", "195057.182500", "195058.382500", "195059.582500", "195100.782500", "195101.982500", "195103.182500", "195104.382500", "195105.582500", "195106.782500", "195107.982500", "195109.182500", "195110.382500", "195111.582500", "195112.782500", "195113.982500", "195115.182500", "195116.382500", "195117.582500", "195118.782500", "195119.982500", "195121.182500", "195122.382500", "195123.582500", "195124.782500", "195125.982500", "195127.182500", "195128.382500", "195129.582500", "195130.782500", "195131.982500", "195133.182500", "195134.382500", "195135.582500", "195136.782500", "195137.982500", "195139.182500", "195140.382500", "195141.582500", "195142.782500", "195143.982500", "195145.182500", "195146.382500", "195147.582500", "195148.782500", "195149.982500", "195151.182500", "195152.382500", "195153.582500", "195154.782500", "195155.982500", "195157.182500", "195158.382500", "195159.582500", "195200.782500", "195201.982500", "195203.182500", "195204.382500", "195205.582500", "195206.782500", "195207.982500", "195209.182500", "195210.382500", "195211.582500", "195212.782500", "195213.982500", "195215.182500", "195216.382500", "195217.582500", "195218.782500", "195219.982500", "195221.182500", "195222.382500", "195223.582500", "195224.782500", "195225.982500", "195227.182500", "195228.382500", "195229.582500", "195230.782500", "195231.982500", "195233.182500", "195234.382500", "195235.582500", "195236.782500", "195237.982500", "195239.182500", "195240.382500", "195241.582500", "195242.782500", "195243.982500", "195245.182500", "195246.382500", "195247.582500", "195248.782500", "195249.982500", "195251.182500", "195252.382500", "195253.582500", "195254.782500", "195255.982500", "195257.182500", "195258.382500", "195259.582500", "195300.782500", "195301.982500", "195303.182500", "195304.382500", "195305.582500", "195306.782500", "195307.982500", "195309.182500", "195310.382500", "195311.582500", "195312.782500", "195313.982500", "195315.182500", "195316.382500", "195317.582500", "195318.782500", "195319.982500", "195321.182500", "195322.382500", "195323.582500", "195324.782500", "195325.982500", "195327.182500", "195328.382500", "195329.582500", "195330.782500", "195331.982500", "195333.182500", "195334.382500", "195335.582500", "195336.782500", "195337.982500", "195339.182500", "195340.382500", "195341.582500", "195342.782500", "195343.982500", "195345.182500", "195346.382500", "195347.582500", "195348.782500", "195349.982500", "195351.182500", "195352.382500", "195353.582500", "195354.782500", "195355.982500", "195357.182500", "195358.382500", "195359.582500", "195400.782500", "195401.982500", "195403.182500", "195404.382500", "195405.582500", "195406.782500", "195407.982500", "195409.182500"],
      "ContentTime": ["194651.745000", "194651.748000", "194651.750000", "194651.753000", "194651.761000", "194651.763000", "194651.766000", "194651.768000", "194651.771000", "194651.773000", "194651.776000", "194651.778000", "194651.781000", "194651.784000", "194651.786000", "194651.789000", "194651.791000", "194651.794000", "194651.796000", "194651.799000", "194651.802000", "194651.809000", "194651.812000", "194651.814000", "194651.817000", "194651.819000", "194731.740000", "194731.742000", "194731.745000", "194731.748000", "194731.750000", "194731.753000", "194731.755000", "194731.758000", "194731.761000", "194731.763000", "194731.766000", "194731.768000", "194731.771000", "194731.773000", "194731.776000", "194731.778000", "194731.781000", "194731.784000", "194731.798000", "194731.800000", "194731.803000", "194731.805000", "194731.808000", "194731.810000", "194731.813000", "194731.815000", "194731.818000", "194731.821000", "194731.824000", "194731.826000", "194731.829000", "194731.832000", "194731.834000", "194811.739000", "194811.742000", "194811.745000", "194811.747000", "194811.750000", "194811.752000", "194811.755000", "194811.758000", "194811.760000", "194811.763000", "194811.765000", "194811.768000", "194811.770000", "194811.773000", "194811.775000", "194811.778000", "194811.780000", "194811.783000", "194811.785000", "194811.801000", "194811.803000", "194811.806000", "194811.808000", "194811.811000", "194811.813000", "194811.816000", "194811.818000", "194811.821000", "194811.824000", "194811.826000", "194811.829000", "194811.831000", "194811.834000", "194851.740000", "194851.743000", "194851.751000", "194851.753000", "194851.756000", "194851.758000", "194851.761000", "194851.764000", "194851.766000", "194851.769000", "194851.771000", "194851.774000", "194851.776000", "194851.779000", "194851.781000", "194851.784000", "194851.787000", "194851.789000", "194851.792000", "194851.795000", "194851.797000", "194851.800000", "194851.802000", "194851.805000", "194851.807000", "194851.810000", "194851.812000", "194851.815000", "194851.817000", "194851.820000", "194851.823000", "194851.825000", "194851.828000", "194851.830000", "194931.740000", "194931.743000", "194931.746000", "194931.748000", "194931.751000", "194931.754000", "194931.756000", "194931.759000", "194931.761000", "194931.764000", "194931.766000", "194931.769000", "194931.771000", "194931.774000", "194931.777000", "194931.779000", "194931.782000", "194931.784000", "194931.787000", "194931.790000", "194931.792000", "194931.795000", "194931.797000", "194931.800000", "194931.802000", "194931.805000", "194931.808000", "194931.810000", "194931.813000", "194931.815000", "194931.818000", "194931.821000", "194931.824000", "195011.740000", "195011.742000", "195011.745000", "195011.748000", "195011.750000", "195011.753000", "195011.755000", "195011.758000", "195011.760000", "195011.763000", "195011.765000", "195011.768000", "195011.771000", "195011.773000", "195011.776000", "195011.778000", "195011.781000", "195011.783000", "195011.786000", "195011.789000", "195011.791000", "195011.794000", "195011.797000", "195011.799000", "195011.802000", "195011.804000", "195011.807000", "195011.810000", "195011.812000", "195011.815000", "195011.817000", "195011.820000", "195011.822000", "195051.739000", "195051.742000", "195051.745000", "195051.747000", "195051.750000", "195051.753000", "195051.755000", "195051.758000", "195051.760000", "195051.763000", "195051.765000", "195051.768000", "195051.771000", "195051.773000", "195051.776000", "195051.778000", "195051.781000", "195051.783000", "195051.786000", "195051.789000", "195051.791000", "195051.794000", "195051.796000", "195051.799000", "195051.802000", "195051.804000", "195051.807000", "195051.809000", "195051.812000", "195051.814000", "195051.817000", "195051.819000", "195051.822000", "195051.825000", "195131.740000", "195131.743000", "195131.746000", "195131.748000", "195131.751000", "195131.754000", "195131.756000", "195131.759000", "195131.761000", "195131.764000", "195131.767000", "195131.769000", "195131.772000", "195131.774000", "195131.777000", "195131.780000", "195131.791000", "195131.794000", "195131.796000", "195131.799000", "195131.802000", "195131.804000", "195131.807000", "195131.809000", "195131.812000", "195131.815000", "195131.817000", "195131.820000", "195131.823000", "195131.825000", "195131.828000", "195131.831000", "195131.833000", "195211.739000", "195211.742000", "195211.745000", "195211.761000", "195211.764000", "195211.766000", "195211.769000", "195211.771000", "195211.774000", "195211.776000", "195211.779000", "195211.782000", "195211.784000", "195211.787000", "195211.789000", "195211.792000", "195211.794000", "195211.797000", "195211.800000", "195211.802000", "195211.805000", "195211.807000", "195211.810000", "195211.812000", "195211.815000", "195211.818000", "195211.820000", "195211.823000", "195211.825000", "195211.828000", "195211.830000", "195211.833000", "195211.836000", "195251.740000", "195251.742000", "195251.745000", "195251.748000", "195251.750000", "195251.753000", "195251.756000", "195251.758000", "195251.761000", "195251.763000", "195251.766000", "195251.768000", "195251.771000", "195251.773000", "195251.776000", "195251.779000", "195251.781000", "195251.784000", "195251.787000", "195251.789000", "195251.792000", "195251.794000", "195251.797000", "195251.800000", "195251.802000", "195251.805000", "195251.807000", "195251.810000", "195251.812000", "195251.815000", "195251.818000", "195251.820000", "195251.823000", "195251.825000", "195331.740000", "195331.742000", "195331.745000", "195331.748000", "195331.751000", "195331.753000", "195331.756000", "195331.758000", "195331.761000", "195331.763000", "195331.766000", "195331.769000", "195331.771000", "195331.774000", "195331.777000", "195331.779000", "195331.782000", "195331.784000", "195331.787000", "195331.789000", "195331.792000", "195331.795000", "195331.797000", "195331.800000", "195331.803000", "195331.805000", "195331.808000", "195331.811000", "195331.813000", "195331.816000", "195331.819000", "195331.822000", "195331.824000", "195410.786000", "195410.789000", "195410.792000", "195410.794000", "195410.797000", "195410.800000", "195410.802000", "195410.805000", "195410.808000", "195410.810000", "195410.813000", "195410.816000", "195410.818000", "195410.821000", "195410.823000", "195410.826000", "195410.829000", "195410.831000", "195410.834000", "195410.836000", "195410.839000", "195410.842000", "195410.844000", "195410.847000", "195410.849000", "195410.852000", "195410.854000", "195410.857000", "195410.860000", "195410.862000", "195410.865000", "195410.868000", "195410.870000"],
      "InstanceCreationTime": ["194651.745000", "194651.748000", "194651.750000", "194651.753000", "194651.761000", "194651.763000", "194651.766000", "194651.768000", "194651.771000", "194651.773000", "194651.776000", "194651.778000", "194651.781000", "194651.784000", "194651.786000", "194651.789000", "194651.791000", "194651.794000", "194651.796000", "194651.799000", "194651.802000", "194651.809000", "194651.812000", "194651.814000", "194651.817000", "194651.819000", "194731.740000", "194731.742000", "194731.745000", "194731.748000", "194731.750000", "194731.753000", "194731.755000", "194731.758000", "194731.761000", "194731.763000", "194731.766000", "194731.768000", "194731.771000", "194731.773000", "194731.776000", "194731.778000", "194731.781000", "194731.784000", "194731.798000", "194731.800000", "194731.803000", "194731.805000", "194731.808000", "194731.810000", "194731.813000", "194731.815000", "194731.818000", "194731.821000", "194731.824000", "194731.826000", "194731.829000", "194731.832000", "194731.834000", "194811.739000", "194811.742000", "194811.745000", "194811.747000", "194811.750000", "194811.752000", "194811.755000", "194811.758000", "194811.760000", "194811.763000", "194811.765000", "194811.768000", "194811.770000", "194811.773000", "194811.775000", "194811.778000", "194811.780000", "194811.783000", "194811.785000", "194811.801000", "194811.803000", "194811.806000", "194811.808000", "194811.811000", "194811.813000", "194811.816000", "194811.818000", "194811.821000", "194811.824000", "194811.826000", "194811.829000", "194811.831000", "194811.834000", "194851.740000", "194851.743000", "194851.751000", "194851.753000", "194851.756000", "194851.758000", "194851.761000", "194851.764000", "194851.766000", "194851.769000", "194851.771000", "194851.774000", "194851.776000", "194851.779000", "194851.781000", "194851.784000", "194851.787000", "194851.789000", "194851.792000", "194851.795000", "194851.797000", "194851.800000", "194851.802000", "194851.805000", "194851.807000", "194851.810000", "194851.812000", "194851.815000", "194851.817000", "194851.820000", "194851.823000", "194851.825000", "194851.828000", "194851.830000", "194931.740000", "194931.743000", "194931.746000", "194931.748000", "194931.751000", "194931.754000", "194931.756000", "194931.759000", "194931.761000", "194931.764000", "194931.766000", "194931.769000", "194931.771000", "194931.774000", "194931.777000", "194931.779000", "194931.782000", "194931.784000", "194931.787000", "194931.790000", "194931.792000", "194931.795000", "194931.797000", "194931.800000", "194931.802000", "194931.805000", "194931.808000", "194931.810000", "194931.813000", "194931.815000", "194931.818000", "194931.821000", "194931.824000", "195011.740000", "195011.742000", "195011.745000", "195011.748000", "195011.750000", "195011.753000", "195011.755000", "195011.758000", "195011.760000", "195011.763000", "195011.765000", "195011.768000", "195011.771000", "195011.773000", "195011.776000", "195011.778000", "195011.781000", "195011.783000", "195011.786000", "195011.789000", "195011.791000", "195011.794000", "195011.797000", "195011.799000", "195011.802000", "195011.804000", "195011.807000", "195011.810000", "195011.812000", "195011.815000", "195011.817000", "195011.820000", "195011.822000", "195051.739000", "195051.742000", "195051.745000", "195051.747000", "195051.750000", "195051.753000", "195051.755000", "195051.758000", "195051.760000", "195051.763000", "195051.765000", "195051.768000", "195051.771000", "195051.773000", "195051.776000", "195051.778000", "195051.781000", "195051.783000", "195051.786000", "195051.789000", "195051.791000", "195051.794000", "195051.796000", "195051.799000", "195051.802000", "195051.804000", "195051.807000", "195051.809000", "195051.812000", "195051.814000", "195051.817000", "195051.819000", "195051.822000", "195051.825000", "195131.740000", "195131.743000", "195131.746000", "195131.748000", "195131.751000", "195131.754000", "195131.756000", "195131.759000", "195131.761000", "195131.764000", "195131.767000", "195131.769000", "195131.772000", "195131.774000", "195131.777000", "195131.780000", "195131.791000", "195131.794000", "195131.796000", "195131.799000", "195131.802000", "195131.804000", "195131.807000", "195131.809000", "195131.812000", "195131.815000", "195131.817000", "195131.820000", "195131.823000", "195131.825000", "195131.828000", "195131.831000", "195131.833000", "195211.739000", "195211.742000", "195211.745000", "195211.761000", "195211.764000", "195211.766000", "195211.769000", "195211.771000", "195211.774000", "195211.776000", "195211.779000", "195211.782000", "195211.784000", "195211.787000", "195211.789000", "195211.792000", "195211.794000", "195211.797000", "195211.800000", "195211.802000", "195211.805000", "195211.807000", "195211.810000", "195211.812000", "195211.815000", "195211.818000", "195211.820000", "195211.823000", "195211.825000", "195211.828000", "195211.830000", "195211.833000", "195211.836000", "195251.740000", "195251.742000", "195251.745000", "195251.748000", "195251.750000", "195251.753000", "195251.756000", "195251.758000", "195251.761000", "195251.763000", "195251.766000", "195251.768000", "195251.771000", "195251.773000", "195251.776000", "195251.779000", "195251.781000", "195251.784000", "195251.787000", "195251.789000", "195251.792000", "195251.794000", "195251.797000", "195251.800000", "195251.802000", "195251.805000", "195251.807000", "195251.810000", "195251.812000", "195251.815000", "195251.818000", "195251.820000", "195251.823000", "195251.825000", "195331.740000", "195331.742000", "195331.745000", "195331.748000", "195331.751000", "195331.753000", "195331.756000", "195331.758000", "195331.761000", "195331.763000", "195331.766000", "195331.769000", "195331.771000", "195331.774000", "195331.777000", "195331.779000", "195331.782000", "195331.784000", "195331.787000", "195331.789000", "195331.792000", "195331.795000", "195331.797000", "195331.800000", "195331.803000", "195331.805000", "195331.808000", "195331.811000", "195331.813000", "195331.816000", "195331.819000", "195331.822000", "195331.824000", "195410.786000", "195410.789000", "195410.792000", "195410.794000", "195410.797000", "195410.800000", "195410.802000", "195410.805000", "195410.808000", "195410.810000", "195410.813000", "195410.816000", "195410.818000", "195410.821000", "195410.823000", "195410.826000", "195410.829000", "195410.831000", "195410.834000", "195410.836000", "195410.839000", "195410.842000", "195410.844000", "195410.847000", "195410.849000", "195410.852000", "195410.854000", "195410.857000", "195410.860000", "195410.862000", "195410.865000", "195410.868000", "195410.870000"],
      "InstanceNumber": [1, 2, 3, 4, 5, 6, 7, 8, 9, 10, 11, 12, 13, 14, 15, 16, 17, 18, 19, 20, 21, 22, 23, 24, 25, 26, 27, 28, 29, 30, 31, 32, 33, 34, 35, 36, 37, 38, 39, 40, 41, 42, 43, 44, 45, 46, 47, 48, 49, 50, 51, 52, 53, 54, 55, 56, 57, 58, 59, 60, 61, 62, 63, 64, 65, 66, 67, 68, 69, 70, 71, 72, 73, 74, 75, 76, 77, 78, 79, 80, 81, 82, 83, 84, 85, 86, 87, 88, 89, 90, 91, 92, 93, 94, 95, 96, 97, 98, 99, 100, 101, 102, 103, 104, 105, 106, 107, 108, 109, 110, 111, 112, 113, 114, 115, 116, 117, 118, 119, 120, 121, 122, 123, 124, 125, 126, 127, 128, 129, 130, 131, 132, 133, 134, 135, 136, 137, 138, 139, 140, 141, 142, 143, 144, 145, 146, 147, 148, 149, 150, 151, 152, 153, 154, 155, 156, 157, 158, 159, 160, 161, 162, 163, 164, 165, 166, 167, 168, 169, 170, 171, 172, 173, 174, 175, 176, 177, 178, 179, 180, 181, 182, 183, 184, 185, 186, 187, 188, 189, 190, 191, 192, 193, 194, 195, 196, 197, 198, 199, 200, 201, 202, 203, 204, 205, 206, 207, 208, 209, 210, 211, 212, 213, 214, 215, 216, 217, 218, 219, 220, 221, 222, 223, 224, 225, 226, 227, 228, 229, 230, 231, 232, 233, 234, 235, 236, 237, 238, 239, 240, 241, 242, 243, 244, 245, 246, 247, 248, 249, 250, 251, 252, 253, 254, 255, 256, 257, 258, 259, 260, 261, 262, 263, 264, 265, 266, 267, 268, 269, 270, 271, 272, 273, 274, 275, 276, 277, 278, 279, 280, 281, 282, 283, 284, 285, 286, 287, 288, 289, 290, 291, 292, 293, 294, 295, 296, 297, 298, 299, 300, 301, 302, 303, 304, 305, 306, 307, 308, 309, 310, 311, 312, 313, 314, 315, 316, 317, 318, 319, 320, 321, 322, 323, 324, 325, 326, 327, 328, 329, 330, 331, 332, 333, 334, 335, 336, 337, 338, 339, 340, 341, 342, 343, 344, 345, 346, 347, 348, 349, 350, 351, 352, 353, 354, 355, 356, 357, 358, 359, 360, 361, 362, 363, 364, 365, 366, 367, 368, 369, 370, 371, 372, 373, 374, 375, 376, 377, 378, 379, 380, 381, 382, 383, 384, 385, 386, 387, 388, 389, 390, 391, 392],
