{
  "AcquisitionMatrixPE": 88,
  "AcquisitionNumber": 1,
  "AcquisitionTime": "19:55:3.697500",
  "BandwidthPerPixelPhaseEncode": 19.592,
  "BaseResolution": 88,
  "BodyPartExamined": "BRAIN",
  "ConsistencyInfo": "N4_VE11C_LATEST_20160120",
  "ConversionSoftware": "dcm2niix",
  "ConversionSoftwareVersion": "v1.0.20190902",
  "DerivedVendorReportedEchoSpacing": 0.000580014,
  "DeviceSerialNumber": "67050",
  "DwellTime": 2.6e-06,
  "EchoTime": 0.033,
  "EchoTrainLength": 88,
  "EffectiveEchoSpacing": 0.000580014,
  "FlipAngle": 62,
  "ImageOrientationPatientDICOM": [0.998014, 0.0384476, -0.0498984, -0.0433997, 0.993808, -0.102289],
  "ImageType": [
    "ORIGINAL",
    "PRIMARY",
    "M",
    "ND",
    "MOSAIC"
],
  "ImagingFrequency": 123.251,
  "InPlanePhaseEncodingDirectionDICOM": "COL",
  "InstitutionAddress": "Olive_Street_60_Providence_RI_US_02912",
  "InstitutionName": "BROWN_UNIVERSITY_MRF",
  "InstitutionalDepartmentName": "Department",
  "MRAcquisitionType": "2D",
  "MagneticFieldStrength": 3,
  "Manufacturer": "Siemens",
  "ManufacturersModelName": "Prisma_fit",
  "Modality": "MR",
  "MultibandAccelerationFactor": 4,
  "PartialFourier": 1,
  "PatientPosition": "HFS",
  "PercentPhaseFOV": 100,
  "PhaseEncodingDirection": "j-",
  "PhaseEncodingSteps": 88,
  "PhaseResolution": 1,
  "PixelBandwidth": 2185,
  "ProcedureStepDescription": "ASHENHAV_1222",
  "ProtocolName": "func-bold_task-RDMmotion_run-05",
  "PulseSequenceDetails": "%SiemensSeq%_ep2d_bold",
  "ReceiveCoilActiveElements": "HC1-7",
  "ReceiveCoilName": "HeadNeck_64",
  "ReconMatrixPE": 88,
  "RefLinesPE": 8,
  "RepetitionTime": 1.2,
  "SAR": 0.0520264,
  "ScanOptions": "FS",
  "ScanningSequence": "EP",
  "SequenceName": "_epfid2d1_88",
  "SequenceVariant": "SK",
  "SeriesDescription": "func-bold_task-RDMmotion_run-05",
  "SeriesNumber": 15,
  "ShimSetting": [1741, -9068, 4403, 269, -89, -72, 6, -9],
  "SliceThickness": 2.4,
  "SliceTiming": [0.55, 0, 0.63, 0.08, 0.7075, 0.1575, 0.7875, 0.2375, 0.865, 0.315, 0.945, 0.395, 1.0225, 0.4725, 1.1025, 0.55, 0, 0.63, 0.08, 0.7075, 0.1575, 0.7875, 0.2375, 0.865, 0.315, 0.945, 0.395, 1.0225, 0.4725, 1.1025, 0.55, 0, 0.63, 0.08, 0.7075, 0.1575, 0.7875, 0.2375, 0.865, 0.315, 0.945, 0.395, 1.0225, 0.4725, 1.1025, 0.55, 0, 0.63, 0.08, 0.7075, 0.1575, 0.7875, 0.2375, 0.865, 0.315, 0.945, 0.395, 1.0225, 0.4725, 1.1025],
  "SoftwareVersions": "syngo_MR_E11",
  "SpacingBetweenSlices": 2.4,
  "StationName": "AWP67050",
  "TaskName": "RDMmotion",
  "TotalReadoutTime": 0.0504612,
  "TxRefAmp": 217.047,
  "dcmmeta_affine": [
    [-2.392965316772461, -0.10406072437763214, -0.10957609117031097, 114.28421783447266],
    [-0.09218680113554001, 2.3828794956207275, -0.2502027750015259, -94.86282348632812],
    [-0.11964287608861923, 0.24526047706604004, 2.3844058513641357, -50.089759826660156],
    [0.0, 0.0, 0.0, 1.0]
],
  "dcmmeta_reorient_transform": [
    [0.0, -1.0, 0.0, 87.0],
    [1.0, 0.0, 0.0, 0.0],
    [0.0, 0.0, 1.0, 0.0],
    [0.0, 0.0, 0.0, 1.0]
],
  "dcmmeta_shape": [88, 88, 60, 125],
  "dcmmeta_slice_dim": 2,
  "dcmmeta_version": 0.6,
  "global": {
    "const": {
      "AcquisitionMatrix": [88, 0, 0, 88],
      "AngioFlag": "N",
      "BitsAllocated": 16,
      "BitsStored": 12,
      "BodyPartExamined": "BRAIN",
      "Columns": 704,
      "DeidentificationMethodCodeSequence": [
        {
          "CodeMeaning": "XNAT DicomEdit 6 Script",
          "CodeValue": "3",
          "CodingSchemeDesignator": "XNAT",
          "CodingSchemeVersion": "1.0"}
],
      "EchoNumbers": 1,
      "EchoTime": 33.0,
      "EchoTrainLength": 88,
      "FlipAngle": 62.0,
      "HighBit": 11,
      "ImageOrientationPatient": [0.9980139920881, 0.03844757699521, -0.0498984510739, -0.0433997342538, 0.99380756643847, -0.1022887283934],
      "ImagePositionPatient": [-810.21355608212, -874.76810938379, 83.638132239951],
      "ImageType": [
        "ORIGINAL",
        "PRIMARY",
        "M",
        "ND",
        "MOSAIC"
],
      "ImagedNucleus": "1H",
      "ImagingFrequency": 123.250731,
      "InPlanePhaseEncodingDirection": "COL",
      "MRAcquisitionType": "2D",
      "MagneticFieldStrength": 3.0,
      "Manufacturer": "SIEMENS",
      "ManufacturerModelName": "Prisma_fit",
      "Modality": "MR",
      "NumberOfAverages": 1.0,
      "NumberOfPhaseEncodingSteps": 88,
      "PercentPhaseFieldOfView": 100.0,
      "PercentSampling": 100.0,
      "PerformedProcedureStepStartTime": "184918.066000",
      "PhotometricInterpretation": "MONOCHROME2",
      "PixelBandwidth": 2185.0,
      "PixelRepresentation": 0,
      "PixelSpacing": [2.3977272510529, 2.3977272510529],
      "ProtocolName": "func-bold_task-RDMmotion_run-05",
      "RepetitionTime": 1200.0,
      "Rows": 704,
      "SAR": 0.05202639529665,
      "SamplesPerPixel": 1,
      "ScanOptions": "FS",
      "ScanningSequence": "EP",
      "SequenceName": "*epfid2d1_88",
      "SequenceVariant": "SK",
      "SeriesDescription": "func-bold_task-RDMmotion_run-05",
      "SeriesNumber": 15,
      "SeriesTime": "195544.589000",
      "SliceLocation": -45.092581415279,
      "SliceThickness": 2.4000000953674,
      "SmallestImagePixelValue": 0,
      "SoftwareVersions": "syngo MR E11",
      "SpacingBetweenSlices": 2.3999999476495,
      "SpecificCharacterSet": "ISO_IR 100",
      "StudyID": "1",
      "StudyTime": "184917.972000",
      "TransmitCoilName": "Body",
      "VariableFlipAngleFlag": "N",
      "WindowCenterWidthExplanation": "Algo1",
      "dBdt": 0.0},
    "slices": {}
  },
  "time": {
    "samples": {
      "AcquisitionNumber": [1, 2, 3, 4, 5, 6, 7, 8, 9, 10, 11, 12, 13, 14, 15, 16, 17, 18, 19, 20, 21, 22, 23, 24, 25, 26, 27, 28, 29, 30, 31, 32, 33, 34, 35, 36, 37, 38, 39, 40, 41, 42, 43, 44, 45, 46, 47, 48, 49, 50, 51, 52, 53, 54, 55, 56, 57, 58, 59, 60, 61, 62, 63, 64, 65, 66, 67, 68, 69, 70, 71, 72, 73, 74, 75, 76, 77, 78, 79, 80, 81, 82, 83, 84, 85, 86, 87, 88, 89, 90, 91, 92, 93, 94, 95, 96, 97, 98, 99, 100, 101, 102, 103, 104, 105, 106, 107, 108, 109, 110, 111, 112, 113, 114, 115, 116, 117, 118, 119, 120, 121, 122, 123, 124, 125],
      "AcquisitionTime": ["195503.697500", "195504.897500", "195506.097500", "195507.297500", "195508.497500", "195509.697500", "195510.897500", "195512.097500", "195513.297500", "195514.497500", "195515.697500", "195516.897500", "195518.097500", "195519.297500", "195520.497500", "195521.697500", "195522.897500", "195524.097500", "195525.297500", "195526.497500", "195527.697500", "195528.897500", "195530.097500", "195531.297500", "195532.497500", "195533.697500", "195534.897500", "195536.097500", "195537.297500", "195538.497500", "195539.697500", "195540.897500", "195542.097500", "195543.297500", "195544.497500", "195545.697500", "195546.897500", "195548.097500", "195549.297500", "195550.497500", "195551.697500", "195552.897500", "195554.097500", "195555.297500", "195556.497500", "195557.697500", "195558.897500", "195600.097500", "195601.297500", "195602.497500", "195603.697500", "195604.897500", "195606.097500", "195607.297500", "195608.497500", "195609.697500", "195610.897500", "195612.097500", "195613.297500", "195614.497500", "195615.697500", "195616.897500", "195618.097500", "195619.297500", "195620.497500", "195621.697500", "195622.897500", "195624.097500", "195625.297500", "195626.497500", "195627.697500", "195628.897500", "195630.097500", "195631.297500", "195632.497500", "195633.697500", "195634.897500", "195636.097500", "195637.297500", "195638.497500", "195639.697500", "195640.897500", "195642.097500", "195643.297500", "195644.497500", "195645.697500", "195646.897500", "195648.097500", "195649.297500", "195650.497500", "195651.697500", "195652.897500", "195654.097500", "195655.297500", "195656.497500", "195657.697500", "195658.897500", "195700.097500", "195701.297500", "195702.497500", "195703.697500", "195704.897500", "195706.097500", "195707.297500", "195708.497500", "195709.697500", "195710.897500", "195712.097500", "195713.297500", "195714.497500", "195715.697500", "195716.897500", "195718.097500", "195719.297500", "195720.497500", "195721.697500", "195722.897500", "195724.097500", "195725.297500", "195726.497500", "195727.697500", "195728.897500", "195730.097500", "195731.297500", "195732.497500"],
      "ContentTime": ["195544.592000", "195544.596000", "195544.598000", "195544.601000", "195544.603000", "195544.606000", "195544.609000", "195544.611000", "195544.614000", "195544.617000", "195544.619000", "195544.622000", "195544.624000", "195544.627000", "195544.630000", "195544.632000", "195544.635000", "195544.637000", "195544.640000", "195544.643000", "195544.645000", "195544.648000", "195544.650000", "195544.659000", "195544.661000", "195544.664000", "195544.667000", "195544.669000", "195544.672000", "195544.675000", "195544.677000", "195544.680000", "195544.688000", "195544.691000", "195624.588000", "195624.590000", "195624.593000", "195624.596000", "195624.598000", "195624.617000", "195624.620000", "195624.622000", "195624.625000", "195624.627000", "195624.630000", "195624.632000", "195624.635000", "195624.638000", "195624.640000", "195624.643000", "195624.645000", "195624.648000", "195624.651000", "195624.653000", "195624.656000", "195624.658000", "195624.661000", "195624.663000", "195624.666000", "195624.669000", "195624.671000", "195624.674000", "195624.677000", "195624.679000", "195624.682000", "195624.684000", "195624.687000", "195704.589000", "195704.592000", "195704.594000", "195704.597000", "195704.599000", "195704.602000", "195704.605000", "195704.607000", "195704.610000", "195704.612000", "195704.615000", "195704.618000", "195704.620000", "195704.623000", "195704.625000", "195704.628000", "195704.630000", "195704.633000", "195704.636000", "195704.638000", "195704.641000", "195704.644000", "195704.646000", "195704.649000", "195704.651000", "195704.654000", "195704.657000", "195704.659000", "195704.662000", "195704.675000", "195704.677000", "195704.680000", "195704.683000", "195733.742000", "195733.745000", "195733.748000", "195733.750000", "195733.753000", "195733.755000", "195733.758000", "195733.761000", "195733.763000", "195733.766000", "195733.769000", "195733.771000", "195733.774000", "195733.776000", "195733.779000", "195733.782000", "195733.784000", "195733.787000", "195733.790000", "195733.792000", "195733.795000", "195733.798000", "195733.800000", "195733.803000", "195733.805000"],
      "InstanceCreationTime": ["195544.592000", "195544.596000", "195544.598000", "195544.601000", "195544.603000", "195544.606000", "195544.609000", "195544.611000", "195544.614000", "195544.617000", "195544.619000", "195544.622000", "195544.624000", "195544.627000", "195544.630000", "195544.632000", "195544.635000", "195544.637000", "195544.640000", "195544.643000", "195544.645000", "195544.648000", "195544.650000", "195544.659000", "195544.661000", "195544.664000", "195544.667000", "195544.669000", "195544.672000", "195544.675000", "195544.677000", "195544.680000", "195544.688000", "195544.691000", "195624.588000", "195624.590000", "195624.593000", "195624.596000", "195624.598000", "195624.617000", "195624.620000", "195624.622000", "195624.625000", "195624.627000", "195624.630000", "195624.632000", "195624.635000", "195624.638000", "195624.640000", "195624.643000", "195624.645000", "195624.648000", "195624.651000", "195624.653000", "195624.656000", "195624.658000", "195624.661000", "195624.663000", "195624.666000", "195624.669000", "195624.671000", "195624.674000", "195624.677000", "195624.679000", "195624.682000", "195624.684000", "195624.687000", "195704.589000", "195704.592000", "195704.594000", "195704.597000", "195704.599000", "195704.602000", "195704.605000", "195704.607000", "195704.610000", "195704.612000", "195704.615000", "195704.618000", "195704.620000", "195704.623000", "195704.625000", "195704.628000", "195704.630000", "195704.633000", "195704.636000", "195704.638000", "195704.641000", "195704.644000", "195704.646000", "195704.649000", "195704.651000", "195704.654000", "195704.657000", "195704.659000", "195704.662000", "195704.675000", "195704.677000", "195704.680000", "195704.683000", "195733.742000", "195733.745000", "195733.748000", "195733.750000", "195733.753000", "195733.755000", "195733.758000", "195733.761000", "195733.763000", "195733.766000", "195733.769000", "195733.771000", "195733.774000", "195733.776000", "195733.779000", "195733.782000", "195733.784000", "195733.787000", "195733.790000", "195733.792000", "195733.795000", "195733.798000", "195733.800000", "195733.803000", "195733.805000"],
      "InstanceNumber": [1, 2, 3, 4, 5, 6, 7, 8, 9, 10, 11, 12, 13, 14, 15, 16, 17, 18, 19, 20, 21, 22, 23, 24, 25, 26, 27, 28, 29, 30, 31, 32, 33, 34, 35, 36, 37, 38, 39, 40, 41, 42, 43, 44, 45, 46, 47, 48, 49, 50, 51, 52, 53, 54, 55, 56, 57, 58, 59, 60, 61, 62, 63, 64, 65, 66, 67, 68, 69, 70, 71, 72, 73, 74, 75, 76, 77, 78, 79, 80, 81, 82, 83, 84, 85, 86, 87, 88, 89, 90, 91, 92, 93, 94, 95, 96, 97, 98, 99, 100, 101, 102, 103, 104, 105, 106, 107, 108, 109, 110, 111, 112, 113, 114, 115, 116, 117, 118, 119, 120, 121, 122, 123, 124, 125],
      "LargestImagePixelValue": [2214, 2104, 2090, 2053, 2046, 2048, 2031, 2045, 2039, 2048, 2057, 2043, 2064, 2050, 2069, 2060, 2065, 2063, 2083, 2061, 2064, 2062, 2062, 2101, 2095, 2094, 2091, 2089, 2104, 2108, 2101, 2103, 2067, 2080, 2064, 2103, 2084, 2087, 2089, 2084, 2080, 2083, 2083, 2096, 2035, 2099, 2052, 2073, 2072, 2071, 2091, 2084, 2086, 2102, 2075, 2102, 2065, 2100, 2082, 2086, 2070, 2069, 2089, 2105, 2069, 2113, 2086, 2106, 2077, 2092, 2081, 2080, 2086, 2115, 2106, 2112, 2069, 2122, 2085, 2122, 2101, 2088, 2093, 2085, 2099, 2101, 2088, 2106, 2087, 2084, 2096, 2101, 2109, 2095, 2090, 2104, 2098, 2075, 2089, 2090, 2092, 2089, 2111, 2097, 2080, 2099, 2104, 2100, 2100, 2112, 2110, 2109, 2087, 2118, 2084, 2112, 2103, 2109, 2101, 2093, 2097, 2105, 2107, 2111, 2100],
      "WindowCenter": [602.0, 599.0, 598.0, 598.0, 598.0, 599.0, 599.0, 599.0, 598.0, 599.0, 599.0, 599.0, 600.0, 601.0, 601.0, 602.0, 602.0, 601.0, 601.0, 601.0, 601.0, 601.0, 601.0, 602.0, 602.0, 602.0, 602.0, 601.0, 602.0, 602.0, 601.0, 601.0, 601.0, 601.0, 601.0, 601.0, 601.0, 601.0, 601.0, 601.0, 601.0, 600.0, 600.0, 600.0, 600.0, 600.0, 600.0, 600.0, 601.0, 601.0, 601.0, 600.0, 600.0, 600.0, 600.0, 600.0, 599.0, 600.0, 601.0, 601.0, 601.0, 600.0, 600.0, 599.0, 600.0, 600.0, 600.0, 599.0, 599.0, 599.0, 599.0, 599.0, 599.0, 600.0, 600.0, 600.0, 600.0, 600.0, 600.0, 600.0, 599.0, 599.0, 599.0, 599.0, 600.0, 599.0, 600.0, 599.0, 599.0, 600.0, 600.0, 600.0, 600.0, 601.0, 601.0, 600.0, 600.0, 599.0, 599.0, 599.0, 599.0, 599.0, 600.0, 599.0, 599.0, 599.0, 598.0, 598.0, 598.0, 599.0, 600.0, 600.0, 600.0, 600.0, 600.0, 601.0, 601.0, 601.0, 600.0, 600.0, 601.0, 601.0, 602.0, 601.0, 601.0],
      "WindowWidth": [1285.0, 1279.0, 1277.0, 1278.0, 1278.0, 1280.0, 1280.0, 1280.0, 1279.0, 1279.0, 1279.0, 1280.0, 1281.0, 1284.0, 1285.0, 1287.0, 1287.0, 1286.0, 1285.0, 1284.0, 1284.0, 1285.0, 1285.0, 1286.0, 1286.0, 1286.0, 1286.0, 1285.0, 1286.0, 1286.0, 1285.0, 1285.0, 1284.0, 1285.0, 1284.0, 1284.0, 1283.0, 1284.0, 1284.0, 1284.0, 1284.0, 1282.0, 1282.0, 1282.0, 1282.0, 1282.0, 1282.0, 1283.0, 1283.0, 1284.0, 1284.0, 1283.0, 1283.0, 1283.0, 1282.0, 1282.0, 1281.0, 1282.0, 1283.0, 1283.0, 1283.0, 1281.0, 1281.0, 1281.0, 1281.0, 1281.0, 1281.0, 1281.0, 1281.0, 1280.0, 1280.0, 1279.0, 1280.0, 1282.0, 1282.0, 1283.0, 1282.0, 1283.0, 1281.0, 1281.0, 1280.0, 1280.0, 1280.0, 1280.0, 1281.0, 1281.0, 1281.0, 1280.0, 1281.0, 1281.0, 1282.0, 1282.0, 1283.0, 1283.0, 1283.0, 1282.0, 1282.0, 1280.0, 1279.0, 1279.0, 1280.0, 1280.0, 1281.0, 1280.0, 1279.0, 1278.0, 1278.0, 1278.0, 1278.0, 1280.0, 1281.0, 1281.0, 1282.0, 1282.0, 1282.0, 1284.0, 1284.0, 1284.0, 1283.0, 1282.0, 1283.0, 1284.0, 1285.0, 1285.0, 1284.0]
    },
    "slices": {}
  }
}