{
  "AcquisitionMatrixPE": 88,
  "AcquisitionNumber": 1,
  "AcquisitionTime": "19:22:18.940000",
  "BandwidthPerPixelPhaseEncode": 19.592,
  "BaseResolution": 88,
  "BodyPartExamined": "BRAIN",
  "ConsistencyInfo": "N4_VE11C_LATEST_20160120",
  "ConversionSoftware": "dcm2niix",
  "ConversionSoftwareVersion": "v1.0.20190902",
  "DerivedVendorReportedEchoSpacing": 0.000580014,
  "DeviceSerialNumber": "67050",
  "DwellTime": 2.6e-06,
  "EchoTime": 0.033,
  "EchoTrainLength": 88,
  "EffectiveEchoSpacing": 0.000580014,
  "FlipAngle": 62,
  "ImageOrientationPatientDICOM": [0.998014, 0.0384476, -0.0498984, -0.0433997, 0.993808, -0.102289],
  "ImageType": [
    "ORIGINAL",
    "PRIMARY",
    "M",
    "ND",
    "MOSAIC"
],
  "ImagingFrequency": 123.251,
  "InPlanePhaseEncodingDirectionDICOM": "COL",
  "InstitutionAddress": "Olive_Street_60_Providence_RI_US_02912",
  "InstitutionName": "BROWN_UNIVERSITY_MRF",
  "InstitutionalDepartmentName": "Department",
  "MRAcquisitionType": "2D",
  "MagneticFieldStrength": 3,
  "Manufacturer": "Siemens",
  "ManufacturersModelName": "Prisma_fit",
  "Modality": "MR",
  "MultibandAccelerationFactor": 4,
  "PartialFourier": 1,
  "PatientPosition": "HFS",
  "PercentPhaseFOV": 100,
  "PhaseEncodingDirection": "j-",
  "PhaseEncodingSteps": 88,
  "PhaseResolution": 1,
  "PixelBandwidth": 2185,
  "ProcedureStepDescription": "ASHENHAV_1222",
  "ProtocolName": "func-bold_task-RDMcolor_run-02",
  "PulseSequenceDetails": "%SiemensSeq%_ep2d_bold",
  "ReceiveCoilActiveElements": "HC1-7",
  "ReceiveCoilName": "HeadNeck_64",
  "ReconMatrixPE": 88,
  "RefLinesPE": 8,
  "RepetitionTime": 1.2,
  "SAR": 0.0525599,
  "ScanOptions": "FS",
  "ScanningSequence": "EP",
  "SequenceName": "_epfid2d1_88",
  "SequenceVariant": "SK",
  "SeriesDescription": "func-bold_task-RDMcolor_run-02",
  "SeriesNumber": 10,
  "ShimSetting": [1741, -9068, 4403, 269, -89, -72, 6, -9],
  "SliceThickness": 2.4,
  "SliceTiming": [0.55, 0, 0.6275, 0.0775, 0.7075, 0.1575, 0.785, 0.235, 0.865, 0.315, 0.9425, 0.3925, 1.0225, 0.47, 1.1, 0.55, 0, 0.6275, 0.0775, 0.7075, 0.1575, 0.785, 0.235, 0.865, 0.315, 0.9425, 0.3925, 1.0225, 0.47, 1.1, 0.55, 0, 0.6275, 0.0775, 0.7075, 0.1575, 0.785, 0.235, 0.865, 0.315, 0.9425, 0.3925, 1.0225, 0.47, 1.1, 0.55, 0, 0.6275, 0.0775, 0.7075, 0.1575, 0.785, 0.235, 0.865, 0.315, 0.9425, 0.3925, 1.0225, 0.47, 1.1],
  "SoftwareVersions": "syngo_MR_E11",
  "SpacingBetweenSlices": 2.4,
  "StationName": "AWP67050",
  "TaskName": "RDMcolor",
  "TotalReadoutTime": 0.0504612,
  "TxRefAmp": 217.047,
  "dcmmeta_affine": [
    [-2.392965316772461, -0.10406072437763214, -0.10957609117031097, 114.28421783447266],
    [-0.09218680113554001, 2.3828794956207275, -0.2502027750015259, -94.86282348632812],
    [-0.11964287608861923, 0.24526047706604004, 2.3844058513641357, -50.089759826660156],
    [0.0, 0.0, 0.0, 1.0]
],
  "dcmmeta_reorient_transform": [
    [0.0, -1.0, 0.0, 87.0],
    [1.0, 0.0, 0.0, 0.0],
    [0.0, 0.0, 1.0, 0.0],
    [0.0, 0.0, 0.0, 1.0]
],
  "dcmmeta_shape": [88, 88, 60, 392],
  "dcmmeta_slice_dim": 2,
  "dcmmeta_version": 0.6,
  "global": {
    "const": {
      "AcquisitionMatrix": [88, 0, 0, 88],
      "AngioFlag": "N",
      "BitsAllocated": 16,
      "BitsStored": 12,
      "BodyPartExamined": "BRAIN",
      "Columns": 704,
      "DeidentificationMethodCodeSequence": [
        {
          "CodeMeaning": "XNAT DicomEdit 6 Script",
          "CodeValue": "3",
          "CodingSchemeDesignator": "XNAT",
          "CodingSchemeVersion": "1.0"}
],
      "EchoNumbers": 1,
      "EchoTime": 33.0,
      "EchoTrainLength": 88,
      "FlipAngle": 62.0,
      "HighBit": 11,
      "ImageOrientationPatient": [0.9980139920881, 0.03844757699521, -0.0498984510739, -0.0433997342538, 0.99380756643847, -0.1022887283934],
      "ImagePositionPatient": [-810.21355608212, -874.76810938379, 83.638132239951],
      "ImageType": [
        "ORIGINAL",
        "PRIMARY",
        "M",
        "ND",
        "MOSAIC"
],
      "ImagedNucleus": "1H",
      "ImagingFrequency": 123.250714,
      "InPlanePhaseEncodingDirection": "COL",
      "MRAcquisitionType": "2D",
      "MagneticFieldStrength": 3.0,
      "Manufacturer": "SIEMENS",
      "ManufacturerModelName": "Prisma_fit",
      "Modality": "MR",
      "NumberOfAverages": 1.0,
      "NumberOfPhaseEncodingSteps": 88,
      "PercentPhaseFieldOfView": 100.0,
      "PercentSampling": 100.0,
      "PerformedProcedureStepStartTime": "184918.066000",
      "PhotometricInterpretation": "MONOCHROME2",
      "PixelBandwidth": 2185.0,
      "PixelRepresentation": 0,
      "PixelSpacing": [2.3977272510529, 2.3977272510529],
      "ProtocolName": "func-bold_task-RDMcolor_run-02",
      "RepetitionTime": 1200.0,
      "Rows": 704,
      "SAR": 0.05255989591746,
      "SamplesPerPixel": 1,
      "ScanOptions": "FS",
      "ScanningSequence": "EP",
      "SequenceName": "*epfid2d1_88",
      "SequenceVariant": "SK",
      "SeriesDescription": "func-bold_task-RDMcolor_run-02",
      "SeriesNumber": 10,
      "SeriesTime": "192248.519000",
      "SliceLocation": -45.092581415279,
      "SliceThickness": 2.4000000953674,
      "SmallestImagePixelValue": 0,
      "SoftwareVersions": "syngo MR E11",
      "SpacingBetweenSlices": 2.3999999476495,
      "SpecificCharacterSet": "ISO_IR 100",
      "StudyID": "1",
      "StudyTime": "184917.972000",
      "TransmitCoilName": "Body",
      "VariableFlipAngleFlag": "N",
      "WindowCenterWidthExplanation": "Algo1",
      "dBdt": 0.0},
    "slices": {}
  },
  "time": {
    "samples": {
      "AcquisitionNumber": [1, 2, 3, 4, 5, 6, 7, 8, 9, 10, 11, 12, 13, 14, 15, 16, 17, 18, 19, 20, 21, 22, 23, 24, 25, 26, 27, 28, 29, 30, 31, 32, 33, 34, 35, 36, 37, 38, 39, 40, 41, 42, 43, 44, 45, 46, 47, 48, 49, 50, 51, 52, 53, 54, 55, 56, 57, 58, 59, 60, 61, 62, 63, 64, 65, 66, 67, 68, 69, 70, 71, 72, 73, 74, 75, 76, 77, 78, 79, 80, 81, 82, 83, 84, 85, 86, 87, 88, 89, 90, 91, 92, 93, 94, 95, 96, 97, 98, 99, 100, 101, 102, 103, 104, 105, 106, 107, 108, 109, 110, 111, 112, 113, 114, 115, 116, 117, 118, 119, 120, 121, 122, 123, 124, 125, 126, 127, 128, 129, 130, 131, 132, 133, 134, 135, 136, 137, 138, 139, 140, 141, 142, 143, 144, 145, 146, 147, 148, 149, 150, 151, 152, 153, 154, 155, 156, 157, 158, 159, 160, 161, 162, 163, 164, 165, 166, 167, 168, 169, 170, 171, 172, 173, 174, 175, 176, 177, 178, 179, 180, 181, 182, 183, 184, 185, 186, 187, 188, 189, 190, 191, 192, 193, 194, 195, 196, 197, 198, 199, 200, 201, 202, 203, 204, 205, 206, 207, 208, 209, 210, 211, 212, 213, 214, 215, 216, 217, 218, 219, 220, 221, 222, 223, 224, 225, 226, 227, 228, 229, 230, 231, 232, 233, 234, 235, 236, 237, 238, 239, 240, 241, 242, 243, 244, 245, 246, 247, 248, 249, 250, 251, 252, 253, 254, 255, 256, 257, 258, 259, 260, 261, 262, 263, 264, 265, 266, 267, 268, 269, 270, 271, 272, 273, 274, 275, 276, 277, 278, 279, 280, 281, 282, 283, 284, 285, 286, 287, 288, 289, 290, 291, 292, 293, 294, 295, 296, 297, 298, 299, 300, 301, 302, 303, 304, 305, 306, 307, 308, 309, 310, 311, 312, 313, 314, 315, 316, 317, 318, 319, 320, 321, 322, 323, 324, 325, 326, 327, 328, 329, 330, 331, 332, 333, 334, 335, 336, 337, 338, 339, 340, 341, 342, 343, 344, 345, 346, 347, 348, 349, 350, 351, 352, 353, 354, 355, 356, 357, 358, 359, 360, 361, 362, 363, 364, 365, 366, 367, 368, 369, 370, 371, 372, 373, 374, 375, 376, 377, 378, 379, 380, 381, 382, 383, 384, 385, 386, 387, 388, 389, 390, 391, 392],
      "AcquisitionTime": ["192218.940000", "192220.140000", "192221.340000", "192222.540000", "192223.740000", "192224.940000", "192226.140000", "192227.340000", "192228.540000", "192229.740000", "192230.940000", "192232.140000", "192233.340000", "192234.540000", "192235.740000", "192236.940000", "192238.140000", "192239.340000", "192240.540000", "192241.740000", "192242.940000", "192244.140000", "192245.340000", "192246.540000", "192247.740000", "192248.940000", "192250.140000", "192251.340000", "192252.540000", "192253.740000", "192254.940000", "192256.140000", "192257.340000", "192258.540000", "192259.740000", "192300.940000", "192302.140000", "192303.340000", "192304.540000", "192305.740000", "192306.940000", "192308.140000", "192309.340000", "192310.540000", "192311.740000", "192312.940000", "192314.140000", "192315.340000", "192316.540000", "192317.740000", "192318.940000", "192320.140000", "192321.340000", "192322.540000", "192323.740000", "192324.940000", "192326.140000", "192327.340000", "192328.540000", "192329.740000", "192330.940000", "192332.140000", "192333.340000", "192334.540000", "192335.740000", "192336.940000", "192338.140000", "192339.340000", "192340.540000", "192341.740000", "192342.940000", "192344.140000", "192345.340000", "192346.540000", "192347.740000", "192348.940000", "192350.140000", "192351.340000", "192352.540000", "192353.740000", "192354.940000", "192356.140000", "192357.340000", "192358.540000", "192359.740000", "192400.940000", "192402.140000", "192403.340000", "192404.540000", "192405.740000", "192406.940000", "192408.140000", "192409.340000", "192410.540000", "192411.740000", "192412.940000", "192414.140000", "192415.340000", "192416.540000", "192417.740000", "192418.940000", "192420.140000", "192421.340000", "192422.540000", "192423.740000", "192424.940000", "192426.140000", "192427.340000", "192428.540000", "192429.740000", "192430.940000", "192432.140000", "192433.340000", "192434.540000", "192435.740000", "192436.940000", "192438.140000", "192439.340000", "192440.540000", "192441.740000", "192442.940000", "192444.140000", "192445.340000", "192446.540000", "192447.740000", "192448.940000", "192450.140000", "192451.340000", "192452.540000", "192453.740000", "192454.940000", "192456.140000", "192457.340000", "192458.540000", "192459.740000", "192500.940000", "192502.140000", "192503.340000", "192504.540000", "192505.740000", "192506.940000", "192508.140000", "192509.340000", "192510.540000", "192511.740000", "192512.940000", "192514.140000", "192515.340000", "192516.540000", "192517.740000", "192518.940000", "192520.140000", "192521.340000", "192522.540000", "192523.740000", "192524.940000", "192526.140000", "192527.340000", "192528.540000", "192529.740000", "192530.940000", "192532.140000", "192533.340000", "192534.540000", "192535.740000", "192536.940000", "192538.140000", "192539.340000", "192540.540000", "192541.740000", "192542.940000", "192544.140000", "192545.340000", "192546.540000", "192547.740000", "192548.940000", "192550.140000", "192551.340000", "192552.540000", "192553.740000", "192554.940000", "192556.140000", "192557.340000", "192558.540000", "192559.740000", "192600.940000", "192602.140000", "192603.340000", "192604.540000", "192605.740000", "192606.940000", "192608.140000", "192609.340000", "192610.540000", "192611.740000", "192612.940000", "192614.140000", "192615.340000", "192616.540000", "192617.740000", "192618.940000", "192620.140000", "192621.340000", "192622.540000", "192623.740000", "192624.940000", "192626.140000", "192627.340000", "192628.540000", "192629.740000", "192630.940000", "192632.140000", "192633.340000", "192634.540000", "192635.740000", "192636.940000", "192638.140000", "192639.340000", "192640.540000", "192641.740000", "192642.940000", "192644.140000", "192645.340000", "192646.540000", "192647.740000", "192648.940000", "192650.140000", "192651.340000", "192652.540000", "192653.740000", "192654.940000", "192656.140000", "192657.340000", "192658.540000", "192659.740000", "192700.940000", "192702.140000", "192703.340000", "192704.540000", "192705.740000", "192706.940000", "192708.140000", "192709.340000", "192710.540000", "192711.740000", "192712.940000", "192714.140000", "192715.340000", "192716.540000", "192717.740000", "192718.940000", "192720.140000", "192721.340000", "192722.540000", "192723.740000", "192724.940000", "192726.140000", "192727.340000", "192728.540000", "192729.740000", "192730.940000", "192732.140000", "192733.340000", "192734.540000", "192735.740000", "192736.940000", "192738.140000", "192739.340000", "192740.540000", "192741.740000", "192742.940000", "192744.140000", "192745.340000", "192746.540000", "192747.740000", "192748.940000", "192750.140000", "192751.340000", "192752.540000", "192753.740000", "192754.940000", "192756.140000", "192757.340000", "192758.540000", "192759.740000", "192800.940000", "192802.140000", "192803.340000", "192804.540000", "192805.740000", "192806.940000", "192808.140000", "192809.340000", "192810.540000", "192811.740000", "192812.940000", "192814.140000", "192815.340000", "192816.540000", "192817.740000", "192818.940000", "192820.140000", "192821.340000", "192822.540000", "192823.740000", "192824.940000", "192826.140000", "192827.340000", "192828.540000", "192829.740000", "192830.940000", "192832.140000", "192833.340000", "192834.540000", "192835.740000", "192836.940000", "192838.140000", "192839.340000", "192840.540000", "192841.740000", "192842.940000", "192844.140000", "192845.340000", "192846.540000", "192847.740000", "192848.940000", "192850.140000", "192851.340000", "192852.540000", "192853.740000", "192854.940000", "192856.140000", "192857.340000", "192858.540000", "192859.740000", "192900.940000", "192902.140000", "192903.340000", "192904.540000", "192905.740000", "192906.940000", "192908.140000", "192909.340000", "192910.540000", "192911.740000", "192912.940000", "192914.140000", "192915.340000", "192916.540000", "192917.740000", "192918.940000", "192920.140000", "192921.340000", "192922.540000", "192923.740000", "192924.940000", "192926.140000", "192927.340000", "192928.540000", "192929.740000", "192930.940000", "192932.140000", "192933.340000", "192934.540000", "192935.740000", "192936.940000", "192938.140000", "192939.340000", "192940.540000", "192941.740000", "192942.940000", "192944.140000", "192945.340000", "192946.540000", "192947.740000", "192948.940000", "192950.140000", "192951.340000", "192952.540000", "192953.740000", "192954.940000", "192956.140000", "192957.340000", "192958.540000", "192959.740000", "193000.940000", "193002.140000", "193003.340000", "193004.540000", "193005.740000", "193006.940000", "193008.140000"],
      "ContentTime": ["192248.523000", "192248.536000", "192248.538000", "192248.541000", "192248.547000", "192248.549000", "192248.552000", "192248.554000", "192248.557000", "192248.560000", "192248.563000", "192248.565000", "192248.568000", "192248.582000", "192248.585000", "192248.587000", "192248.590000", "192248.592000", "192248.595000", "192248.597000", "192248.600000", "192248.603000", "192248.606000", "192248.608000", "192328.519000", "192328.522000", "192328.524000", "192328.527000", "192328.529000", "192328.532000", "192328.535000", "192328.537000", "192328.540000", "192328.543000", "192328.545000", "192328.548000", "192328.550000", "192328.553000", "192328.555000", "192328.558000", "192328.561000", "192328.563000", "192328.566000", "192328.568000", "192328.571000", "192328.574000", "192328.576000", "192328.579000", "192328.581000", "192328.594000", "192328.596000", "192328.599000", "192328.601000", "192328.604000", "192328.607000", "192328.609000", "192328.612000", "192408.519000", "192408.522000", "192408.525000", "192408.527000", "192408.530000", "192408.533000", "192408.535000", "192408.538000", "192408.541000", "192408.543000", "192408.546000", "192408.548000", "192408.551000", "192408.554000", "192408.558000", "192408.560000", "192408.563000", "192408.566000", "192408.568000", "192408.571000", "192408.573000", "192408.576000", "192408.579000", "192408.581000", "192408.584000", "192408.586000", "192408.589000", "192408.592000", "192408.594000", "192408.597000", "192408.599000", "192408.602000", "192408.605000", "192408.607000", "192448.519000", "192448.521000", "192448.524000", "192448.527000", "192448.529000", "192448.532000", "192448.534000", "192448.537000", "192448.540000", "192448.542000", "192448.545000", "192448.547000", "192448.550000", "192448.552000", "192448.555000", "192448.558000", "192448.560000", "192448.564000", "192448.566000", "192448.574000", "192448.576000", "192448.579000", "192448.582000", "192448.584000", "192448.587000", "192448.589000", "192448.592000", "192448.595000", "192448.597000", "192448.600000", "192448.602000", "192448.605000", "192448.608000", "192528.519000", "192528.522000", "192528.524000", "192528.527000", "192528.529000", "192528.532000", "192528.534000", "192528.537000", "192528.540000", "192528.542000", "192528.545000", "192528.547000", "192528.550000", "192528.553000", "192528.555000", "192528.558000", "192528.560000", "192528.563000", "192528.566000", "192528.569000", "192528.571000", "192528.574000", "192528.576000", "192528.579000", "192528.581000", "192528.584000", "192528.587000", "192528.590000", "192528.592000", "192528.595000", "192528.597000", "192528.600000", "192528.602000", "192608.519000", "192608.521000", "192608.524000", "192608.527000", "192608.529000", "192608.532000", "192608.535000", "192608.537000", "192608.540000", "192608.543000", "192608.545000", "192608.548000", "192608.551000", "192608.553000", "192608.556000", "192608.559000", "192608.561000", "192608.564000", "192608.567000", "192608.569000", "192608.572000", "192608.574000", "192608.577000", "192608.580000", "192608.582000", "192608.585000", "192608.587000", "192608.590000", "192608.593000", "192608.595000", "192608.598000", "192608.600000", "192608.603000", "192608.606000", "192648.520000", "192648.522000", "192648.525000", "192648.528000", "192648.530000", "192648.533000", "192648.536000", "192648.538000", "192648.541000", "192648.543000", "192648.546000", "192648.548000", "192648.551000", "192648.554000", "192648.556000", "192648.565000", "192648.568000", "192648.570000", "192648.587000", "192648.589000", "192648.592000", "192648.595000", "192648.597000", "192648.600000", "192648.603000", "192648.605000", "192648.608000", "192648.610000", "192648.613000", "192648.616000", "192648.618000", "192648.621000", "192648.624000", "192728.519000", "192728.521000", "192728.524000", "192728.527000", "192728.529000", "192728.532000", "192728.534000", "192728.537000", "192728.540000", "192728.542000", "192728.545000", "192728.548000", "192728.550000", "192728.553000", "192728.555000", "192728.558000", "192728.561000", "192728.563000", "192728.566000", "192728.568000", "192728.571000", "192728.573000", "192728.576000", "192728.579000", "192728.581000", "192728.584000", "192728.586000", "192728.589000", "192728.592000", "192728.594000", "192728.597000", "192728.599000", "192728.602000", "192808.518000", "192808.521000", "192808.524000", "192808.526000", "192808.529000", "192808.532000", "192808.534000", "192808.537000", "192808.540000", "192808.542000", "192808.545000", "192808.547000", "192808.550000", "192808.553000", "192808.555000", "192808.558000", "192808.560000", "192808.563000", "192808.566000", "192808.568000", "192808.571000", "192808.574000", "192808.576000", "192808.579000", "192808.581000", "192808.584000", "192808.587000", "192808.589000", "192808.592000", "192808.594000", "192808.597000", "192808.600000", "192808.603000", "192808.605000", "192848.520000", "192848.523000", "192848.525000", "192848.528000", "192848.530000", "192848.533000", "192848.535000", "192848.538000", "192848.541000", "192848.543000", "192848.546000", "192848.548000", "192848.564000", "192848.566000", "192848.569000", "192848.572000", "192848.574000", "192848.577000", "192848.579000", "192848.582000", "192848.585000", "192848.587000", "192848.590000", "192848.592000", "192848.595000", "192848.598000", "192848.600000", "192848.603000", "192848.606000", "192848.609000", "192848.611000", "192848.614000", "192848.616000", "192928.519000", "192928.522000", "192928.524000", "192928.527000", "192928.529000", "192928.532000", "192928.535000", "192928.537000", "192928.540000", "192928.543000", "192928.545000", "192928.548000", "192928.551000", "192928.553000", "192928.556000", "192928.558000", "192928.561000", "192928.564000", "192928.566000", "192928.569000", "192928.572000", "192928.574000", "192928.577000", "192928.579000", "192928.582000", "192928.585000", "192928.587000", "192928.590000", "192928.592000", "192928.595000", "192928.598000", "192928.600000", "192928.603000", "193008.518000", "193008.521000", "193008.524000", "193008.526000", "193008.529000", "193008.532000", "193008.534000", "193008.537000", "193008.540000", "193008.542000", "193008.545000", "193008.547000", "193008.550000", "193008.553000", "193008.555000", "193008.558000", "193008.561000", "193008.563000", "193008.566000", "193008.568000", "193008.571000", "193008.574000", "193008.576000", "193008.579000", "193008.582000", "193008.584000", "193008.587000", "193008.589000", "193008.592000", "193008.595000", "193008.597000", "193008.600000", "193008.602000", "193008.605000", "193009.508000"],
      "InstanceCreationTime": ["192248.523000", "192248.536000", "192248.538000", "192248.541000", "192248.547000", "192248.549000", "192248.552000", "192248.554000", "192248.557000", "192248.560000", "192248.563000", "192248.565000", "192248.568000", "192248.582000", "192248.585000", "192248.587000", "192248.590000", "192248.592000", "192248.595000", "192248.597000", "192248.600000", "192248.603000", "192248.606000", "192248.608000", "192328.519000", "192328.522000", "192328.524000", "192328.527000", "192328.529000", "192328.532000", "192328.535000", "192328.537000", "192328.540000", "192328.543000", "192328.545000", "192328.548000", "192328.550000", "192328.553000", "192328.555000", "192328.558000", "192328.561000", "192328.563000", "192328.566000", "192328.568000", "192328.571000", "192328.574000", "192328.576000", "192328.579000", "192328.581000", "192328.594000", "192328.596000", "192328.599000", "192328.601000", "192328.604000", "192328.607000", "192328.609000", "192328.612000", "192408.519000", "192408.522000", "192408.525000", "192408.527000", "192408.530000", "192408.533000", "192408.535000", "192408.538000", "192408.541000", "192408.543000", "192408.546000", "192408.548000", "192408.551000", "192408.554000", "192408.558000", "192408.560000", "192408.563000", "192408.566000", "192408.568000", "192408.571000", "192408.573000", "192408.576000", "192408.579000", "192408.581000", "192408.584000", "192408.586000", "192408.589000", "192408.592000", "192408.594000", "192408.597000", "192408.599000", "192408.602000", "192408.605000", "192408.607000", "192448.519000", "192448.521000", "192448.524000", "192448.527000", "192448.529000", "192448.532000", "192448.534000", "192448.537000", "192448.540000", "192448.542000", "192448.545000", "192448.547000", "192448.550000", "192448.552000", "192448.555000", "192448.558000", "192448.560000", "192448.564000", "192448.566000", "192448.574000", "192448.576000", "192448.579000", "192448.582000", "192448.584000", "192448.587000", "192448.589000", "192448.592000", "192448.595000", "192448.597000", "192448.600000", "192448.602000", "192448.605000", "192448.608000", "192528.519000", "192528.522000", "192528.524000", "192528.527000", "192528.529000", "192528.532000", "192528.534000", "192528.537000", "192528.540000", "192528.542000", "192528.545000", "192528.547000", "192528.550000", "192528.553000", "192528.555000", "192528.558000", "192528.560000", "192528.563000", "192528.566000", "192528.569000", "192528.571000", "192528.574000", "192528.576000", "192528.579000", "192528.581000", "192528.584000", "192528.587000", "192528.590000", "192528.592000", "192528.595000", "192528.597000", "192528.600000", "192528.602000", "192608.519000", "192608.521000", "192608.524000", "192608.527000", "192608.529000", "192608.532000", "192608.535000", "192608.537000", "192608.540000", "192608.543000", "192608.545000", "192608.548000", "192608.551000", "192608.553000", "192608.556000", "192608.559000", "192608.561000", "192608.564000", "192608.567000", "192608.569000", "192608.572000", "192608.574000", "192608.577000", "192608.580000", "192608.582000", "192608.585000", "192608.587000", "192608.590000", "192608.593000", "192608.595000", "192608.598000", "192608.600000", "192608.603000", "192608.606000", "192648.520000", "192648.522000", "192648.525000", "192648.528000", "192648.530000", "192648.533000", "192648.536000", "192648.538000", "192648.541000", "192648.543000", "192648.546000", "192648.548000", "192648.551000", "192648.554000", "192648.556000", "192648.565000", "192648.568000", "192648.570000", "192648.587000", "192648.589000", "192648.592000", "192648.595000", "192648.597000", "192648.600000", "192648.603000", "192648.605000", "192648.608000", "192648.610000", "192648.613000", "192648.616000", "192648.618000", "192648.621000", "192648.624000", "192728.519000", "192728.521000", "192728.524000", "192728.527000", "192728.529000", "192728.532000", "192728.534000", "192728.537000", "192728.540000", "192728.542000", "192728.545000", "192728.548000", "192728.550000", "192728.553000", "192728.555000", "192728.558000", "192728.561000", "192728.563000", "192728.566000", "192728.568000", "192728.571000", "192728.573000", "192728.576000", "192728.579000", "192728.581000", "192728.584000", "192728.586000", "192728.589000", "192728.592000", "192728.594000", "192728.597000", "192728.599000", "192728.602000", "192808.518000", "192808.521000", "192808.524000", "192808.526000", "192808.529000", "192808.532000", "192808.534000", "192808.537000", "192808.540000", "192808.542000", "192808.545000", "192808.547000", "192808.550000", "192808.553000", "192808.555000", "192808.558000", "192808.560000", "192808.563000", "192808.566000", "192808.568000", "192808.571000", "192808.574000", "192808.576000", "192808.579000", "192808.581000", "192808.584000", "192808.587000", "192808.589000", "192808.592000", "192808.594000", "192808.597000", "192808.600000", "192808.603000", "192808.605000", "192848.520000", "192848.523000", "192848.525000", "192848.528000", "192848.530000", "192848.533000", "192848.535000", "192848.538000", "192848.541000", "192848.543000", "192848.546000", "192848.548000", "192848.564000", "192848.566000", "192848.569000", "192848.572000", "192848.574000", "192848.577000", "192848.579000", "192848.582000", "192848.585000", "192848.587000", "192848.590000", "192848.592000", "192848.595000", "192848.598000", "192848.600000", "192848.603000", "192848.606000", "192848.609000", "192848.611000", "192848.614000", "192848.616000", "192928.519000", "192928.522000", "192928.524000", "192928.527000", "192928.529000", "192928.532000", "192928.535000", "192928.537000", "192928.540000", "192928.543000", "192928.545000", "192928.548000", "192928.551000", "192928.553000", "192928.556000", "192928.558000", "192928.561000", "192928.564000", "192928.566000", "192928.569000", "192928.572000", "192928.574000", "192928.577000", "192928.579000", "192928.582000", "192928.585000", "192928.587000", "192928.590000", "192928.592000", "192928.595000", "192928.598000", "192928.600000", "192928.603000", "193008.518000", "193008.521000", "193008.524000", "193008.526000", "193008.529000", "193008.532000", "193008.534000", "193008.537000", "193008.540000", "193008.542000", "193008.545000", "193008.547000", "193008.550000", "193008.553000", "193008.555000", "193008.558000", "193008.561000", "193008.563000", "193008.566000", "193008.568000", "193008.571000", "193008.574000", "193008.576000", "193008.579000", "193008.582000", "193008.584000", "193008.587000", "193008.589000", "193008.592000", "193008.595000", "193008.597000", "193008.600000", "193008.602000", "193008.605000", "193009.508000"],
      "InstanceNumber": [1, 2, 3, 4, 5, 6, 7, 8, 9, 10, 11, 12, 13, 14, 15, 16, 17, 18, 19, 20, 21, 22, 23, 24, 25, 26, 27, 28, 29, 30, 31, 32, 33, 34, 35, 36, 37, 38, 39, 40, 41, 42, 43, 44, 45, 46, 47, 48, 49, 50, 51, 52, 53, 54, 55, 56, 57, 58, 59, 60, 61, 62, 63, 64, 65, 66, 67, 68, 69, 70, 71, 72, 73, 74, 75, 76, 77, 78, 79, 80, 81, 82, 83, 84, 85, 86, 87, 88, 89, 90, 91, 92, 93, 94, 95, 96, 97, 98, 99, 100, 101, 102, 103, 104, 105, 106, 107, 108, 109, 110, 111, 112, 113, 114, 115, 116, 117, 118, 119, 120, 121, 122, 123, 124, 125, 126, 127, 128, 129, 130, 131, 132, 133, 134, 135, 136, 137, 138, 139, 140, 141, 142, 143, 144, 145, 146, 147, 148, 149, 150, 151, 152, 153, 154, 155, 156, 157, 158, 159, 160, 161, 162, 163, 164, 165, 166, 167, 168, 169, 170, 171, 172, 173, 174, 175, 176, 177, 178, 179, 180, 181, 182, 183, 184, 185, 186, 187, 188, 189, 190, 191, 192, 193, 194, 195, 196, 197, 198, 199, 200, 201, 202, 203, 204, 205, 206, 207, 208, 209, 210, 211, 212, 213, 214, 215, 216, 217, 218, 219, 220, 221, 222, 223, 224, 225, 226, 227, 228, 229, 230, 231, 232, 233, 234, 235, 236, 237, 238, 239, 240, 241, 242, 243, 244, 245, 246, 247, 248, 249, 250, 251, 252, 253, 254, 255, 256, 257, 258, 259, 260, 261, 262, 263, 264, 265, 266, 267, 268, 269, 270, 271, 272, 273, 274, 275, 276, 277, 278, 279, 280, 281, 282, 283, 284, 285, 286, 287, 288, 289, 290, 291, 292, 293, 294, 295, 296, 297, 298, 299, 300, 301, 302, 303, 304, 305, 306, 307, 308, 309, 310, 311, 312, 313, 314, 315, 316, 317, 318, 319, 320, 321, 322, 323, 324, 325, 326, 327, 328, 329, 330, 331, 332, 333, 334, 335, 336, 337, 338, 339, 340, 341, 342, 343, 344, 345, 346, 347, 348, 349, 350, 351, 352, 353, 354, 355, 356, 357, 358, 359, 360, 361, 362, 363, 364, 365, 366, 367, 368, 369, 370, 371, 372, 373, 374, 375, 376, 377, 378, 379, 380, 381, 382, 383, 384, 385, 386, 387, 388, 389, 390, 391, 392],
