{
  "AcquisitionMatrixPE": 88,
  "AcquisitionNumber": 1,
  "AcquisitionTime": "20:19:25.112500",
  "BandwidthPerPixelPhaseEncode": 19.592,
  "BaseResolution": 88,
  "BodyPartExamined": "BRAIN",
  "ConsistencyInfo": "N4_VE11C_LATEST_20160120",
  "ConversionSoftware": "dcm2niix",
  "ConversionSoftwareVersion": "v1.0.20190902",
  "DerivedVendorReportedEchoSpacing": 0.000580014,
  "DeviceSerialNumber": "67050",
  "DwellTime": 2.6e-06,
  "EchoTime": 0.033,
  "EchoTrainLength": 88,
  "EffectiveEchoSpacing": 0.000580014,
  "FlipAngle": 62,
  "ImageOrientationPatientDICOM": [0.998014, 0.0384476, -0.0498984, -0.0433997, 0.993808, -0.102289],
  "ImageType": [
    "ORIGINAL",
    "PRIMARY",
    "M",
    "ND",
    "MOSAIC"
],
  "ImagingFrequency": 123.251,
  "InPlanePhaseEncodingDirectionDICOM": "COL",
  "InstitutionAddress": "Olive_Street_60_Providence_RI_US_02912",
  "InstitutionName": "BROWN_UNIVERSITY_MRF",
  "InstitutionalDepartmentName": "Department",
  "MRAcquisitionType": "2D",
  "MagneticFieldStrength": 3,
  "Manufacturer": "Siemens",
  "ManufacturersModelName": "Prisma_fit",
  "Modality": "MR",
  "MultibandAccelerationFactor": 4,
  "PartialFourier": 1,
  "PatientPosition": "HFS",
  "PercentPhaseFOV": 100,
  "PhaseEncodingDirection": "j-",
  "PhaseEncodingSteps": 88,
  "PhaseResolution": 1,
  "PixelBandwidth": 2185,
  "ProcedureStepDescription": "ASHENHAV_1222",
  "ProtocolName": "func-bold_task-RDMlocalizer_run-01",
  "PulseSequenceDetails": "%SiemensSeq%_ep2d_bold",
  "ReceiveCoilActiveElements": "HC1-7",
  "ReceiveCoilName": "HeadNeck_64",
  "ReconMatrixPE": 88,
  "RefLinesPE": 8,
  "RepetitionTime": 1.2,
  "SAR": 0.0523028,
  "ScanOptions": "FS",
  "ScanningSequence": "EP",
  "SequenceName": "_epfid2d1_88",
  "SequenceVariant": "SK",
  "SeriesDescription": "func-bold_task-RDMlocalizer_run-01",
  "SeriesNumber": 19,
  "ShimSetting": [1741, -9068, 4403, 269, -89, -72, 6, -9],
  "SliceThickness": 2.4,
  "SliceTiming": [0.5525, 0, 0.63, 0.08, 0.71, 0.1575, 0.7875, 0.2375, 0.865, 0.315, 0.945, 0.395, 1.0225, 0.4725, 1.1025, 0.5525, 0, 0.63, 0.08, 0.71, 0.1575, 0.7875, 0.2375, 0.865, 0.315, 0.945, 0.395, 1.0225, 0.4725, 1.1025, 0.5525, 0, 0.63, 0.08, 0.71, 0.1575, 0.7875, 0.2375, 0.865, 0.315, 0.945, 0.395, 1.0225, 0.4725, 1.1025, 0.5525, 0, 0.63, 0.08, 0.71, 0.1575, 0.7875, 0.2375, 0.865, 0.315, 0.945, 0.395, 1.0225, 0.4725, 1.1025],
  "SoftwareVersions": "syngo_MR_E11",
  "SpacingBetweenSlices": 2.4,
  "StationName": "AWP67050",
  "TaskName": "RDMlocalizer",
  "TotalReadoutTime": 0.0504612,
  "TxRefAmp": 217.047,
  "dcmmeta_affine": [
    [-2.392965316772461, -0.10406072437763214, -0.10957609117031097, 114.28421783447266],
    [-0.09218680113554001, 2.3828794956207275, -0.2502027750015259, -94.86282348632812],
    [-0.11964287608861923, 0.24526047706604004, 2.3844058513641357, -50.089759826660156],
    [0.0, 0.0, 0.0, 1.0]
],
  "dcmmeta_reorient_transform": [
    [0.0, -1.0, 0.0, 87.0],
    [1.0, 0.0, 0.0, 0.0],
    [0.0, 0.0, 1.0, 0.0],
    [0.0, 0.0, 0.0, 1.0]
],
  "dcmmeta_shape": [88, 88, 60, 195],
  "dcmmeta_slice_dim": 2,
  "dcmmeta_version": 0.6,
  "global": {
    "const": {
      "AcquisitionMatrix": [88, 0, 0, 88],
      "AngioFlag": "N",
      "BitsAllocated": 16,
      "BitsStored": 12,
      "BodyPartExamined": "BRAIN",
      "Columns": 704,
      "DeidentificationMethodCodeSequence": [
        {
          "CodeMeaning": "XNAT DicomEdit 6 Script",
          "CodeValue": "3",
          "CodingSchemeDesignator": "XNAT",
          "CodingSchemeVersion": "1.0"}
],
      "EchoNumbers": 1,
      "EchoTime": 33.0,
      "EchoTrainLength": 88,
      "FlipAngle": 62.0,
      "HighBit": 11,
      "ImageOrientationPatient": [0.9980139920881, 0.03844757699521, -0.0498984510739, -0.0433997342538, 0.99380756643847, -0.1022887283934],
      "ImagePositionPatient": [-810.21355608212, -874.76810938379, 83.638132239951],
      "ImageType": [
        "ORIGINAL",
        "PRIMARY",
        "M",
        "ND",
        "MOSAIC"
],
      "ImagedNucleus": "1H",
      "ImagingFrequency": 123.250751,
      "InPlanePhaseEncodingDirection": "COL",
      "MRAcquisitionType": "2D",
      "MagneticFieldStrength": 3.0,
      "Manufacturer": "SIEMENS",
      "ManufacturerModelName": "Prisma_fit",
      "Modality": "MR",
      "NumberOfAverages": 1.0,
      "NumberOfPhaseEncodingSteps": 88,
      "PercentPhaseFieldOfView": 100.0,
      "PercentSampling": 100.0,
      "PerformedProcedureStepStartTime": "184918.066000",
      "PhotometricInterpretation": "MONOCHROME2",
      "PixelBandwidth": 2185.0,
      "PixelRepresentation": 0,
      "PixelSpacing": [2.3977272510529, 2.3977272510529],
      "ProtocolName": "func-bold_task-RDMlocalizer_run-01",
      "RepetitionTime": 1200.0,
      "Rows": 704,
      "SAR": 0.05230282515983,
      "SamplesPerPixel": 1,
      "ScanOptions": "FS",
      "ScanningSequence": "EP",
      "SequenceName": "*epfid2d1_88",
      "SequenceVariant": "SK",
      "SeriesDescription": "func-bold_task-RDMlocalizer_run-01",
      "SeriesNumber": 19,
      "SeriesTime": "202008.520000",
      "SliceLocation": -45.092581415279,
      "SliceThickness": 2.4000000953674,
      "SmallestImagePixelValue": 0,
      "SoftwareVersions": "syngo MR E11",
      "SpacingBetweenSlices": 2.3999999476495,
      "SpecificCharacterSet": "ISO_IR 100",
      "StudyID": "1",
      "StudyTime": "184917.972000",
      "TransmitCoilName": "Body",
      "VariableFlipAngleFlag": "N",
      "WindowCenterWidthExplanation": "Algo1",
      "dBdt": 0.0},
    "slices": {}
  },
  "time": {
    "samples": {
      "AcquisitionNumber": [1, 2, 3, 4, 5, 6, 7, 8, 9, 10, 11, 12, 13, 14, 15, 16, 17, 18, 19, 20, 21, 22, 23, 24, 25, 26, 27, 28, 29, 30, 31, 32, 33, 34, 35, 36, 37, 38, 39, 40, 41, 42, 43, 44, 45, 46, 47, 48, 49, 50, 51, 52, 53, 54, 55, 56, 57, 58, 59, 60, 61, 62, 63, 64, 65, 66, 67, 68, 69, 70, 71, 72, 73, 74, 75, 76, 77, 78, 79, 80, 81, 82, 83, 84, 85, 86, 87, 88, 89, 90, 91, 92, 93, 94, 95, 96, 97, 98, 99, 100, 101, 102, 103, 104, 105, 106, 107, 108, 109, 110, 111, 112, 113, 114, 115, 116, 117, 118, 119, 120, 121, 122, 123, 124, 125, 126, 127, 128, 129, 130, 131, 132, 133, 134, 135, 136, 137, 138, 139, 140, 141, 142, 143, 144, 145, 146, 147, 148, 149, 150, 151, 152, 153, 154, 155, 156, 157, 158, 159, 160, 161, 162, 163, 164, 165, 166, 167, 168, 169, 170, 171, 172, 173, 174, 175, 176, 177, 178, 179, 180, 181, 182, 183, 184, 185, 186, 187, 188, 189, 190, 191, 192, 193, 194, 195],
      "AcquisitionTime": ["201925.112500", "201926.312500", "201927.512500", "201928.712500", "201929.912500", "201931.112500", "201932.312500", "201933.512500", "201934.712500", "201935.912500", "201937.112500", "201938.312500", "201939.512500", "201940.712500", "201941.912500", "201943.112500", "201944.312500", "201945.512500", "201946.712500", "201947.912500", "201949.112500", "201950.312500", "201951.512500", "201952.712500", "201953.912500", "201955.112500", "201956.312500", "201957.512500", "201958.712500", "201959.912500", "202001.112500", "202002.312500", "202003.512500", "202004.712500", "202005.912500", "202007.112500", "202008.312500", "202009.512500", "202010.712500", "202011.912500", "202013.112500", "202014.312500", "202015.512500", "202016.712500", "202017.912500", "202019.112500", "202020.312500", "202021.512500", "202022.712500", "202023.912500", "202025.112500", "202026.312500", "202027.512500", "202028.712500", "202029.912500", "202031.112500", "202032.312500", "202033.512500", "202034.712500", "202035.912500", "202037.112500", "202038.312500", "202039.512500", "202040.712500", "202041.912500", "202043.112500", "202044.312500", "202045.512500", "202046.712500", "202047.912500", "202049.112500", "202050.312500", "202051.512500", "202052.712500", "202053.912500", "202055.112500", "202056.312500", "202057.512500", "202058.712500", "202059.912500", "202101.112500", "202102.312500", "202103.512500", "202104.712500", "202105.912500", "202107.112500", "202108.312500", "202109.512500", "202110.712500", "202111.912500", "202113.112500", "202114.312500", "202115.512500", "202116.712500", "202117.912500", "202119.112500", "202120.312500", "202121.512500", "202122.712500", "202123.912500", "202125.112500", "202126.312500", "202127.512500", "202128.712500", "202129.912500", "202131.112500", "202132.312500", "202133.512500", "202134.712500", "202135.912500", "202137.112500", "202138.312500", "202139.512500", "202140.712500", "202141.912500", "202143.112500", "202144.312500", "202145.512500", "202146.712500", "202147.912500", "202149.112500", "202150.312500", "202151.512500", "202152.712500", "202153.912500", "202155.112500", "202156.312500", "202157.512500", "202158.712500", "202159.912500", "202201.112500", "202202.312500", "202203.512500", "202204.712500", "202205.912500", "202207.112500", "202208.312500", "202209.512500", "202210.712500", "202211.912500", "202213.112500", "202214.312500", "202215.512500", "202216.712500", "202217.912500", "202219.112500", "202220.312500", "202221.512500", "202222.712500", "202223.912500", "202225.112500", "202226.312500", "202227.512500", "202228.712500", "202229.912500", "202231.112500", "202232.312500", "202233.512500", "202234.712500", "202235.912500", "202237.112500", "202238.312500", "202239.512500", "202240.712500", "202241.912500", "202243.112500", "202244.312500", "202245.512500", "202246.712500", "202247.912500", "202249.112500", "202250.312500", "202251.512500", "202252.712500", "202253.912500", "202255.112500", "202256.312500", "202257.512500", "202258.712500", "202259.912500", "202301.112500", "202302.312500", "202303.512500", "202304.712500", "202305.912500", "202307.112500", "202308.312500", "202309.512500", "202310.712500", "202311.912500", "202313.112500", "202314.312500", "202315.512500", "202316.712500", "202317.912500"],
      "ContentTime": ["202008.524000", "202008.527000", "202008.530000", "202008.533000", "202008.535000", "202008.538000", "202008.541000", "202008.543000", "202008.546000", "202008.548000", "202008.551000", "202008.554000", "202008.556000", "202008.559000", "202008.562000", "202008.565000", "202008.567000", "202008.570000", "202008.572000", "202008.575000", "202008.578000", "202008.580000", "202008.583000", "202008.585000", "202008.593000", "202008.596000", "202008.599000", "202008.601000", "202008.611000", "202008.613000", "202008.616000", "202008.619000", "202008.621000", "202008.624000", "202008.627000", "202028.519000", "202028.521000", "202028.524000", "202028.527000", "202028.529000", "202028.532000", "202028.534000", "202028.537000", "202028.540000", "202028.542000", "202028.545000", "202028.547000", "202028.550000", "202028.553000", "202028.555000", "202028.558000", "202028.560000", "202108.519000", "202108.521000", "202108.524000", "202108.527000", "202108.529000", "202108.532000", "202108.535000", "202108.537000", "202108.540000", "202108.542000", "202108.545000", "202108.547000", "202108.550000", "202108.553000", "202108.555000", "202108.558000", "202108.560000", "202108.563000", "202108.566000", "202108.568000", "202108.571000", "202108.574000", "202108.576000", "202108.579000", "202108.581000", "202108.584000", "202108.586000", "202108.589000", "202108.592000", "202108.594000", "202108.597000", "202108.599000", "202108.602000", "202148.519000", "202148.522000", "202148.525000", "202148.527000", "202148.530000", "202148.533000", "202148.535000", "202148.538000", "202148.540000", "202148.543000", "202148.545000", "202148.548000", "202148.551000", "202148.553000", "202148.556000", "202148.559000", "202148.561000", "202148.564000", "202148.566000", "202148.580000", "202148.583000", "202148.586000", "202148.588000", "202148.591000", "202148.593000", "202148.596000", "202148.599000", "202148.601000", "202148.604000", "202148.607000", "202148.609000", "202148.612000", "202148.614000", "202148.617000", "202228.519000", "202228.522000", "202228.525000", "202228.527000", "202228.530000", "202228.533000", "202228.535000", "202228.538000", "202228.541000", "202228.543000", "202228.546000", "202228.548000", "202228.551000", "202228.554000", "202228.556000", "202228.559000", "202228.561000", "202228.564000", "202228.567000", "202228.569000", "202228.572000", "202228.574000", "202228.577000", "202228.579000", "202228.582000", "202228.585000", "202228.587000", "202228.590000", "202228.592000", "202228.595000", "202228.597000", "202228.600000", "202228.603000", "202308.518000", "202308.521000", "202308.524000", "202308.527000", "202308.529000", "202308.532000", "202308.535000", "202308.537000", "202308.540000", "202308.542000", "202308.545000", "202308.547000", "202308.550000", "202308.553000", "202308.555000", "202308.558000", "202308.560000", "202308.563000", "202308.565000", "202308.568000", "202308.571000", "202308.573000", "202308.576000", "202308.578000", "202308.581000", "202308.583000", "202308.586000", "202308.588000", "202308.591000", "202308.594000", "202308.596000", "202308.599000", "202308.601000", "202319.598000", "202319.600000", "202319.603000", "202319.606000", "202319.608000", "202319.611000", "202319.614000", "202319.616000", "202319.619000", "202319.621000"],
      "InstanceCreationTime": ["202008.524000", "202008.527000", "202008.530000", "202008.533000", "202008.535000", "202008.538000", "202008.541000", "202008.543000", "202008.546000", "202008.548000", "202008.551000", "202008.554000", "202008.556000", "202008.559000", "202008.562000", "202008.565000", "202008.567000", "202008.570000", "202008.572000", "202008.575000", "202008.578000", "202008.580000", "202008.583000", "202008.585000", "202008.593000", "202008.596000", "202008.599000", "202008.601000", "202008.611000", "202008.613000", "202008.616000", "202008.619000", "202008.621000", "202008.624000", "202008.627000", "202028.519000", "202028.521000", "202028.524000", "202028.527000", "202028.529000", "202028.532000", "202028.534000", "202028.537000", "202028.540000", "202028.542000", "202028.545000", "202028.547000", "202028.550000", "202028.553000", "202028.555000", "202028.558000", "202028.560000", "202108.519000", "202108.521000", "202108.524000", "202108.527000", "202108.529000", "202108.532000", "202108.535000", "202108.537000", "202108.540000", "202108.542000", "202108.545000", "202108.547000", "202108.550000", "202108.553000", "202108.555000", "202108.558000", "202108.560000", "202108.563000", "202108.566000", "202108.568000", "202108.571000", "202108.574000", "202108.576000", "202108.579000", "202108.581000", "202108.584000", "202108.586000", "202108.589000", "202108.592000", "202108.594000", "202108.597000", "202108.599000", "202108.602000", "202148.519000", "202148.522000", "202148.525000", "202148.527000", "202148.530000", "202148.533000", "202148.535000", "202148.538000", "202148.540000", "202148.543000", "202148.545000", "202148.548000", "202148.551000", "202148.553000", "202148.556000", "202148.559000", "202148.561000", "202148.564000", "202148.566000", "202148.580000", "202148.583000", "202148.586000", "202148.588000", "202148.591000", "202148.593000", "202148.596000", "202148.599000", "202148.601000", "202148.604000", "202148.607000", "202148.609000", "202148.612000", "202148.614000", "202148.617000", "202228.519000", "202228.522000", "202228.525000", "202228.527000", "202228.530000", "202228.533000", "202228.535000", "202228.538000", "202228.541000", "202228.543000", "202228.546000", "202228.548000", "202228.551000", "202228.554000", "202228.556000", "202228.559000", "202228.561000", "202228.564000", "202228.567000", "202228.569000", "202228.572000", "202228.574000", "202228.577000", "202228.579000", "202228.582000", "202228.585000", "202228.587000", "202228.590000", "202228.592000", "202228.595000", "202228.597000", "202228.600000", "202228.603000", "202308.518000", "202308.521000", "202308.524000", "202308.527000", "202308.529000", "202308.532000", "202308.535000", "202308.537000", "202308.540000", "202308.542000", "202308.545000", "202308.547000", "202308.550000", "202308.553000", "202308.555000", "202308.558000", "202308.560000", "202308.563000", "202308.565000", "202308.568000", "202308.571000", "202308.573000", "202308.576000", "202308.578000", "202308.581000", "202308.583000", "202308.586000", "202308.588000", "202308.591000", "202308.594000", "202308.596000", "202308.599000", "202308.601000", "202319.598000", "202319.600000", "202319.603000", "202319.606000", "202319.608000", "202319.611000", "202319.614000", "202319.616000", "202319.619000", "202319.621000"],
      "InstanceNumber": [1, 2, 3, 4, 5, 6, 7, 8, 9, 10, 11, 12, 13, 14, 15, 16, 17, 18, 19, 20, 21, 22, 23, 24, 25, 26, 27, 28, 29, 30, 31, 32, 33, 34, 35, 36, 37, 38, 39, 40, 41, 42, 43, 44, 45, 46, 47, 48, 49, 50, 51, 52, 53, 54, 55, 56, 57, 58, 59, 60, 61, 62, 63, 64, 65, 66, 67, 68, 69, 70, 71, 72, 73, 74, 75, 76, 77, 78, 79, 80, 81, 82, 83, 84, 85, 86, 87, 88, 89, 90, 91, 92, 93, 94, 95, 96, 97, 98, 99, 100, 101, 102, 103, 104, 105, 106, 107, 108, 109, 110, 111, 112, 113, 114, 115, 116, 117, 118, 119, 120, 121, 122, 123, 124, 125, 126, 127, 128, 129, 130, 131, 132, 133, 134, 135, 136, 137, 138, 139, 140, 141, 142, 143, 144, 145, 146, 147, 148, 149, 150, 151, 152, 153, 154, 155, 156, 157, 158, 159, 160, 161, 162, 163, 164, 165, 166, 167, 168, 169, 170, 171, 172, 173, 174, 175, 176, 177, 178, 179, 180, 181, 182, 183, 184, 185, 186, 187, 188, 189, 190, 191, 192, 193, 194, 195],
      "LargestImagePixelValue": [2080, 2006, 1949, 1921, 1919, 1919, 1928, 1922, 1905, 1919, 1910, 1915, 1915, 1897, 1905, 1907, 1903, 1902, 1902, 1909, 1908, 1910, 1907, 1920, 1903, 1904, 1895, 1897, 1908, 1898, 1893, 1885, 1891, 1886, 1898, 1893, 1885, 1881, 1877, 2011, 1882, 1872, 1875, 1883, 1880, 1891, 1880, 1875, 1884, 1892, 1895, 1883, 1888, 1887, 1889, 1890, 1897, 1895, 1899, 1890, 1881, 1891, 1892, 1892, 1901, 1884, 1903, 1896, 1894, 1896, 1904, 1911, 1884, 1906, 1900, 1891, 1913, 1883, 1914, 1893, 1907, 1910, 1896, 1894, 1901, 1886, 1906, 1895, 1903, 1905, 1883, 1893, 1898, 1900, 1887, 1906, 1904, 1904, 1894, 1902, 1894, 1900, 1897, 1928, 1892, 1893, 1899, 1892, 1888, 1891, 1904, 1891, 1911, 1901, 1909, 1908, 1905, 1909, 1894, 1906, 1894, 1898, 1907, 1900, 1894, 1894, 1896, 1898, 1892, 1901, 1912, 1914, 1904, 1909, 1915, 1919, 1893, 1912, 1903, 1917, 1898, 1920, 1918, 1919, 1920, 1924, 1912, 1913, 1930, 1926, 1899, 1911, 1919, 1915, 1912, 1917, 1924, 1915, 1910, 1909, 1922, 1911, 1934, 1907, 1922, 1930, 1902, 1917, 1932, 1904, 1933, 1908, 1913, 1908, 1916, 1908, 1912, 1923, 1916, 1917, 1925, 1911, 1905, 1913, 1903, 1920, 1891, 1915, 1905, 1914, 1919, 1913, 1905, 1916, 1894],
      "WindowCenter": [593.0, 590.0, 589.0, 589.0, 589.0, 589.0, 589.0, 589.0, 589.0, 589.0, 589.0, 589.0, 589.0, 589.0, 589.0, 589.0, 589.0, 589.0, 589.0, 588.0, 589.0, 588.0, 588.0, 588.0, 588.0, 589.0, 588.0, 588.0, 587.0, 587.0, 587.0, 587.0, 587.0, 588.0, 588.0, 589.0, 588.0, 589.0, 589.0, 591.0, 590.0, 589.0, 588.0, 587.0, 587.0, 586.0, 587.0, 586.0, 587.0, 588.0, 588.0, 588.0, 588.0, 588.0, 588.0, 587.0, 588.0, 587.0, 588.0, 587.0, 587.0, 587.0, 587.0, 586.0, 587.0, 586.0, 586.0, 586.0, 586.0, 586.0, 585.0, 586.0, 586.0, 586.0, 586.0, 586.0, 586.0, 585.0, 586.0, 585.0, 585.0, 586.0, 586.0, 586.0, 586.0, 586.0, 587.0, 587.0, 587.0, 587.0, 586.0, 586.0, 586.0, 587.0, 587.0, 587.0, 587.0, 586.0, 587.0, 586.0, 586.0, 587.0, 588.0, 587.0, 586.0, 586.0, 587.0, 588.0, 587.0, 588.0, 588.0, 588.0, 589.0, 588.0, 589.0, 588.0, 588.0, 588.0, 588.0, 588.0, 588.0, 588.0, 588.0, 588.0, 588.0, 588.0, 588.0, 587.0, 587.0, 588.0, 587.0, 587.0, 587.0, 587.0, 588.0, 588.0, 588.0, 589.0, 588.0, 589.0, 588.0, 589.0, 589.0, 589.0, 589.0, 589.0, 588.0, 588.0, 588.0, 587.0, 587.0, 588.0, 587.0, 588.0, 588.0, 588.0, 589.0, 589.0, 589.0, 588.0, 588.0, 588.0, 588.0, 587.0, 588.0, 589.0, 588.0, 589.0, 589.0, 588.0, 589.0, 588.0, 588.0, 588.0, 588.0, 588.0, 589.0, 589.0, 590.0, 589.0, 589.0, 589.0, 589.0, 589.0, 588.0, 588.0, 588.0, 589.0, 590.0, 589.0, 589.0, 587.0, 587.0, 587.0, 587.0],
      "WindowWidth": [1265.0, 1259.0, 1257.0, 1256.0, 1256.0, 1256.0, 1256.0, 1256.0, 1257.0, 1257.0, 1257.0, 1257.0, 1257.0, 1257.0, 1257.0, 1258.0, 1257.0, 1257.0, 1257.0, 1256.0, 1256.0, 1256.0, 1256.0, 1255.0, 1256.0, 1256.0, 1256.0, 1254.0, 1253.0, 1252.0, 1252.0, 1252.0, 1254.0, 1254.0, 1255.0, 1256.0, 1256.0, 1257.0, 1258.0, 1261.0, 1259.0, 1257.0, 1255.0, 1253.0, 1252.0, 1251.0, 1251.0, 1250.0, 1252.0, 1253.0, 1255.0, 1256.0, 1255.0, 1256.0, 1255.0, 1253.0, 1254.0, 1253.0, 1254.0, 1253.0, 1253.0, 1253.0, 1252.0, 1251.0, 1252.0, 1251.0, 1251.0, 1251.0, 1250.0, 1249.0, 1248.0, 1250.0, 1250.0, 1250.0, 1250.0, 1249.0, 1250.0, 1248.0, 1249.0, 1248.0, 1248.0, 1249.0, 1249.0, 1249.0, 1250.0, 1250.0, 1252.0, 1252.0, 1253.0, 1252.0, 1250.0, 1251.0, 1251.0, 1252.0, 1252.0, 1252.0, 1252.0, 1251.0, 1251.0, 1251.0, 1251.0, 1253.0, 1253.0, 1253.0, 1251.0, 1251.0, 1252.0, 1254.0, 1253.0, 1254.0, 1253.0, 1255.0, 1256.0, 1255.0, 1256.0, 1254.0, 1254.0, 1254.0, 1254.0, 1255.0, 1255.0, 1256.0, 1256.0, 1255.0, 1255.0, 1255.0, 1254.0, 1253.0, 1253.0, 1254.0, 1253.0, 1253.0, 1253.0, 1253.0, 1255.0, 1255.0, 1255.0, 1256.0, 1256.0, 1257.0, 1256.0, 1256.0, 1257.0, 1258.0, 1258.0, 1257.0, 1256.0, 1255.0, 1255.0, 1253.0, 1252.0, 1254.0, 1254.0, 1254.0, 1253.0, 1255.0, 1257.0, 1257.0, 1256.0, 1255.0, 1254.0, 1254.0, 1254.0, 1253.0, 1255.0, 1256.0, 1256.0, 1256.0, 1257.0, 1255.0, 1256.0, 1255.0, 1255.0, 1255.0, 1255.0, 1255.0, 1257.0, 1258.0, 1259.0, 1258.0, 1258.0, 1258.0, 1256.0, 1256.0, 1256.0, 1254.0, 1255.0, 1258.0, 1259.0, 1258.0, 1256.0, 1253.0, 1251.0, 1252.0, 1253.0]
    },
    "slices": {}
  }
}