{
  "AcquisitionMatrixPE": 88,
  "AcquisitionNumber": 1,
  "AcquisitionTime": "19:34:17.067500",
  "BandwidthPerPixelPhaseEncode": 19.592,
  "BaseResolution": 88,
  "BodyPartExamined": "BRAIN",
  "ConsistencyInfo": "N4_VE11C_LATEST_20160120",
  "ConversionSoftware": "dcm2niix",
  "ConversionSoftwareVersion": "v1.0.20190902",
  "DerivedVendorReportedEchoSpacing": 0.000580014,
  "DeviceSerialNumber": "67050",
  "DwellTime": 2.6e-06,
  "EchoTime": 0.033,
  "EchoTrainLength": 88,
  "EffectiveEchoSpacing": 0.000580014,
  "FlipAngle": 62,
  "ImageOrientationPatientDICOM": [0.998014, 0.0384476, -0.0498984, -0.0433997, 0.993808, -0.102289],
  "ImageType": [
    "ORIGINAL",
    "PRIMARY",
    "M",
    "ND",
    "MOSAIC"
],
  "ImagingFrequency": 123.251,
  "InPlanePhaseEncodingDirectionDICOM": "COL",
  "InstitutionAddress": "Olive_Street_60_Providence_RI_US_02912",
  "InstitutionName": "BROWN_UNIVERSITY_MRF",
  "InstitutionalDepartmentName": "Department",
  "MRAcquisitionType": "2D",
  "MagneticFieldStrength": 3,
  "Manufacturer": "Siemens",
  "ManufacturersModelName": "Prisma_fit",
  "Modality": "MR",
  "MultibandAccelerationFactor": 4,
  "PartialFourier": 1,
  "PatientPosition": "HFS",
  "PercentPhaseFOV": 100,
  "PhaseEncodingDirection": "j-",
  "PhaseEncodingSteps": 88,
  "PhaseResolution": 1,
  "PixelBandwidth": 2185,
  "ProcedureStepDescription": "ASHENHAV_1222",
  "ProtocolName": "func-bold_task-RDMcolor_run-03",
  "PulseSequenceDetails": "%SiemensSeq%_ep2d_bold",
  "ReceiveCoilActiveElements": "HC1-7",
  "ReceiveCoilName": "HeadNeck_64",
  "ReconMatrixPE": 88,
  "RefLinesPE": 8,
  "RepetitionTime": 1.2,
  "SAR": 0.0525599,
  "ScanOptions": "FS",
  "ScanningSequence": "EP",
  "SequenceName": "_epfid2d1_88",
  "SequenceVariant": "SK",
  "SeriesDescription": "func-bold_task-RDMcolor_run-03",
  "SeriesNumber": 12,
  "ShimSetting": [1741, -9068, 4403, 269, -89, -72, 6, -9],
  "SliceThickness": 2.4,
  "SliceTiming": [0.55, 0, 0.63, 0.0775, 0.7075, 0.1575, 0.7875, 0.235, 0.865, 0.315, 0.945, 0.3925, 1.0225, 0.4725, 1.1025, 0.55, 0, 0.63, 0.0775, 0.7075, 0.1575, 0.7875, 0.235, 0.865, 0.315, 0.945, 0.3925, 1.0225, 0.4725, 1.1025, 0.55, 0, 0.63, 0.0775, 0.7075, 0.1575, 0.7875, 0.235, 0.865, 0.315, 0.945, 0.3925, 1.0225, 0.4725, 1.1025, 0.55, 0, 0.63, 0.0775, 0.7075, 0.1575, 0.7875, 0.235, 0.865, 0.315, 0.945, 0.3925, 1.0225, 0.4725, 1.1025],
  "SoftwareVersions": "syngo_MR_E11",
  "SpacingBetweenSlices": 2.4,
  "StationName": "AWP67050",
  "TaskName": "RDMcolor",
  "TotalReadoutTime": 0.0504612,
  "TxRefAmp": 217.047,
  "dcmmeta_affine": [
    [-2.392965316772461, -0.10406072437763214, -0.10957609117031097, 114.28421783447266],
    [-0.09218680113554001, 2.3828794956207275, -0.2502027750015259, -94.86282348632812],
    [-0.11964287608861923, 0.24526047706604004, 2.3844058513641357, -50.089759826660156],
    [0.0, 0.0, 0.0, 1.0]
],
  "dcmmeta_reorient_transform": [
    [0.0, -1.0, 0.0, 87.0],
    [1.0, 0.0, 0.0, 0.0],
    [0.0, 0.0, 1.0, 0.0],
    [0.0, 0.0, 0.0, 1.0]
],
  "dcmmeta_shape": [88, 88, 60, 392],
  "dcmmeta_slice_dim": 2,
  "dcmmeta_version": 0.6,
  "global": {
    "const": {
      "AcquisitionMatrix": [88, 0, 0, 88],
      "AngioFlag": "N",
      "BitsAllocated": 16,
      "BitsStored": 12,
      "BodyPartExamined": "BRAIN",
      "Columns": 704,
      "DeidentificationMethodCodeSequence": [
        {
          "CodeMeaning": "XNAT DicomEdit 6 Script",
          "CodeValue": "3",
          "CodingSchemeDesignator": "XNAT",
          "CodingSchemeVersion": "1.0"}
],
      "EchoNumbers": 1,
      "EchoTime": 33.0,
      "EchoTrainLength": 88,
      "FlipAngle": 62.0,
      "HighBit": 11,
      "ImageOrientationPatient": [0.9980139920881, 0.03844757699521, -0.0498984510739, -0.0433997342538, 0.99380756643847, -0.1022887283934],
      "ImagePositionPatient": [-810.21355608212, -874.76810938379, 83.638132239951],
      "ImageType": [
        "ORIGINAL",
        "PRIMARY",
        "M",
        "ND",
        "MOSAIC"
],
      "ImagedNucleus": "1H",
      "ImagingFrequency": 123.250719,
      "InPlanePhaseEncodingDirection": "COL",
      "MRAcquisitionType": "2D",
      "MagneticFieldStrength": 3.0,
      "Manufacturer": "SIEMENS",
      "ManufacturerModelName": "Prisma_fit",
      "Modality": "MR",
      "NumberOfAverages": 1.0,
      "NumberOfPhaseEncodingSteps": 88,
      "PercentPhaseFieldOfView": 100.0,
      "PercentSampling": 100.0,
      "PerformedProcedureStepStartTime": "184918.066000",
      "PhotometricInterpretation": "MONOCHROME2",
      "PixelBandwidth": 2185.0,
      "PixelRepresentation": 0,
      "PixelSpacing": [2.3977272510529, 2.3977272510529],
      "ProtocolName": "func-bold_task-RDMcolor_run-03",
      "RepetitionTime": 1200.0,
      "Rows": 704,
      "SAR": 0.05255989591746,
      "SamplesPerPixel": 1,
      "ScanOptions": "FS",
      "ScanningSequence": "EP",
      "SequenceName": "*epfid2d1_88",
      "SequenceVariant": "SK",
      "SeriesDescription": "func-bold_task-RDMcolor_run-03",
      "SeriesNumber": 12,
      "SeriesTime": "193444.590000",
      "SliceLocation": -45.092581415279,
      "SliceThickness": 2.4000000953674,
      "SmallestImagePixelValue": 0,
      "SoftwareVersions": "syngo MR E11",
      "SpacingBetweenSlices": 2.3999999476495,
      "SpecificCharacterSet": "ISO_IR 100",
      "StudyID": "1",
      "StudyTime": "184917.972000",
      "TransmitCoilName": "Body",
      "VariableFlipAngleFlag": "N",
      "WindowCenterWidthExplanation": "Algo1",
      "dBdt": 0.0},
    "slices": {}
  },
  "time": {
    "samples": {
      "AcquisitionNumber": [1, 2, 3, 4, 5, 6, 7, 8, 9, 10, 11, 12, 13, 14, 15, 16, 17, 18, 19, 20, 21, 22, 23, 24, 25, 26, 27, 28, 29, 30, 31, 32, 33, 34, 35, 36, 37, 38, 39, 40, 41, 42, 43, 44, 45, 46, 47, 48, 49, 50, 51, 52, 53, 54, 55, 56, 57, 58, 59, 60, 61, 62, 63, 64, 65, 66, 67, 68, 69, 70, 71, 72, 73, 74, 75, 76, 77, 78, 79, 80, 81, 82, 83, 84, 85, 86, 87, 88, 89, 90, 91, 92, 93, 94, 95, 96, 97, 98, 99, 100, 101, 102, 103, 104, 105, 106, 107, 108, 109, 110, 111, 112, 113, 114, 115, 116, 117, 118, 119, 120, 121, 122, 123, 124, 125, 126, 127, 128, 129, 130, 131, 132, 133, 134, 135, 136, 137, 138, 139, 140, 141, 142, 143, 144, 145, 146, 147, 148, 149, 150, 151, 152, 153, 154, 155, 156, 157, 158, 159, 160, 161, 162, 163, 164, 165, 166, 167, 168, 169, 170, 171, 172, 173, 174, 175, 176, 177, 178, 179, 180, 181, 182, 183, 184, 185, 186, 187, 188, 189, 190, 191, 192, 193, 194, 195, 196, 197, 198, 199, 200, 201, 202, 203, 204, 205, 206, 207, 208, 209, 210, 211, 212, 213, 214, 215, 216, 217, 218, 219, 220, 221, 222, 223, 224, 225, 226, 227, 228, 229, 230, 231, 232, 233, 234, 235, 236, 237, 238, 239, 240, 241, 242, 243, 244, 245, 246, 247, 248, 249, 250, 251, 252, 253, 254, 255, 256, 257, 258, 259, 260, 261, 262, 263, 264, 265, 266, 267, 268, 269, 270, 271, 272, 273, 274, 275, 276, 277, 278, 279, 280, 281, 282, 283, 284, 285, 286, 287, 288, 289, 290, 291, 292, 293, 294, 295, 296, 297, 298, 299, 300, 301, 302, 303, 304, 305, 306, 307, 308, 309, 310, 311, 312, 313, 314, 315, 316, 317, 318, 319, 320, 321, 322, 323, 324, 325, 326, 327, 328, 329, 330, 331, 332, 333, 334, 335, 336, 337, 338, 339, 340, 341, 342, 343, 344, 345, 346, 347, 348, 349, 350, 351, 352, 353, 354, 355, 356, 357, 358, 359, 360, 361, 362, 363, 364, 365, 366, 367, 368, 369, 370, 371, 372, 373, 374, 375, 376, 377, 378, 379, 380, 381, 382, 383, 384, 385, 386, 387, 388, 389, 390, 391, 392],
      "AcquisitionTime": ["193417.067500", "193418.267500", "193419.467500", "193420.667500", "193421.867500", "193423.067500", "193424.267500", "193425.467500", "193426.667500", "193427.867500", "193429.067500", "193430.267500", "193431.467500", "193432.667500", "193433.867500", "193435.067500", "193436.267500", "193437.467500", "193438.667500", "193439.867500", "193441.067500", "193442.267500", "193443.467500", "193444.667500", "193445.867500", "193447.067500", "193448.267500", "193449.467500", "193450.667500", "193451.867500", "193453.067500", "193454.267500", "193455.467500", "193456.667500", "193457.867500", "193459.067500", "193500.267500", "193501.467500", "193502.667500", "193503.867500", "193505.067500", "193506.267500", "193507.467500", "193508.667500", "193509.867500", "193511.067500", "193512.267500", "193513.467500", "193514.667500", "193515.867500", "193517.067500", "193518.267500", "193519.467500", "193520.667500", "193521.867500", "193523.067500", "193524.267500", "193525.467500", "193526.667500", "193527.867500", "193529.067500", "193530.267500", "193531.467500", "193532.667500", "193533.867500", "193535.067500", "193536.267500", "193537.467500", "193538.667500", "193539.867500", "193541.067500", "193542.267500", "193543.467500", "193544.667500", "193545.867500", "193547.067500", "193548.267500", "193549.467500", "193550.667500", "193551.867500", "193553.067500", "193554.267500", "193555.467500", "193556.667500", "193557.867500", "193559.067500", "193600.267500", "193601.467500", "193602.667500", "193603.867500", "193605.067500", "193606.267500", "193607.467500", "193608.667500", "193609.867500", "193611.067500", "193612.267500", "193613.467500", "193614.667500", "193615.867500", "193617.067500", "193618.267500", "193619.467500", "193620.667500", "193621.867500", "193623.067500", "193624.267500", "193625.467500", "193626.667500", "193627.867500", "193629.067500", "193630.267500", "193631.467500", "193632.667500", "193633.867500", "193635.067500", "193636.267500", "193637.467500", "193638.667500", "193639.867500", "193641.067500", "193642.267500", "193643.467500", "193644.667500", "193645.867500", "193647.067500", "193648.267500", "193649.467500", "193650.667500", "193651.867500", "193653.067500", "193654.267500", "193655.467500", "193656.667500", "193657.867500", "193659.067500", "193700.267500", "193701.467500", "193702.667500", "193703.867500", "193705.067500", "193706.267500", "193707.467500", "193708.667500", "193709.867500", "193711.067500", "193712.267500", "193713.467500", "193714.667500", "193715.867500", "193717.067500", "193718.267500", "193719.467500", "193720.667500", "193721.867500", "193723.067500", "193724.267500", "193725.467500", "193726.667500", "193727.867500", "193729.067500", "193730.267500", "193731.467500", "193732.667500", "193733.867500", "193735.067500", "193736.267500", "193737.467500", "193738.667500", "193739.867500", "193741.067500", "193742.267500", "193743.467500", "193744.667500", "193745.867500", "193747.067500", "193748.267500", "193749.467500", "193750.667500", "193751.867500", "193753.067500", "193754.267500", "193755.467500", "193756.667500", "193757.867500", "193759.067500", "193800.267500", "193801.467500", "193802.667500", "193803.867500", "193805.067500", "193806.267500", "193807.467500", "193808.667500", "193809.867500", "193811.067500", "193812.267500", "193813.467500", "193814.667500", "193815.867500", "193817.067500", "193818.267500", "193819.467500", "193820.667500", "193821.867500", "193823.067500", "193824.267500", "193825.467500", "193826.667500", "193827.867500", "193829.067500", "193830.267500", "193831.467500", "193832.667500", "193833.867500", "193835.067500", "193836.267500", "193837.467500", "193838.667500", "193839.867500", "193841.067500", "193842.267500", "193843.467500", "193844.667500", "193845.867500", "193847.067500", "193848.267500", "193849.467500", "193850.667500", "193851.867500", "193853.067500", "193854.267500", "193855.467500", "193856.667500", "193857.867500", "193859.067500", "193900.267500", "193901.467500", "193902.667500", "193903.867500", "193905.067500", "193906.267500", "193907.467500", "193908.667500", "193909.867500", "193911.067500", "193912.267500", "193913.467500", "193914.667500", "193915.867500", "193917.067500", "193918.267500", "193919.467500", "193920.667500", "193921.867500", "193923.067500", "193924.267500", "193925.467500", "193926.667500", "193927.867500", "193929.067500", "193930.267500", "193931.467500", "193932.667500", "193933.867500", "193935.067500", "193936.267500", "193937.467500", "193938.667500", "193939.867500", "193941.067500", "193942.267500", "193943.467500", "193944.667500", "193945.867500", "193947.067500", "193948.267500", "193949.467500", "193950.667500", "193951.867500", "193953.067500", "193954.267500", "193955.467500", "193956.667500", "193957.867500", "193959.067500", "194000.267500", "194001.467500", "194002.667500", "194003.867500", "194005.067500", "194006.267500", "194007.467500", "194008.667500", "194009.867500", "194011.067500", "194012.267500", "194013.467500", "194014.667500", "194015.867500", "194017.067500", "194018.267500", "194019.467500", "194020.667500", "194021.867500", "194023.067500", "194024.267500", "194025.467500", "194026.667500", "194027.867500", "194029.067500", "194030.267500", "194031.467500", "194032.667500", "194033.867500", "194035.067500", "194036.267500", "194037.467500", "194038.667500", "194039.867500", "194041.067500", "194042.267500", "194043.467500", "194044.667500", "194045.867500", "194047.067500", "194048.267500", "194049.467500", "194050.667500", "194051.867500", "194053.067500", "194054.267500", "194055.467500", "194056.667500", "194057.867500", "194059.067500", "194100.267500", "194101.467500", "194102.667500", "194103.867500", "194105.067500", "194106.267500", "194107.467500", "194108.667500", "194109.867500", "194111.067500", "194112.267500", "194113.467500", "194114.667500", "194115.867500", "194117.067500", "194118.267500", "194119.467500", "194120.667500", "194121.867500", "194123.067500", "194124.267500", "194125.467500", "194126.667500", "194127.867500", "194129.067500", "194130.267500", "194131.467500", "194132.667500", "194133.867500", "194135.067500", "194136.267500", "194137.467500", "194138.667500", "194139.867500", "194141.067500", "194142.267500", "194143.467500", "194144.667500", "194145.867500", "194147.067500", "194148.267500", "194149.467500", "194150.667500", "194151.867500", "194153.067500", "194154.267500", "194155.467500", "194156.667500", "194157.867500", "194159.067500", "194200.267500", "194201.467500", "194202.667500", "194203.867500", "194205.067500", "194206.267500"],
      "ContentTime": ["193444.593000", "193444.597000", "193444.599000", "193444.602000", "193444.604000", "193444.607000", "193444.618000", "193444.621000", "193444.623000", "193444.626000", "193444.629000", "193444.631000", "193444.638000", "193444.641000", "193444.644000", "193444.646000", "193444.649000", "193444.652000", "193444.654000", "193444.657000", "193444.659000", "193444.662000", "193524.588000", "193524.590000", "193524.593000", "193524.596000", "193524.608000", "193524.610000", "193524.613000", "193524.616000", "193524.618000", "193524.621000", "193524.623000", "193524.626000", "193524.629000", "193524.631000", "193524.634000", "193524.636000", "193524.639000", "193524.654000", "193524.656000", "193524.659000", "193524.662000", "193524.666000", "193524.669000", "193524.671000", "193524.674000", "193524.677000", "193524.679000", "193524.682000", "193524.684000", "193524.687000", "193524.690000", "193524.692000", "193524.695000", "193604.588000", "193604.591000", "193604.594000", "193604.597000", "193604.599000", "193604.602000", "193604.605000", "193604.607000", "193604.610000", "193604.612000", "193604.615000", "193604.618000", "193604.620000", "193604.623000", "193604.625000", "193604.628000", "193604.630000", "193604.633000", "193604.636000", "193604.638000", "193604.641000", "193604.643000", "193604.646000", "193604.649000", "193604.651000", "193604.654000", "193604.656000", "193604.659000", "193604.662000", "193604.664000", "193604.667000", "193604.669000", "193604.672000", "193604.675000", "193644.588000", "193644.591000", "193644.594000", "193644.597000", "193644.599000", "193644.602000", "193644.605000", "193644.607000", "193644.610000", "193644.612000", "193644.615000", "193644.618000", "193644.620000", "193644.623000", "193644.625000", "193644.628000", "193644.631000", "193644.633000", "193644.636000", "193644.638000", "193644.641000", "193644.644000", "193644.646000", "193644.649000", "193644.651000", "193644.654000", "193644.657000", "193644.659000", "193644.662000", "193644.664000", "193644.667000", "193644.670000", "193644.672000", "193724.587000", "193724.590000", "193724.593000", "193724.596000", "193724.598000", "193724.601000", "193724.604000", "193724.606000", "193724.609000", "193724.612000", "193724.614000", "193724.617000", "193724.619000", "193724.622000", "193724.625000", "193724.627000", "193724.630000", "193724.632000", "193724.635000", "193724.637000", "193724.640000", "193724.643000", "193724.646000", "193724.648000", "193724.651000", "193724.653000", "193724.656000", "193724.659000", "193724.661000", "193724.664000", "193724.666000", "193724.669000", "193724.672000", "193804.588000", "193804.591000", "193804.593000", "193804.596000", "193804.598000", "193804.601000", "193804.604000", "193804.606000", "193804.609000", "193804.612000", "193804.614000", "193804.617000", "193804.619000", "193804.622000", "193804.625000", "193804.627000", "193804.630000", "193804.633000", "193804.635000", "193804.638000", "193804.640000", "193804.643000", "193804.646000", "193804.648000", "193804.651000", "193804.653000", "193804.656000", "193804.658000", "193804.661000", "193804.664000", "193804.666000", "193804.669000", "193804.671000", "193804.674000", "193844.589000", "193844.592000", "193844.594000", "193844.597000", "193844.599000", "193844.602000", "193844.605000", "193844.607000", "193844.610000", "193844.613000", "193844.615000", "193844.618000", "193844.620000", "193844.623000", "193844.626000", "193844.628000", "193844.631000", "193844.633000", "193844.636000", "193844.639000", "193844.641000", "193844.644000", "193844.646000", "193844.649000", "193844.652000", "193844.654000", "193844.657000", "193844.659000", "193844.662000", "193844.665000", "193844.667000", "193844.670000", "193844.672000", "193924.587000", "193924.590000", "193924.594000", "193924.596000", "193924.599000", "193924.601000", "193924.604000", "193924.607000", "193924.609000", "193924.612000", "193924.614000", "193924.617000", "193924.620000", "193924.636000", "193924.639000", "193924.642000", "193924.644000", "193924.647000", "193924.650000", "193924.652000", "193924.655000", "193924.657000", "193924.660000", "193924.662000", "193924.665000", "193924.668000", "193924.671000", "193924.673000", "193924.676000", "193924.678000", "193924.681000", "193924.693000", "193924.696000", "194004.588000", "194004.591000", "194004.593000", "194004.596000", "194004.598000", "194004.601000", "194004.604000", "194004.606000", "194004.609000", "194004.612000", "194004.614000", "194004.617000", "194004.619000", "194004.622000", "194004.625000", "194004.627000", "194004.630000", "194004.632000", "194004.635000", "194004.638000", "194004.640000", "194004.643000", "194004.645000", "194004.648000", "194004.651000", "194004.653000", "194004.656000", "194004.658000", "194004.661000", "194004.664000", "194004.666000", "194004.669000", "194004.671000", "194004.674000", "194024.588000", "194024.590000", "194024.593000", "194024.596000", "194024.598000", "194024.601000", "194024.604000", "194024.606000", "194024.609000", "194024.612000", "194024.614000", "194024.617000", "194024.619000", "194024.622000", "194024.625000", "194024.627000", "194104.589000", "194104.592000", "194104.594000", "194104.597000", "194104.600000", "194104.602000", "194104.605000", "194104.608000", "194104.610000", "194104.613000", "194104.615000", "194104.618000", "194104.621000", "194104.623000", "194104.626000", "194104.629000", "194104.631000", "194104.634000", "194104.636000", "194104.639000", "194104.642000", "194104.644000", "194104.647000", "194104.649000", "194104.652000", "194104.655000", "194104.657000", "194104.660000", "194104.662000", "194104.665000", "194104.668000", "194104.670000", "194104.673000", "194104.675000", "194144.587000", "194144.590000", "194144.593000", "194144.596000", "194144.598000", "194144.601000", "194144.604000", "194144.606000", "194144.609000", "194144.611000", "194144.614000", "194144.617000", "194144.619000", "194144.622000", "194144.624000", "194144.627000", "194144.630000", "194144.633000", "194144.635000", "194144.638000", "194144.640000", "194144.643000", "194144.646000", "194144.648000", "194144.651000", "194144.653000", "194144.656000", "194144.659000", "194144.661000", "194144.664000", "194144.666000", "194144.669000", "194144.672000", "194208.055000", "194208.058000", "194208.061000", "194208.064000", "194208.066000", "194208.069000", "194208.072000", "194208.075000", "194208.077000", "194208.080000", "194208.083000", "194208.086000", "194208.088000", "194208.091000", "194208.094000", "194208.097000", "194208.099000", "194208.102000", "194208.104000", "194208.107000"],
      "InstanceCreationTime": ["193444.593000", "193444.597000", "193444.599000", "193444.602000", "193444.604000", "193444.607000", "193444.618000", "193444.621000", "193444.623000", "193444.626000", "193444.629000", "193444.631000", "193444.638000", "193444.641000", "193444.644000", "193444.646000", "193444.649000", "193444.652000", "193444.654000", "193444.657000", "193444.659000", "193444.662000", "193524.588000", "193524.590000", "193524.593000", "193524.596000", "193524.608000", "193524.610000", "193524.613000", "193524.616000", "193524.618000", "193524.621000", "193524.623000", "193524.626000", "193524.629000", "193524.631000", "193524.634000", "193524.636000", "193524.639000", "193524.654000", "193524.656000", "193524.659000", "193524.662000", "193524.666000", "193524.669000", "193524.671000", "193524.674000", "193524.677000", "193524.679000", "193524.682000", "193524.684000", "193524.687000", "193524.690000", "193524.692000", "193524.695000", "193604.588000", "193604.591000", "193604.594000", "193604.597000", "193604.599000", "193604.602000", "193604.605000", "193604.607000", "193604.610000", "193604.612000", "193604.615000", "193604.618000", "193604.620000", "193604.623000", "193604.625000", "193604.628000", "193604.630000", "193604.633000", "193604.636000", "193604.638000", "193604.641000", "193604.643000", "193604.646000", "193604.649000", "193604.651000", "193604.654000", "193604.656000", "193604.659000", "193604.662000", "193604.664000", "193604.667000", "193604.669000", "193604.672000", "193604.675000", "193644.588000", "193644.591000", "193644.594000", "193644.597000", "193644.599000", "193644.602000", "193644.605000", "193644.607000", "193644.610000", "193644.612000", "193644.615000", "193644.618000", "193644.620000", "193644.623000", "193644.625000", "193644.628000", "193644.631000", "193644.633000", "193644.636000", "193644.638000", "193644.641000", "193644.644000", "193644.646000", "193644.649000", "193644.651000", "193644.654000", "193644.657000", "193644.659000", "193644.662000", "193644.664000", "193644.667000", "193644.670000", "193644.672000", "193724.587000", "193724.590000", "193724.593000", "193724.596000", "193724.598000", "193724.601000", "193724.604000", "193724.606000", "193724.609000", "193724.612000", "193724.614000", "193724.617000", "193724.619000", "193724.622000", "193724.625000", "193724.627000", "193724.630000", "193724.632000", "193724.635000", "193724.637000", "193724.640000", "193724.643000", "193724.646000", "193724.648000", "193724.651000", "193724.653000", "193724.656000", "193724.659000", "193724.661000", "193724.664000", "193724.666000", "193724.669000", "193724.672000", "193804.588000", "193804.591000", "193804.593000", "193804.596000", "193804.598000", "193804.601000", "193804.604000", "193804.606000", "193804.609000", "193804.612000", "193804.614000", "193804.617000", "193804.619000", "193804.622000", "193804.625000", "193804.627000", "193804.630000", "193804.633000", "193804.635000", "193804.638000", "193804.640000", "193804.643000", "193804.646000", "193804.648000", "193804.651000", "193804.653000", "193804.656000", "193804.658000", "193804.661000", "193804.664000", "193804.666000", "193804.669000", "193804.671000", "193804.674000", "193844.589000", "193844.592000", "193844.594000", "193844.597000", "193844.599000", "193844.602000", "193844.605000", "193844.607000", "193844.610000", "193844.613000", "193844.615000", "193844.618000", "193844.620000", "193844.623000", "193844.626000", "193844.628000", "193844.631000", "193844.633000", "193844.636000", "193844.639000", "193844.641000", "193844.644000", "193844.646000", "193844.649000", "193844.652000", "193844.654000", "193844.657000", "193844.659000", "193844.662000", "193844.665000", "193844.667000", "193844.670000", "193844.672000", "193924.587000", "193924.590000", "193924.594000", "193924.596000", "193924.599000", "193924.601000", "193924.604000", "193924.607000", "193924.609000", "193924.612000", "193924.614000", "193924.617000", "193924.620000", "193924.636000", "193924.639000", "193924.642000", "193924.644000", "193924.647000", "193924.650000", "193924.652000", "193924.655000", "193924.657000", "193924.660000", "193924.662000", "193924.665000", "193924.668000", "193924.671000", "193924.673000", "193924.676000", "193924.678000", "193924.681000", "193924.693000", "193924.696000", "194004.588000", "194004.591000", "194004.593000", "194004.596000", "194004.598000", "194004.601000", "194004.604000", "194004.606000", "194004.609000", "194004.612000", "194004.614000", "194004.617000", "194004.619000", "194004.622000", "194004.625000", "194004.627000", "194004.630000", "194004.632000", "194004.635000", "194004.638000", "194004.640000", "194004.643000", "194004.645000", "194004.648000", "194004.651000", "194004.653000", "194004.656000", "194004.658000", "194004.661000", "194004.664000", "194004.666000", "194004.669000", "194004.671000", "194004.674000", "194024.588000", "194024.590000", "194024.593000", "194024.596000", "194024.598000", "194024.601000", "194024.604000", "194024.606000", "194024.609000", "194024.612000", "194024.614000", "194024.617000", "194024.619000", "194024.622000", "194024.625000", "194024.627000", "194104.589000", "194104.592000", "194104.594000", "194104.597000", "194104.600000", "194104.602000", "194104.605000", "194104.608000", "194104.610000", "194104.613000", "194104.615000", "194104.618000", "194104.621000", "194104.623000", "194104.626000", "194104.629000", "194104.631000", "194104.634000", "194104.636000", "194104.639000", "194104.642000", "194104.644000", "194104.647000", "194104.649000", "194104.652000", "194104.655000", "194104.657000", "194104.660000", "194104.662000", "194104.665000", "194104.668000", "194104.670000", "194104.673000", "194104.675000", "194144.587000", "194144.590000", "194144.593000", "194144.596000", "194144.598000", "194144.601000", "194144.604000", "194144.606000", "194144.609000", "194144.611000", "194144.614000", "194144.617000", "194144.619000", "194144.622000", "194144.624000", "194144.627000", "194144.630000", "194144.633000", "194144.635000", "194144.638000", "194144.640000", "194144.643000", "194144.646000", "194144.648000", "194144.651000", "194144.653000", "194144.656000", "194144.659000", "194144.661000", "194144.664000", "194144.666000", "194144.669000", "194144.672000", "194208.055000", "194208.058000", "194208.061000", "194208.064000", "194208.066000", "194208.069000", "194208.072000", "194208.075000", "194208.077000", "194208.080000", "194208.083000", "194208.086000", "194208.088000", "194208.091000", "194208.094000", "194208.097000", "194208.099000", "194208.102000", "194208.104000", "194208.107000"],
      "InstanceNumber": [1, 2, 3, 4, 5, 6, 7, 8, 9, 10, 11, 12, 13, 14, 15, 16, 17, 18, 19, 20, 21, 22, 23, 24, 25, 26, 27, 28, 29, 30, 31, 32, 33, 34, 35, 36, 37, 38, 39, 40, 41, 42, 43, 44, 45, 46, 47, 48, 49, 50, 51, 52, 53, 54, 55, 56, 57, 58, 59, 60, 61, 62, 63, 64, 65, 66, 67, 68, 69, 70, 71, 72, 73, 74, 75, 76, 77, 78, 79, 80, 81, 82, 83, 84, 85, 86, 87, 88, 89, 90, 91, 92, 93, 94, 95, 96, 97, 98, 99, 100, 101, 102, 103, 104, 105, 106, 107, 108, 109, 110, 111, 112, 113, 114, 115, 116, 117, 118, 119, 120, 121, 122, 123, 124, 125, 126, 127, 128, 129, 130, 131, 132, 133, 134, 135, 136, 137, 138, 139, 140, 141, 142, 143, 144, 145, 146, 147, 148, 149, 150, 151, 152, 153, 154, 155, 156, 157, 158, 159, 160, 161, 162, 163, 164, 165, 166, 167, 168, 169, 170, 171, 172, 173, 174, 175, 176, 177, 178, 179, 180, 181, 182, 183, 184, 185, 186, 187, 188, 189, 190, 191, 192, 193, 194, 195, 196, 197, 198, 199, 200, 201, 202, 203, 204, 205, 206, 207, 208, 209, 210, 211, 212, 213, 214, 215, 216, 217, 218, 219, 220, 221, 222, 223, 224, 225, 226, 227, 228, 229, 230, 231, 232, 233, 234, 235, 236, 237, 238, 239, 240, 241, 242, 243, 244, 245, 246, 247, 248, 249, 250, 251, 252, 253, 254, 255, 256, 257, 258, 259, 260, 261, 262, 263, 264, 265, 266, 267, 268, 269, 270, 271, 272, 273, 274, 275, 276, 277, 278, 279, 280, 281, 282, 283, 284, 285, 286, 287, 288, 289, 290, 291, 292, 293, 294, 295, 296, 297, 298, 299, 300, 301, 302, 303, 304, 305, 306, 307, 308, 309, 310, 311, 312, 313, 314, 315, 316, 317, 318, 319, 320, 321, 322, 323, 324, 325, 326, 327, 328, 329, 330, 331, 332, 333, 334, 335, 336, 337, 338, 339, 340, 341, 342, 343, 344, 345, 346, 347, 348, 349, 350, 351, 352, 353, 354, 355, 356, 357, 358, 359, 360, 361, 362, 363, 364, 365, 366, 367, 368, 369, 370, 371, 372, 373, 374, 375, 376, 377, 378, 379, 380, 381, 382, 383, 384, 385, 386, 387, 388, 389, 390, 391, 392],
