{
  "AcquisitionMatrixPE": 88,
  "AcquisitionNumber": 1,
  "AcquisitionTime": "14:13:47.970000",
  "BandwidthPerPixelPhaseEncode": 19.592,
  "BaseResolution": 88,
  "BodyPartExamined": "BRAIN",
  "ConsistencyInfo": "N4_VE11C_LATEST_20160120",
  "ConversionSoftware": "dcm2niix",
  "ConversionSoftwareVersion": "v1.0.20190902",
  "DerivedVendorReportedEchoSpacing": 0.000580014,
  "DeviceSerialNumber": "67050",
  "DwellTime": 2.6e-06,
  "EchoTime": 0.033,
  "EchoTrainLength": 88,
  "EffectiveEchoSpacing": 0.000580014,
  "FlipAngle": 62,
  "ImageOrientationPatientDICOM": [0.998953, 0.0386617, -0.0244382, -0.039249, 0.99894, -0.0240308],
  "ImageType": [
    "ORIGINAL",
    "PRIMARY",
    "M",
    "ND",
    "MOSAIC"
],
  "ImagingFrequency": 123.251,
  "InPlanePhaseEncodingDirectionDICOM": "COL",
  "InstitutionAddress": "Olive_Street_60_Providence_RI_US_02912",
  "InstitutionName": "BROWN_UNIVERSITY_MRF",
  "InstitutionalDepartmentName": "Department",
  "MRAcquisitionType": "2D",
  "MagneticFieldStrength": 3,
  "Manufacturer": "Siemens",
  "ManufacturersModelName": "Prisma_fit",
  "Modality": "MR",
  "MultibandAccelerationFactor": 4,
  "PartialFourier": 1,
  "PatientPosition": "HFS",
  "PercentPhaseFOV": 100,
  "PhaseEncodingDirection": "j-",
  "PhaseEncodingSteps": 88,
  "PhaseResolution": 1,
  "PixelBandwidth": 2185,
  "ProcedureStepDescription": "ASHENHAV_1222",
  "ProtocolName": "func-bold_task-RDMlocalizer_run-02",
  "PulseSequenceDetails": "%SiemensSeq%_ep2d_bold",
  "ReceiveCoilActiveElements": "HC1-7",
  "ReceiveCoilName": "HeadNeck_64",
  "ReconMatrixPE": 88,
  "RefLinesPE": 8,
  "RepetitionTime": 1.2,
  "SAR": 0.0488586,
  "ScanOptions": "FS",
  "ScanningSequence": "EP",
  "SequenceName": "_epfid2d1_88",
  "SequenceVariant": "SK",
  "SeriesDescription": "func-bold_task-RDMlocalizer_run-02",
  "SeriesNumber": 20,
  "ShimSetting": [1753, -9128, 4445, 707, -67, -187, 31, -1],
  "SliceThickness": 2.4,
  "SliceTiming": [0.5525, 0, 0.63, 0.08, 0.71, 0.1575, 0.7875, 0.2375, 0.865, 0.315, 0.945, 0.395, 1.0225, 0.4725, 1.1025, 0.5525, 0, 0.63, 0.08, 0.71, 0.1575, 0.7875, 0.2375, 0.865, 0.315, 0.945, 0.395, 1.0225, 0.4725, 1.1025, 0.5525, 0, 0.63, 0.08, 0.71, 0.1575, 0.7875, 0.2375, 0.865, 0.315, 0.945, 0.395, 1.0225, 0.4725, 1.1025, 0.5525, 0, 0.63, 0.08, 0.71, 0.1575, 0.7875, 0.2375, 0.865, 0.315, 0.945, 0.395, 1.0225, 0.4725, 1.1025],
  "SoftwareVersions": "syngo_MR_E11",
  "SpacingBetweenSlices": 2.4,
  "StationName": "AWP67050",
  "TaskName": "RDMlocalizer",
  "TotalReadoutTime": 0.0504612,
  "TxRefAmp": 219.091,
  "dcmmeta_affine": [
    [-2.3952178955078125, -0.09410848468542099, -0.056359704583883286, 112.23524475097656],
    [-0.09270010888576508, 2.39518666267395, -0.05991552397608757, -89.46002960205078],
    [-0.05859607085585594, 0.05761924386024475, 2.398589849472046, -56.61228942871094],
    [0.0, 0.0, 0.0, 1.0]
],
  "dcmmeta_reorient_transform": [
    [0.0, -1.0, 0.0, 87.0],
    [1.0, 0.0, 0.0, 0.0],
    [0.0, 0.0, 1.0, 0.0],
    [0.0, 0.0, 0.0, 1.0]
],
  "dcmmeta_shape": [88, 88, 60, 195],
  "dcmmeta_slice_dim": 2,
  "dcmmeta_version": 0.6,
  "global": {
    "const": {
      "AcquisitionMatrix": [88, 0, 0, 88],
      "AngioFlag": "N",
      "BitsAllocated": 16,
      "BitsStored": 12,
      "BodyPartExamined": "BRAIN",
      "Columns": 704,
      "DeidentificationMethodCodeSequence": [
        {
          "CodeMeaning": "XNAT DicomEdit 6 Script",
          "CodeValue": "3",
          "CodingSchemeDesignator": "XNAT",
          "CodingSchemeVersion": "1.0"}
],
      "EchoNumbers": 1,
      "EchoTime": 33.0,
      "EchoTrainLength": 88,
      "FlipAngle": 62.0,
      "HighBit": 11,
      "ImageOrientationPatient": [0.99895347834848, 0.03866165837903, -0.0244381723303, -0.0392490378536, 0.99894045611404, -0.0240307753983],
      "ImagePositionPatient": [-812.78952617539, -885.19036887744, -15.805099111792],
      "ImageType": [
        "ORIGINAL",
        "PRIMARY",
        "M",
        "ND",
        "MOSAIC"
],
      "ImagedNucleus": "1H",
      "ImagingFrequency": 123.25074,
      "InPlanePhaseEncodingDirection": "COL",
      "MRAcquisitionType": "2D",
      "MagneticFieldStrength": 3.0,
      "Manufacturer": "SIEMENS",
      "ManufacturerModelName": "Prisma_fit",
      "Modality": "MR",
      "NumberOfAverages": 1.0,
      "NumberOfPhaseEncodingSteps": 88,
      "PercentPhaseFieldOfView": 100.0,
      "PercentSampling": 100.0,
      "PerformedProcedureStepStartTime": "124940.610000",
      "PhotometricInterpretation": "MONOCHROME2",
      "PixelBandwidth": 2185.0,
      "PixelRepresentation": 0,
      "PixelSpacing": [2.3977272510529, 2.3977272510529],
      "ProtocolName": "func-bold_task-RDMlocalizer_run-02",
      "RepetitionTime": 1200.0,
      "Rows": 704,
      "SAR": 0.04885862408172,
      "SamplesPerPixel": 1,
      "ScanOptions": "FS",
      "ScanningSequence": "EP",
      "SequenceName": "*epfid2d1_88",
      "SequenceVariant": "SK",
      "SeriesDescription": "func-bold_task-RDMlocalizer_run-02",
      "SeriesNumber": 20,
      "SeriesTime": "141417.973000",
      "SliceLocation": -56.981321649144,
      "SliceThickness": 2.4000000953674,
      "SmallestImagePixelValue": 0,
      "SoftwareVersions": "syngo MR E11",
      "SpacingBetweenSlices": 2.4000000156725,
      "SpecificCharacterSet": "ISO_IR 100",
      "StudyID": "1",
      "StudyTime": "124940.509000",
      "TransmitCoilName": "Body",
      "VariableFlipAngleFlag": "N",
      "WindowCenterWidthExplanation": "Algo1",
      "dBdt": 0.0},
    "slices": {}
  },
  "time": {
    "samples": {
      "AcquisitionNumber": [1, 2, 3, 4, 5, 6, 7, 8, 9, 10, 11, 12, 13, 14, 15, 16, 17, 18, 19, 20, 21, 22, 23, 24, 25, 26, 27, 28, 29, 30, 31, 32, 33, 34, 35, 36, 37, 38, 39, 40, 41, 42, 43, 44, 45, 46, 47, 48, 49, 50, 51, 52, 53, 54, 55, 56, 57, 58, 59, 60, 61, 62, 63, 64, 65, 66, 67, 68, 69, 70, 71, 72, 73, 74, 75, 76, 77, 78, 79, 80, 81, 82, 83, 84, 85, 86, 87, 88, 89, 90, 91, 92, 93, 94, 95, 96, 97, 98, 99, 100, 101, 102, 103, 104, 105, 106, 107, 108, 109, 110, 111, 112, 113, 114, 115, 116, 117, 118, 119, 120, 121, 122, 123, 124, 125, 126, 127, 128, 129, 130, 131, 132, 133, 134, 135, 136, 137, 138, 139, 140, 141, 142, 143, 144, 145, 146, 147, 148, 149, 150, 151, 152, 153, 154, 155, 156, 157, 158, 159, 160, 161, 162, 163, 164, 165, 166, 167, 168, 169, 170, 171, 172, 173, 174, 175, 176, 177, 178, 179, 180, 181, 182, 183, 184, 185, 186, 187, 188, 189, 190, 191, 192, 193, 194, 195],
      "AcquisitionTime": ["141347.970000", "141349.170000", "141350.370000", "141351.570000", "141352.770000", "141353.970000", "141355.170000", "141356.370000", "141357.570000", "141358.770000", "141359.970000", "141401.170000", "141402.370000", "141403.570000", "141404.770000", "141405.970000", "141407.170000", "141408.370000", "141409.570000", "141410.770000", "141411.970000", "141413.170000", "141414.370000", "141415.570000", "141416.770000", "141417.970000", "141419.170000", "141420.370000", "141421.570000", "141422.770000", "141423.970000", "141425.170000", "141426.370000", "141427.570000", "141428.770000", "141429.970000", "141431.170000", "141432.370000", "141433.570000", "141434.770000", "141435.970000", "141437.170000", "141438.370000", "141439.570000", "141440.770000", "141441.970000", "141443.170000", "141444.370000", "141445.570000", "141446.770000", "141447.970000", "141449.170000", "141450.370000", "141451.570000", "141452.770000", "141453.970000", "141455.170000", "141456.370000", "141457.570000", "141458.770000", "141459.970000", "141501.170000", "141502.370000", "141503.570000", "141504.770000", "141505.970000", "141507.170000", "141508.370000", "141509.570000", "141510.770000", "141511.970000", "141513.170000", "141514.370000", "141515.570000", "141516.770000", "141517.970000", "141519.170000", "141520.370000", "141521.570000", "141522.770000", "141523.970000", "141525.170000", "141526.370000", "141527.570000", "141528.770000", "141529.970000", "141531.170000", "141532.370000", "141533.570000", "141534.770000", "141535.970000", "141537.170000", "141538.370000", "141539.570000", "141540.770000", "141541.970000", "141543.170000", "141544.370000", "141545.570000", "141546.770000", "141547.970000", "141549.170000", "141550.370000", "141551.570000", "141552.770000", "141553.970000", "141555.170000", "141556.370000", "141557.570000", "141558.770000", "141559.970000", "141601.170000", "141602.370000", "141603.570000", "141604.770000", "141605.970000", "141607.170000", "141608.370000", "141609.570000", "141610.770000", "141611.970000", "141613.170000", "141614.370000", "141615.570000", "141616.770000", "141617.970000", "141619.170000", "141620.370000", "141621.570000", "141622.770000", "141623.970000", "141625.170000", "141626.370000", "141627.570000", "141628.770000", "141629.970000", "141631.170000", "141632.370000", "141633.570000", "141634.770000", "141635.970000", "141637.170000", "141638.370000", "141639.570000", "141640.770000", "141641.970000", "141643.170000", "141644.370000", "141645.570000", "141646.770000", "141647.970000", "141649.170000", "141650.370000", "141651.570000", "141652.770000", "141653.970000", "141655.170000", "141656.370000", "141657.570000", "141658.770000", "141659.970000", "141701.170000", "141702.370000", "141703.570000", "141704.770000", "141705.970000", "141707.170000", "141708.370000", "141709.570000", "141710.770000", "141711.970000", "141713.170000", "141714.370000", "141715.570000", "141716.770000", "141717.970000", "141719.170000", "141720.370000", "141721.570000", "141722.770000", "141723.970000", "141725.170000", "141726.370000", "141727.570000", "141728.770000", "141729.970000", "141731.170000", "141732.370000", "141733.570000", "141734.770000", "141735.970000", "141737.170000", "141738.370000", "141739.570000", "141740.770000"],
      "ContentTime": ["141417.977000", "141417.980000", "141417.983000", "141417.986000", "141417.988000", "141417.991000", "141418.003000", "141418.006000", "141418.008000", "141418.011000", "141418.013000", "141418.016000", "141418.021000", "141418.024000", "141418.026000", "141418.029000", "141418.031000", "141418.034000", "141418.036000", "141418.045000", "141418.048000", "141418.050000", "141418.053000", "141418.056000", "141457.973000", "141457.975000", "141457.995000", "141457.997000", "141458.005000", "141458.008000", "141458.012000", "141458.015000", "141458.018000", "141458.020000", "141458.023000", "141458.026000", "141458.028000", "141458.031000", "141458.033000", "141458.036000", "141458.039000", "141458.041000", "141458.044000", "141458.046000", "141458.049000", "141458.052000", "141458.054000", "141458.057000", "141458.060000", "141458.062000", "141458.065000", "141458.067000", "141458.070000", "141458.073000", "141458.075000", "141458.083000", "141458.086000", "141458.088000", "141537.974000", "141537.976000", "141537.979000", "141537.981000", "141537.984000", "141537.987000", "141537.989000", "141537.992000", "141537.994000", "141537.997000", "141538.000000", "141538.002000", "141538.005000", "141538.007000", "141538.010000", "141538.013000", "141538.015000", "141538.018000", "141538.020000", "141538.023000", "141538.025000", "141538.028000", "141538.030000", "141538.033000", "141538.035000", "141538.038000", "141538.040000", "141538.043000", "141538.046000", "141538.048000", "141538.051000", "141538.053000", "141538.056000", "141617.972000", "141617.975000", "141617.978000", "141617.981000", "141617.995000", "141617.998000", "141618.001000", "141618.004000", "141618.007000", "141618.009000", "141618.012000", "141618.014000", "141618.017000", "141618.020000", "141618.022000", "141618.025000", "141618.027000", "141618.030000", "141618.032000", "141618.035000", "141618.037000", "141618.040000", "141618.043000", "141618.045000", "141618.048000", "141618.050000", "141618.053000", "141618.055000", "141618.058000", "141618.060000", "141618.063000", "141618.065000", "141618.068000", "141657.973000", "141657.976000", "141657.978000", "141657.981000", "141657.983000", "141657.986000", "141657.988000", "141657.991000", "141657.994000", "141657.996000", "141658.000000", "141658.003000", "141658.005000", "141658.008000", "141658.010000", "141658.013000", "141658.015000", "141658.018000", "141658.021000", "141658.023000", "141658.026000", "141658.029000", "141658.031000", "141658.034000", "141658.036000", "141658.039000", "141658.041000", "141658.044000", "141658.047000", "141658.049000", "141658.052000", "141658.054000", "141658.057000", "141658.059000", "141737.973000", "141737.975000", "141737.978000", "141737.981000", "141737.983000", "141737.986000", "141737.988000", "141737.991000", "141737.994000", "141737.996000", "141738.000000", "141738.002000", "141738.014000", "141738.017000", "141738.019000", "141738.022000", "141738.024000", "141738.027000", "141738.029000", "141738.032000", "141738.035000", "141738.037000", "141738.040000", "141738.042000", "141738.045000", "141738.048000", "141738.050000", "141738.053000", "141738.059000", "141738.062000", "141738.065000", "141738.067000", "141738.070000", "141742.360000", "141742.362000", "141742.365000", "141742.368000"],
      "InstanceCreationTime": ["141417.977000", "141417.980000", "141417.983000", "141417.986000", "141417.988000", "141417.991000", "141418.003000", "141418.006000", "141418.008000", "141418.011000", "141418.013000", "141418.016000", "141418.021000", "141418.024000", "141418.026000", "141418.029000", "141418.031000", "141418.034000", "141418.036000", "141418.045000", "141418.048000", "141418.050000", "141418.053000", "141418.056000", "141457.973000", "141457.975000", "141457.995000", "141457.997000", "141458.005000", "141458.008000", "141458.012000", "141458.015000", "141458.018000", "141458.020000", "141458.023000", "141458.026000", "141458.028000", "141458.031000", "141458.033000", "141458.036000", "141458.039000", "141458.041000", "141458.044000", "141458.046000", "141458.049000", "141458.052000", "141458.054000", "141458.057000", "141458.060000", "141458.062000", "141458.065000", "141458.067000", "141458.070000", "141458.073000", "141458.075000", "141458.083000", "141458.086000", "141458.088000", "141537.974000", "141537.976000", "141537.979000", "141537.981000", "141537.984000", "141537.987000", "141537.989000", "141537.992000", "141537.994000", "141537.997000", "141538.000000", "141538.002000", "141538.005000", "141538.007000", "141538.010000", "141538.013000", "141538.015000", "141538.018000", "141538.020000", "141538.023000", "141538.025000", "141538.028000", "141538.030000", "141538.033000", "141538.035000", "141538.038000", "141538.040000", "141538.043000", "141538.046000", "141538.048000", "141538.051000", "141538.053000", "141538.056000", "141617.972000", "141617.975000", "141617.978000", "141617.981000", "141617.995000", "141617.998000", "141618.001000", "141618.004000", "141618.007000", "141618.009000", "141618.012000", "141618.014000", "141618.017000", "141618.020000", "141618.022000", "141618.025000", "141618.027000", "141618.030000", "141618.032000", "141618.035000", "141618.037000", "141618.040000", "141618.043000", "141618.045000", "141618.048000", "141618.050000", "141618.053000", "141618.055000", "141618.058000", "141618.060000", "141618.063000", "141618.065000", "141618.068000", "141657.973000", "141657.976000", "141657.978000", "141657.981000", "141657.983000", "141657.986000", "141657.988000", "141657.991000", "141657.994000", "141657.996000", "141658.000000", "141658.003000", "141658.005000", "141658.008000", "141658.010000", "141658.013000", "141658.015000", "141658.018000", "141658.021000", "141658.023000", "141658.026000", "141658.029000", "141658.031000", "141658.034000", "141658.036000", "141658.039000", "141658.041000", "141658.044000", "141658.047000", "141658.049000", "141658.052000", "141658.054000", "141658.057000", "141658.059000", "141737.973000", "141737.975000", "141737.978000", "141737.981000", "141737.983000", "141737.986000", "141737.988000", "141737.991000", "141737.994000", "141737.996000", "141738.000000", "141738.002000", "141738.014000", "141738.017000", "141738.019000", "141738.022000", "141738.024000", "141738.027000", "141738.029000", "141738.032000", "141738.035000", "141738.037000", "141738.040000", "141738.042000", "141738.045000", "141738.048000", "141738.050000", "141738.053000", "141738.059000", "141738.062000", "141738.065000", "141738.067000", "141738.070000", "141742.360000", "141742.362000", "141742.365000", "141742.368000"],
      "InstanceNumber": [1, 2, 3, 4, 5, 6, 7, 8, 9, 10, 11, 12, 13, 14, 15, 16, 17, 18, 19, 20, 21, 22, 23, 24, 25, 26, 27, 28, 29, 30, 31, 32, 33, 34, 35, 36, 37, 38, 39, 40, 41, 42, 43, 44, 45, 46, 47, 48, 49, 50, 51, 52, 53, 54, 55, 56, 57, 58, 59, 60, 61, 62, 63, 64, 65, 66, 67, 68, 69, 70, 71, 72, 73, 74, 75, 76, 77, 78, 79, 80, 81, 82, 83, 84, 85, 86, 87, 88, 89, 90, 91, 92, 93, 94, 95, 96, 97, 98, 99, 100, 101, 102, 103, 104, 105, 106, 107, 108, 109, 110, 111, 112, 113, 114, 115, 116, 117, 118, 119, 120, 121, 122, 123, 124, 125, 126, 127, 128, 129, 130, 131, 132, 133, 134, 135, 136, 137, 138, 139, 140, 141, 142, 143, 144, 145, 146, 147, 148, 149, 150, 151, 152, 153, 154, 155, 156, 157, 158, 159, 160, 161, 162, 163, 164, 165, 166, 167, 168, 169, 170, 171, 172, 173, 174, 175, 176, 177, 178, 179, 180, 181, 182, 183, 184, 185, 186, 187, 188, 189, 190, 191, 192, 193, 194, 195],
      "LargestImagePixelValue": [2161, 2075, 2051, 2029, 2013, 2011, 2010, 2012, 2016, 2009, 2011, 2017, 2000, 2004, 2002, 2006, 1999, 2014, 1992, 1991, 1986, 1989, 1982, 2005, 1997, 2008, 2002, 1993, 1988, 2000, 1993, 1996, 1992, 1985, 1993, 1995, 2004, 1998, 2017, 2007, 1999, 1997, 2005, 2011, 2010, 2005, 1994, 2021, 1998, 1994, 2001, 1977, 1997, 2007, 1980, 1989, 1985, 1995, 1976, 2007, 2000, 1994, 2002, 1996, 2007, 1994, 2002, 2010, 2011, 2038, 2028, 2024, 1998, 2007, 2002, 1994, 1987, 1989, 1993, 1984, 1984, 1984, 1989, 1987, 1985, 1975, 1977, 1984, 1987, 1986, 1987, 1990, 1990, 1986, 2006, 1991, 2013, 1999, 1989, 1993, 1991, 2000, 1992, 2009, 2006, 2002, 1999, 1989, 2001, 1993, 2005, 2000, 2010, 1997, 1994, 1989, 1993, 1983, 1993, 1985, 2004, 2014, 2006, 2025, 2005, 2020, 2022, 2028, 2015, 2022, 2012, 2002, 2000, 2012, 2012, 2013, 2024, 2014, 2019, 2010, 2023, 2024, 2024, 2029, 2037, 2032, 2033, 2040, 2076, 2042, 2064, 2038, 2031, 2030, 2015, 2032, 2019, 2023, 2031, 2022, 2027, 2028, 2021, 2010, 2004, 2003, 2009, 2008, 1996, 2001, 2002, 2001, 2014, 2008, 2032, 2001, 2005, 2005, 2003, 1997, 1991, 2012, 2005, 2015, 2007, 2012, 2024, 2010, 2018, 2023, 2026, 2022, 2024, 2016, 2012],
      "WindowCenter": [608.0, 605.0, 604.0, 603.0, 603.0, 603.0, 603.0, 603.0, 603.0, 603.0, 603.0, 603.0, 602.0, 602.0, 602.0, 602.0, 602.0, 602.0, 602.0, 603.0, 602.0, 603.0, 603.0, 604.0, 604.0, 604.0, 604.0, 604.0, 603.0, 603.0, 603.0, 602.0, 602.0, 601.0, 602.0, 602.0, 601.0, 601.0, 602.0, 602.0, 602.0, 602.0, 602.0, 602.0, 603.0, 602.0, 602.0, 602.0, 601.0, 600.0, 600.0, 599.0, 599.0, 599.0, 599.0, 599.0, 599.0, 600.0, 600.0, 601.0, 601.0, 601.0, 601.0, 601.0, 600.0, 600.0, 601.0, 602.0, 604.0, 605.0, 605.0, 604.0, 603.0, 603.0, 601.0, 601.0, 600.0, 599.0, 599.0, 600.0, 600.0, 600.0, 600.0, 600.0, 599.0, 599.0, 599.0, 599.0, 599.0, 600.0, 600.0, 601.0, 601.0, 602.0, 603.0, 602.0, 602.0, 602.0, 601.0, 601.0, 601.0, 601.0, 601.0, 602.0, 602.0, 602.0, 602.0, 601.0, 601.0, 601.0, 600.0, 600.0, 601.0, 601.0, 601.0, 601.0, 601.0, 601.0, 602.0, 602.0, 602.0, 603.0, 603.0, 603.0, 603.0, 604.0, 603.0, 603.0, 603.0, 602.0, 602.0, 601.0, 601.0, 601.0, 601.0, 601.0, 601.0, 602.0, 601.0, 602.0, 602.0, 602.0, 602.0, 602.0, 602.0, 602.0, 602.0, 602.0, 603.0, 602.0, 602.0, 602.0, 601.0, 601.0, 601.0, 601.0, 601.0, 601.0, 601.0, 601.0, 601.0, 601.0, 600.0, 600.0, 601.0, 601.0, 601.0, 601.0, 601.0, 601.0, 601.0, 601.0, 601.0, 601.0, 601.0, 601.0, 600.0, 601.0, 601.0, 601.0, 601.0, 602.0, 602.0, 603.0, 603.0, 603.0, 603.0, 602.0, 602.0, 602.0, 601.0, 601.0, 601.0, 601.0, 602.0],
      "WindowWidth": [1298.0, 1290.0, 1286.0, 1284.0, 1284.0, 1283.0, 1284.0, 1285.0, 1284.0, 1284.0, 1285.0, 1284.0, 1283.0, 1282.0, 1283.0, 1282.0, 1282.0, 1282.0, 1282.0, 1283.0, 1282.0, 1284.0, 1284.0, 1286.0, 1286.0, 1287.0, 1287.0, 1286.0, 1285.0, 1284.0, 1284.0, 1283.0, 1282.0, 1281.0, 1281.0, 1281.0, 1280.0, 1280.0, 1282.0, 1282.0, 1282.0, 1282.0, 1283.0, 1283.0, 1284.0, 1282.0, 1283.0, 1282.0, 1280.0, 1278.0, 1277.0, 1276.0, 1276.0, 1275.0, 1275.0, 1275.0, 1276.0, 1277.0, 1278.0, 1279.0, 1280.0, 1280.0, 1281.0, 1279.0, 1278.0, 1278.0, 1280.0, 1283.0, 1285.0, 1288.0, 1288.0, 1288.0, 1285.0, 1284.0, 1280.0, 1278.0, 1277.0, 1276.0, 1276.0, 1276.0, 1277.0, 1277.0, 1277.0, 1276.0, 1276.0, 1276.0, 1275.0, 1276.0, 1276.0, 1277.0, 1278.0, 1279.0, 1281.0, 1282.0, 1284.0, 1283.0, 1281.0, 1281.0, 1279.0, 1279.0, 1279.0, 1279.0, 1280.0, 1281.0, 1282.0, 1282.0, 1281.0, 1280.0, 1279.0, 1279.0, 1278.0, 1278.0, 1279.0, 1279.0, 1280.0, 1280.0, 1279.0, 1280.0, 1281.0, 1282.0, 1283.0, 1284.0, 1283.0, 1284.0, 1285.0, 1286.0, 1286.0, 1285.0, 1285.0, 1282.0, 1282.0, 1280.0, 1280.0, 1280.0, 1280.0, 1280.0, 1281.0, 1281.0, 1280.0, 1281.0, 1281.0, 1281.0, 1281.0, 1282.0, 1283.0, 1283.0, 1282.0, 1283.0, 1284.0, 1283.0, 1283.0, 1282.0, 1280.0, 1280.0, 1279.0, 1280.0, 1280.0, 1280.0, 1280.0, 1279.0, 1279.0, 1279.0, 1278.0, 1278.0, 1279.0, 1280.0, 1279.0, 1280.0, 1279.0, 1279.0, 1280.0, 1279.0, 1280.0, 1279.0, 1280.0, 1279.0, 1278.0, 1278.0, 1278.0, 1280.0, 1280.0, 1282.0, 1282.0, 1283.0, 1284.0, 1284.0, 1284.0, 1283.0, 1282.0, 1281.0, 1280.0, 1279.0, 1280.0, 1280.0, 1281.0]
    },
    "slices": {}
  }
}