{
  "AcquisitionMatrixPE": 88,
  "AcquisitionNumber": 1,
  "AcquisitionTime": "12:56:41.665000",
  "BandwidthPerPixelPhaseEncode": 19.592,
  "BaseResolution": 88,
  "BodyPartExamined": "BRAIN",
  "ConsistencyInfo": "N4_VE11C_LATEST_20160120",
  "ConversionSoftware": "dcm2niix",
  "ConversionSoftwareVersion": "v1.0.20190902",
  "DerivedVendorReportedEchoSpacing": 0.000580014,
  "DeviceSerialNumber": "67050",
  "DwellTime": 2.6e-06,
  "EchoTime": 0.033,
  "EchoTrainLength": 88,
  "EffectiveEchoSpacing": 0.000580014,
  "FlipAngle": 62,
  "ImageOrientationPatientDICOM": [0.998953, 0.0386617, -0.0244382, -0.039249, 0.99894, -0.0240308],
  "ImageType": [
    "ORIGINAL",
    "PRIMARY",
    "M",
    "ND",
    "MOSAIC"
],
  "ImagingFrequency": 123.251,
  "InPlanePhaseEncodingDirectionDICOM": "COL",
  "InstitutionAddress": "Olive_Street_60_Providence_RI_US_02912",
  "InstitutionName": "BROWN_UNIVERSITY_MRF",
  "InstitutionalDepartmentName": "Department",
  "MRAcquisitionType": "2D",
  "MagneticFieldStrength": 3,
  "Manufacturer": "Siemens",
  "ManufacturersModelName": "Prisma_fit",
  "Modality": "MR",
  "MultibandAccelerationFactor": 4,
  "PartialFourier": 1,
  "PatientPosition": "HFS",
  "PercentPhaseFOV": 100,
  "PhaseEncodingDirection": "j-",
  "PhaseEncodingSteps": 88,
  "PhaseResolution": 1,
  "PixelBandwidth": 2185,
  "ProcedureStepDescription": "ASHENHAV_1222",
  "ProtocolName": "func-bold_task-RDMmotion_run-01",
  "PulseSequenceDetails": "%SiemensSeq%_ep2d_bold",
  "ReceiveCoilActiveElements": "HC1-7",
  "ReceiveCoilName": "HeadNeck_64",
  "ReconMatrixPE": 88,
  "RefLinesPE": 8,
  "RepetitionTime": 1.2,
  "SAR": 0.0486004,
  "ScanOptions": "FS",
  "ScanningSequence": "EP",
  "SequenceName": "_epfid2d1_88",
  "SequenceVariant": "SK",
  "SeriesDescription": "func-bold_task-RDMmotion_run-01",
  "SeriesNumber": 7,
  "ShimSetting": [1753, -9128, 4445, 707, -67, -187, 31, -1],
  "SliceThickness": 2.4,
  "SliceTiming": [0.55, 0, 0.6275, 0.0775, 0.7075, 0.1575, 0.785, 0.235, 0.865, 0.315, 0.9425, 0.3925, 1.0225, 0.4725, 1.1, 0.55, 0, 0.6275, 0.0775, 0.7075, 0.1575, 0.785, 0.235, 0.865, 0.315, 0.9425, 0.3925, 1.0225, 0.4725, 1.1, 0.55, 0, 0.6275, 0.0775, 0.7075, 0.1575, 0.785, 0.235, 0.865, 0.315, 0.9425, 0.3925, 1.0225, 0.4725, 1.1, 0.55, 0, 0.6275, 0.0775, 0.7075, 0.1575, 0.785, 0.235, 0.865, 0.315, 0.9425, 0.3925, 1.0225, 0.4725, 1.1],
  "SoftwareVersions": "syngo_MR_E11",
  "SpacingBetweenSlices": 2.4,
  "StationName": "AWP67050",
  "TaskName": "RDMmotion",
  "TotalReadoutTime": 0.0504612,
  "TxRefAmp": 219.091,
  "dcmmeta_affine": [
    [-2.3952178955078125, -0.09410848468542099, -0.056359704583883286, 112.23524475097656],
    [-0.09270010888576508, 2.39518666267395, -0.05991552397608757, -89.46002960205078],
    [-0.05859607085585594, 0.05761924386024475, 2.398589849472046, -56.61228942871094],
    [0.0, 0.0, 0.0, 1.0]
],
  "dcmmeta_reorient_transform": [
    [0.0, -1.0, 0.0, 87.0],
    [1.0, 0.0, 0.0, 0.0],
    [0.0, 0.0, 1.0, 0.0],
    [0.0, 0.0, 0.0, 1.0]
],
  "dcmmeta_shape": [88, 88, 60, 125],
  "dcmmeta_slice_dim": 2,
  "dcmmeta_version": 0.6,
  "global": {
    "const": {
      "AcquisitionMatrix": [88, 0, 0, 88],
      "AngioFlag": "N",
      "BitsAllocated": 16,
      "BitsStored": 12,
      "BodyPartExamined": "BRAIN",
      "Columns": 704,
      "DeidentificationMethodCodeSequence": [
        {
          "CodeMeaning": "XNAT DicomEdit 6 Script",
          "CodeValue": "3",
          "CodingSchemeDesignator": "XNAT",
          "CodingSchemeVersion": "1.0"}
],
      "EchoNumbers": 1,
      "EchoTime": 33.0,
      "EchoTrainLength": 88,
      "FlipAngle": 62.0,
      "HighBit": 11,
      "ImageOrientationPatient": [0.99895347834848, 0.03866165837903, -0.0244381723303, -0.0392490378536, 0.99894045611404, -0.0240307753983],
      "ImagePositionPatient": [-812.78952617539, -885.19036887744, -15.805099111792],
      "ImageType": [
        "ORIGINAL",
        "PRIMARY",
        "M",
        "ND",
        "MOSAIC"
],
      "ImagedNucleus": "1H",
      "ImagingFrequency": 123.25073,
      "InPlanePhaseEncodingDirection": "COL",
      "MRAcquisitionType": "2D",
      "MagneticFieldStrength": 3.0,
      "Manufacturer": "SIEMENS",
      "ManufacturerModelName": "Prisma_fit",
      "Modality": "MR",
      "NumberOfAverages": 1.0,
      "NumberOfPhaseEncodingSteps": 88,
      "PercentPhaseFieldOfView": 100.0,
      "PercentSampling": 100.0,
      "PerformedProcedureStepStartTime": "124940.610000",
      "PhotometricInterpretation": "MONOCHROME2",
      "PixelBandwidth": 2185.0,
      "PixelRepresentation": 0,
      "PixelSpacing": [2.3977272510529, 2.3977272510529],
      "ProtocolName": "func-bold_task-RDMmotion_run-01",
      "RepetitionTime": 1200.0,
      "Rows": 704,
      "SAR": 0.0486003956527,
      "SamplesPerPixel": 1,
      "ScanOptions": "FS",
      "ScanningSequence": "EP",
      "SequenceName": "*epfid2d1_88",
      "SequenceVariant": "SK",
      "SeriesDescription": "func-bold_task-RDMmotion_run-01",
      "SeriesNumber": 7,
      "SeriesTime": "125706.872000",
      "SliceLocation": -56.981321649144,
      "SliceThickness": 2.4000000953674,
      "SmallestImagePixelValue": 0,
      "SoftwareVersions": "syngo MR E11",
      "SpacingBetweenSlices": 2.4000000156725,
      "SpecificCharacterSet": "ISO_IR 100",
      "StudyID": "1",
      "StudyTime": "124940.509000",
      "TransmitCoilName": "Body",
      "VariableFlipAngleFlag": "N",
      "WindowCenterWidthExplanation": "Algo1",
      "dBdt": 0.0},
    "slices": {}
  },
  "time": {
    "samples": {
      "AcquisitionNumber": [1, 2, 3, 4, 5, 6, 7, 8, 9, 10, 11, 12, 13, 14, 15, 16, 17, 18, 19, 20, 21, 22, 23, 24, 25, 26, 27, 28, 29, 30, 31, 32, 33, 34, 35, 36, 37, 38, 39, 40, 41, 42, 43, 44, 45, 46, 47, 48, 49, 50, 51, 52, 53, 54, 55, 56, 57, 58, 59, 60, 61, 62, 63, 64, 65, 66, 67, 68, 69, 70, 71, 72, 73, 74, 75, 76, 77, 78, 79, 80, 81, 82, 83, 84, 85, 86, 87, 88, 89, 90, 91, 92, 93, 94, 95, 96, 97, 98, 99, 100, 101, 102, 103, 104, 105, 106, 107, 108, 109, 110, 111, 112, 113, 114, 115, 116, 117, 118, 119, 120, 121, 122, 123, 124, 125],
      "AcquisitionTime": ["125641.665000", "125642.865000", "125644.065000", "125645.265000", "125646.465000", "125647.665000", "125648.865000", "125650.065000", "125651.265000", "125652.465000", "125653.665000", "125654.865000", "125656.065000", "125657.265000", "125658.465000", "125659.665000", "125700.865000", "125702.065000", "125703.265000", "125704.465000", "125705.665000", "125706.865000", "125708.065000", "125709.265000", "125710.465000", "125711.665000", "125712.865000", "125714.065000", "125715.265000", "125716.465000", "125717.665000", "125718.865000", "125720.065000", "125721.265000", "125722.465000", "125723.665000", "125724.865000", "125726.065000", "125727.265000", "125728.465000", "125729.665000", "125730.865000", "125732.065000", "125733.265000", "125734.465000", "125735.665000", "125736.865000", "125738.065000", "125739.265000", "125740.465000", "125741.665000", "125742.865000", "125744.065000", "125745.265000", "125746.465000", "125747.665000", "125748.865000", "125750.065000", "125751.265000", "125752.465000", "125753.665000", "125754.865000", "125756.065000", "125757.265000", "125758.465000", "125759.665000", "125800.865000", "125802.065000", "125803.265000", "125804.465000", "125805.665000", "125806.865000", "125808.065000", "125809.265000", "125810.465000", "125811.665000", "125812.865000", "125814.065000", "125815.265000", "125816.465000", "125817.665000", "125818.865000", "125820.065000", "125821.265000", "125822.465000", "125823.665000", "125824.865000", "125826.065000", "125827.265000", "125828.465000", "125829.665000", "125830.865000", "125832.065000", "125833.265000", "125834.465000", "125835.665000", "125836.865000", "125838.065000", "125839.265000", "125840.465000", "125841.665000", "125842.865000", "125844.065000", "125845.265000", "125846.465000", "125847.665000", "125848.865000", "125850.065000", "125851.265000", "125852.465000", "125853.665000", "125854.865000", "125856.065000", "125857.265000", "125858.465000", "125859.665000", "125900.865000", "125902.065000", "125903.265000", "125904.465000", "125905.665000", "125906.865000", "125908.065000", "125909.265000", "125910.465000"],
      "ContentTime": ["125706.876000", "125706.879000", "125706.882000", "125706.884000", "125706.887000", "125706.889000", "125706.892000", "125706.895000", "125706.909000", "125706.911000", "125706.914000", "125706.917000", "125706.919000", "125706.922000", "125706.924000", "125706.927000", "125706.929000", "125706.932000", "125706.935000", "125706.937000", "125746.870000", "125746.874000", "125746.876000", "125746.879000", "125746.881000", "125746.884000", "125746.886000", "125746.889000", "125746.891000", "125746.894000", "125746.897000", "125746.899000", "125746.902000", "125746.904000", "125746.907000", "125746.909000", "125746.912000", "125746.914000", "125746.917000", "125746.920000", "125746.922000", "125746.925000", "125746.927000", "125746.930000", "125746.932000", "125746.935000", "125746.941000", "125746.943000", "125746.946000", "125746.948000", "125746.951000", "125746.953000", "125746.956000", "125746.959000", "125826.871000", "125826.874000", "125826.877000", "125826.880000", "125826.882000", "125826.885000", "125826.888000", "125826.890000", "125826.893000", "125826.895000", "125826.898000", "125826.900000", "125826.903000", "125826.906000", "125826.908000", "125826.911000", "125826.913000", "125826.916000", "125826.918000", "125826.921000", "125826.923000", "125826.926000", "125826.929000", "125826.931000", "125826.934000", "125826.936000", "125826.939000", "125826.942000", "125826.944000", "125826.947000", "125826.949000", "125826.952000", "125826.954000", "125906.871000", "125906.874000", "125906.877000", "125906.879000", "125906.882000", "125906.885000", "125906.887000", "125906.890000", "125906.892000", "125906.895000", "125906.898000", "125906.900000", "125906.903000", "125906.906000", "125906.908000", "125906.911000", "125906.914000", "125906.929000", "125906.932000", "125906.934000", "125906.937000", "125906.939000", "125906.942000", "125906.944000", "125906.947000", "125906.949000", "125906.952000", "125906.955000", "125906.957000", "125906.960000", "125906.962000", "125906.965000", "125906.967000", "125912.083000", "125912.086000", "125912.088000", "125912.091000", "125912.094000"],
      "InstanceCreationTime": ["125706.876000", "125706.879000", "125706.882000", "125706.884000", "125706.887000", "125706.889000", "125706.892000", "125706.895000", "125706.909000", "125706.911000", "125706.914000", "125706.917000", "125706.919000", "125706.922000", "125706.924000", "125706.927000", "125706.929000", "125706.932000", "125706.935000", "125706.937000", "125746.870000", "125746.874000", "125746.876000", "125746.879000", "125746.881000", "125746.884000", "125746.886000", "125746.889000", "125746.891000", "125746.894000", "125746.897000", "125746.899000", "125746.902000", "125746.904000", "125746.907000", "125746.909000", "125746.912000", "125746.914000", "125746.917000", "125746.920000", "125746.922000", "125746.925000", "125746.927000", "125746.930000", "125746.932000", "125746.935000", "125746.941000", "125746.943000", "125746.946000", "125746.948000", "125746.951000", "125746.953000", "125746.956000", "125746.959000", "125826.871000", "125826.874000", "125826.877000", "125826.880000", "125826.882000", "125826.885000", "125826.888000", "125826.890000", "125826.893000", "125826.895000", "125826.898000", "125826.900000", "125826.903000", "125826.906000", "125826.908000", "125826.911000", "125826.913000", "125826.916000", "125826.918000", "125826.921000", "125826.923000", "125826.926000", "125826.929000", "125826.931000", "125826.934000", "125826.936000", "125826.939000", "125826.942000", "125826.944000", "125826.947000", "125826.949000", "125826.952000", "125826.954000", "125906.871000", "125906.874000", "125906.877000", "125906.879000", "125906.882000", "125906.885000", "125906.887000", "125906.890000", "125906.892000", "125906.895000", "125906.898000", "125906.900000", "125906.903000", "125906.906000", "125906.908000", "125906.911000", "125906.914000", "125906.929000", "125906.932000", "125906.934000", "125906.937000", "125906.939000", "125906.942000", "125906.944000", "125906.947000", "125906.949000", "125906.952000", "125906.955000", "125906.957000", "125906.960000", "125906.962000", "125906.965000", "125906.967000", "125912.083000", "125912.086000", "125912.088000", "125912.091000", "125912.094000"],
      "InstanceNumber": [1, 2, 3, 4, 5, 6, 7, 8, 9, 10, 11, 12, 13, 14, 15, 16, 17, 18, 19, 20, 21, 22, 23, 24, 25, 26, 27, 28, 29, 30, 31, 32, 33, 34, 35, 36, 37, 38, 39, 40, 41, 42, 43, 44, 45, 46, 47, 48, 49, 50, 51, 52, 53, 54, 55, 56, 57, 58, 59, 60, 61, 62, 63, 64, 65, 66, 67, 68, 69, 70, 71, 72, 73, 74, 75, 76, 77, 78, 79, 80, 81, 82, 83, 84, 85, 86, 87, 88, 89, 90, 91, 92, 93, 94, 95, 96, 97, 98, 99, 100, 101, 102, 103, 104, 105, 106, 107, 108, 109, 110, 111, 112, 113, 114, 115, 116, 117, 118, 119, 120, 121, 122, 123, 124, 125],
      "LargestImagePixelValue": [2228, 2156, 2114, 2086, 2095, 2071, 2097, 2065, 2059, 2057, 2057, 2058, 2060, 2080, 2054, 2073, 2065, 2071, 2059, 2065, 2053, 2061, 2057, 2053, 2058, 2063, 2052, 2055, 2055, 2056, 2060, 2078, 2055, 2061, 2051, 2058, 2062, 2061, 2064, 2079, 2083, 2067, 2081, 2067, 2067, 2070, 2077, 2060, 2083, 2070, 2063, 2062, 2060, 2058, 2071, 2060, 2075, 2056, 2067, 2055, 2074, 2060, 2074, 2061, 2062, 2062, 2095, 2078, 2067, 2082, 2064, 2071, 2059, 2066, 2063, 2071, 2060, 2074, 2056, 2070, 2060, 2072, 2056, 2080, 2068, 2071, 2067, 2073, 2075, 2062, 2065, 2066, 2073, 2059, 2059, 2059, 2079, 2057, 2068, 2069, 2067, 2080, 2064, 2077, 2068, 2060, 2064, 2078, 2056, 2080, 2060, 2072, 2069, 2078, 2076, 2067, 2063, 2075, 2080, 2063, 2057, 2065, 2077, 2061, 2075],
      "WindowCenter": [615.0, 613.0, 612.0, 611.0, 611.0, 610.0, 610.0, 610.0, 609.0, 608.0, 607.0, 606.0, 605.0, 606.0, 607.0, 607.0, 608.0, 608.0, 608.0, 608.0, 607.0, 607.0, 607.0, 607.0, 607.0, 606.0, 607.0, 607.0, 607.0, 606.0, 607.0, 606.0, 606.0, 607.0, 607.0, 607.0, 607.0, 607.0, 607.0, 606.0, 606.0, 605.0, 606.0, 607.0, 608.0, 609.0, 609.0, 609.0, 609.0, 608.0, 607.0, 607.0, 607.0, 607.0, 607.0, 607.0, 607.0, 606.0, 606.0, 606.0, 606.0, 605.0, 605.0, 605.0, 604.0, 604.0, 605.0, 605.0, 606.0, 607.0, 607.0, 608.0, 607.0, 607.0, 607.0, 607.0, 607.0, 607.0, 606.0, 607.0, 606.0, 606.0, 606.0, 605.0, 605.0, 605.0, 605.0, 605.0, 605.0, 605.0, 606.0, 607.0, 607.0, 607.0, 606.0, 606.0, 607.0, 606.0, 606.0, 606.0, 606.0, 607.0, 607.0, 607.0, 607.0, 606.0, 606.0, 606.0, 606.0, 606.0, 606.0, 605.0, 606.0, 605.0, 605.0, 605.0, 605.0, 605.0, 605.0, 605.0, 606.0, 606.0, 606.0, 606.0, 606.0],
      "WindowWidth": [1314.0, 1307.0, 1304.0, 1302.0, 1302.0, 1300.0, 1301.0, 1299.0, 1298.0, 1295.0, 1293.0, 1290.0, 1289.0, 1290.0, 1292.0, 1294.0, 1295.0, 1296.0, 1296.0, 1296.0, 1294.0, 1292.0, 1293.0, 1292.0, 1292.0, 1292.0, 1293.0, 1293.0, 1293.0, 1291.0, 1292.0, 1291.0, 1291.0, 1293.0, 1292.0, 1292.0, 1292.0, 1292.0, 1291.0, 1290.0, 1290.0, 1288.0, 1290.0, 1292.0, 1294.0, 1296.0, 1297.0, 1297.0, 1297.0, 1296.0, 1294.0, 1294.0, 1292.0, 1292.0, 1292.0, 1292.0, 1292.0, 1291.0, 1290.0, 1290.0, 1290.0, 1290.0, 1289.0, 1289.0, 1286.0, 1286.0, 1287.0, 1289.0, 1290.0, 1293.0, 1293.0, 1295.0, 1294.0, 1294.0, 1294.0, 1294.0, 1293.0, 1292.0, 1291.0, 1292.0, 1291.0, 1291.0, 1290.0, 1289.0, 1288.0, 1288.0, 1288.0, 1288.0, 1289.0, 1289.0, 1291.0, 1292.0, 1293.0, 1292.0, 1291.0, 1291.0, 1292.0, 1291.0, 1291.0, 1291.0, 1291.0, 1292.0, 1292.0, 1292.0, 1292.0, 1291.0, 1290.0, 1291.0, 1290.0, 1290.0, 1290.0, 1289.0, 1290.0, 1289.0, 1289.0, 1287.0, 1288.0, 1288.0, 1288.0, 1288.0, 1290.0, 1290.0, 1290.0, 1290.0, 1291.0]
    },
    "slices": {}
  }
}