{
  "AcquisitionMatrixPE": 88,
  "AcquisitionNumber": 1,
  "AcquisitionTime": "13:23:36.087500",
  "BandwidthPerPixelPhaseEncode": 19.592,
  "BaseResolution": 88,
  "BodyPartExamined": "BRAIN",
  "ConsistencyInfo": "N4_VE11C_LATEST_20160120",
  "ConversionSoftware": "dcm2niix",
  "ConversionSoftwareVersion": "v1.0.20190902",
  "DerivedVendorReportedEchoSpacing": 0.000580014,
  "DeviceSerialNumber": "67050",
  "DwellTime": 2.6e-06,
  "EchoTime": 0.033,
  "EchoTrainLength": 88,
  "EffectiveEchoSpacing": 0.000580014,
  "FlipAngle": 62,
  "ImageOrientationPatientDICOM": [0.998953, 0.0386617, -0.0244382, -0.039249, 0.99894, -0.0240308],
  "ImageType": [
    "ORIGINAL",
    "PRIMARY",
    "M",
    "ND",
    "MOSAIC"
],
  "ImagingFrequency": 123.251,
  "InPlanePhaseEncodingDirectionDICOM": "COL",
  "InstitutionAddress": "Olive_Street_60_Providence_RI_US_02912",
  "InstitutionName": "BROWN_UNIVERSITY_MRF",
  "InstitutionalDepartmentName": "Department",
  "MRAcquisitionType": "2D",
  "MagneticFieldStrength": 3,
  "Manufacturer": "Siemens",
  "ManufacturersModelName": "Prisma_fit",
  "Modality": "MR",
  "MultibandAccelerationFactor": 4,
  "PartialFourier": 1,
  "PatientPosition": "HFS",
  "PercentPhaseFOV": 100,
  "PhaseEncodingDirection": "j-",
  "PhaseEncodingSteps": 88,
  "PhaseResolution": 1,
  "PixelBandwidth": 2185,
  "ProcedureStepDescription": "ASHENHAV_1222",
  "ProtocolName": "func-bold_task-RDMcolor_run-03",
  "PulseSequenceDetails": "%SiemensSeq%_ep2d_bold",
  "ReceiveCoilActiveElements": "HC1-7",
  "ReceiveCoilName": "HeadNeck_64",
  "ReconMatrixPE": 88,
  "RefLinesPE": 8,
  "RepetitionTime": 1.2,
  "SAR": 0.0490988,
  "ScanOptions": "FS",
  "ScanningSequence": "EP",
  "SequenceName": "_epfid2d1_88",
  "SequenceVariant": "SK",
  "SeriesDescription": "func-bold_task-RDMcolor_run-03",
  "SeriesNumber": 12,
  "ShimSetting": [1753, -9128, 4445, 707, -67, -187, 31, -1],
  "SliceThickness": 2.4,
  "SliceTiming": [0.5525, 0, 0.63, 0.08, 0.7075, 0.1575, 0.7875, 0.2375, 0.865, 0.315, 0.945, 0.395, 1.0225, 0.4725, 1.1025, 0.5525, 0, 0.63, 0.08, 0.7075, 0.1575, 0.7875, 0.2375, 0.865, 0.315, 0.945, 0.395, 1.0225, 0.4725, 1.1025, 0.5525, 0, 0.63, 0.08, 0.7075, 0.1575, 0.7875, 0.2375, 0.865, 0.315, 0.945, 0.395, 1.0225, 0.4725, 1.1025, 0.5525, 0, 0.63, 0.08, 0.7075, 0.1575, 0.7875, 0.2375, 0.865, 0.315, 0.945, 0.395, 1.0225, 0.4725, 1.1025],
  "SoftwareVersions": "syngo_MR_E11",
  "SpacingBetweenSlices": 2.4,
  "StationName": "AWP67050",
  "TaskName": "RDMcolor",
  "TotalReadoutTime": 0.0504612,
  "TxRefAmp": 219.091,
  "dcmmeta_affine": [
    [-2.3952178955078125, -0.09410848468542099, -0.056359704583883286, 112.23524475097656],
    [-0.09270010888576508, 2.39518666267395, -0.05991552397608757, -89.46002960205078],
    [-0.05859607085585594, 0.05761924386024475, 2.398589849472046, -56.61228942871094],
    [0.0, 0.0, 0.0, 1.0]
],
  "dcmmeta_reorient_transform": [
    [0.0, -1.0, 0.0, 87.0],
    [1.0, 0.0, 0.0, 0.0],
    [0.0, 0.0, 1.0, 0.0],
    [0.0, 0.0, 0.0, 1.0]
],
  "dcmmeta_shape": [88, 88, 60, 392],
  "dcmmeta_slice_dim": 2,
  "dcmmeta_version": 0.6,
  "global": {
    "const": {
      "AcquisitionMatrix": [88, 0, 0, 88],
      "AngioFlag": "N",
      "BitsAllocated": 16,
      "BitsStored": 12,
      "BodyPartExamined": "BRAIN",
      "Columns": 704,
      "DeidentificationMethodCodeSequence": [
        {
          "CodeMeaning": "XNAT DicomEdit 6 Script",
          "CodeValue": "3",
          "CodingSchemeDesignator": "XNAT",
          "CodingSchemeVersion": "1.0"}
],
      "EchoNumbers": 1,
      "EchoTime": 33.0,
      "EchoTrainLength": 88,
      "FlipAngle": 62.0,
      "HighBit": 11,
      "ImageOrientationPatient": [0.99895347834848, 0.03866165837903, -0.0244381723303, -0.0392490378536, 0.99894045611404, -0.0240307753983],
      "ImagePositionPatient": [-812.78952617539, -885.19036887744, -15.805099111792],
      "ImageType": [
        "ORIGINAL",
        "PRIMARY",
        "M",
        "ND",
        "MOSAIC"
],
      "ImagedNucleus": "1H",
      "ImagingFrequency": 123.250736,
      "InPlanePhaseEncodingDirection": "COL",
      "MRAcquisitionType": "2D",
      "MagneticFieldStrength": 3.0,
      "Manufacturer": "SIEMENS",
      "ManufacturerModelName": "Prisma_fit",
      "Modality": "MR",
      "NumberOfAverages": 1.0,
      "NumberOfPhaseEncodingSteps": 88,
      "PercentPhaseFieldOfView": 100.0,
      "PercentSampling": 100.0,
      "PerformedProcedureStepStartTime": "124940.610000",
      "PhotometricInterpretation": "MONOCHROME2",
      "PixelBandwidth": 2185.0,
      "PixelRepresentation": 0,
      "PixelSpacing": [2.3977272510529, 2.3977272510529],
      "ProtocolName": "func-bold_task-RDMcolor_run-03",
      "RepetitionTime": 1200.0,
      "Rows": 704,
      "SAR": 0.04909876831772,
      "SamplesPerPixel": 1,
      "ScanOptions": "FS",
      "ScanningSequence": "EP",
      "SequenceName": "*epfid2d1_88",
      "SequenceVariant": "SK",
      "SeriesDescription": "func-bold_task-RDMcolor_run-03",
      "SeriesNumber": 12,
      "SeriesTime": "132414.988000",
      "SliceLocation": -56.981321649144,
      "SliceThickness": 2.4000000953674,
      "SmallestImagePixelValue": 0,
      "SoftwareVersions": "syngo MR E11",
      "SpacingBetweenSlices": 2.4000000156725,
      "SpecificCharacterSet": "ISO_IR 100",
      "StudyID": "1",
      "StudyTime": "124940.509000",
      "TransmitCoilName": "Body",
      "VariableFlipAngleFlag": "N",
      "WindowCenterWidthExplanation": "Algo1",
      "dBdt": 0.0},
    "slices": {}
  },
  "time": {
    "samples": {
      "AcquisitionNumber": [1, 2, 3, 4, 5, 6, 7, 8, 9, 10, 11, 12, 13, 14, 15, 16, 17, 18, 19, 20, 21, 22, 23, 24, 25, 26, 27, 28, 29, 30, 31, 32, 33, 34, 35, 36, 37, 38, 39, 40, 41, 42, 43, 44, 45, 46, 47, 48, 49, 50, 51, 52, 53, 54, 55, 56, 57, 58, 59, 60, 61, 62, 63, 64, 65, 66, 67, 68, 69, 70, 71, 72, 73, 74, 75, 76, 77, 78, 79, 80, 81, 82, 83, 84, 85, 86, 87, 88, 89, 90, 91, 92, 93, 94, 95, 96, 97, 98, 99, 100, 101, 102, 103, 104, 105, 106, 107, 108, 109, 110, 111, 112, 113, 114, 115, 116, 117, 118, 119, 120, 121, 122, 123, 124, 125, 126, 127, 128, 129, 130, 131, 132, 133, 134, 135, 136, 137, 138, 139, 140, 141, 142, 143, 144, 145, 146, 147, 148, 149, 150, 151, 152, 153, 154, 155, 156, 157, 158, 159, 160, 161, 162, 163, 164, 165, 166, 167, 168, 169, 170, 171, 172, 173, 174, 175, 176, 177, 178, 179, 180, 181, 182, 183, 184, 185, 186, 187, 188, 189, 190, 191, 192, 193, 194, 195, 196, 197, 198, 199, 200, 201, 202, 203, 204, 205, 206, 207, 208, 209, 210, 211, 212, 213, 214, 215, 216, 217, 218, 219, 220, 221, 222, 223, 224, 225, 226, 227, 228, 229, 230, 231, 232, 233, 234, 235, 236, 237, 238, 239, 240, 241, 242, 243, 244, 245, 246, 247, 248, 249, 250, 251, 252, 253, 254, 255, 256, 257, 258, 259, 260, 261, 262, 263, 264, 265, 266, 267, 268, 269, 270, 271, 272, 273, 274, 275, 276, 277, 278, 279, 280, 281, 282, 283, 284, 285, 286, 287, 288, 289, 290, 291, 292, 293, 294, 295, 296, 297, 298, 299, 300, 301, 302, 303, 304, 305, 306, 307, 308, 309, 310, 311, 312, 313, 314, 315, 316, 317, 318, 319, 320, 321, 322, 323, 324, 325, 326, 327, 328, 329, 330, 331, 332, 333, 334, 335, 336, 337, 338, 339, 340, 341, 342, 343, 344, 345, 346, 347, 348, 349, 350, 351, 352, 353, 354, 355, 356, 357, 358, 359, 360, 361, 362, 363, 364, 365, 366, 367, 368, 369, 370, 371, 372, 373, 374, 375, 376, 377, 378, 379, 380, 381, 382, 383, 384, 385, 386, 387, 388, 389, 390, 391, 392],
      "AcquisitionTime": ["132336.087500", "132337.287500", "132338.487500", "132339.687500", "132340.887500", "132342.087500", "132343.287500", "132344.487500", "132345.687500", "132346.887500", "132348.087500", "132349.287500", "132350.487500", "132351.687500", "132352.887500", "132354.087500", "132355.287500", "132356.487500", "132357.687500", "132358.887500", "132400.087500", "132401.287500", "132402.487500", "132403.687500", "132404.887500", "132406.087500", "132407.287500", "132408.487500", "132409.687500", "132410.887500", "132412.087500", "132413.287500", "132414.487500", "132415.687500", "132416.887500", "132418.087500", "132419.287500", "132420.487500", "132421.687500", "132422.887500", "132424.087500", "132425.287500", "132426.487500", "132427.687500", "132428.887500", "132430.087500", "132431.287500", "132432.487500", "132433.687500", "132434.887500", "132436.087500", "132437.287500", "132438.487500", "132439.687500", "132440.887500", "132442.087500", "132443.287500", "132444.487500", "132445.687500", "132446.887500", "132448.087500", "132449.287500", "132450.487500", "132451.687500", "132452.887500", "132454.087500", "132455.287500", "132456.487500", "132457.687500", "132458.887500", "132500.087500", "132501.287500", "132502.487500", "132503.687500", "132504.887500", "132506.087500", "132507.287500", "132508.487500", "132509.687500", "132510.887500", "132512.087500", "132513.287500", "132514.487500", "132515.687500", "132516.887500", "132518.087500", "132519.287500", "132520.487500", "132521.687500", "132522.887500", "132524.087500", "132525.287500", "132526.487500", "132527.687500", "132528.887500", "132530.087500", "132531.287500", "132532.487500", "132533.687500", "132534.887500", "132536.087500", "132537.287500", "132538.487500", "132539.687500", "132540.887500", "132542.087500", "132543.287500", "132544.487500", "132545.687500", "132546.887500", "132548.087500", "132549.287500", "132550.487500", "132551.687500", "132552.887500", "132554.087500", "132555.287500", "132556.487500", "132557.687500", "132558.887500", "132600.087500", "132601.287500", "132602.487500", "132603.687500", "132604.887500", "132606.087500", "132607.287500", "132608.487500", "132609.687500", "132610.887500", "132612.087500", "132613.287500", "132614.487500", "132615.687500", "132616.887500", "132618.087500", "132619.287500", "132620.487500", "132621.687500", "132622.887500", "132624.087500", "132625.287500", "132626.487500", "132627.687500", "132628.887500", "132630.087500", "132631.287500", "132632.487500", "132633.687500", "132634.887500", "132636.087500", "132637.287500", "132638.487500", "132639.687500", "132640.887500", "132642.087500", "132643.287500", "132644.487500", "132645.687500", "132646.887500", "132648.087500", "132649.287500", "132650.487500", "132651.687500", "132652.887500", "132654.087500", "132655.287500", "132656.487500", "132657.687500", "132658.887500", "132700.087500", "132701.287500", "132702.487500", "132703.687500", "132704.887500", "132706.087500", "132707.287500", "132708.487500", "132709.687500", "132710.887500", "132712.087500", "132713.287500", "132714.487500", "132715.687500", "132716.887500", "132718.087500", "132719.287500", "132720.487500", "132721.687500", "132722.887500", "132724.087500", "132725.287500", "132726.487500", "132727.687500", "132728.887500", "132730.087500", "132731.287500", "132732.487500", "132733.687500", "132734.887500", "132736.087500", "132737.287500", "132738.487500", "132739.687500", "132740.887500", "132742.087500", "132743.287500", "132744.487500", "132745.687500", "132746.887500", "132748.087500", "132749.287500", "132750.487500", "132751.687500", "132752.887500", "132754.087500", "132755.287500", "132756.487500", "132757.687500", "132758.887500", "132800.087500", "132801.287500", "132802.487500", "132803.687500", "132804.887500", "132806.087500", "132807.287500", "132808.487500", "132809.687500", "132810.887500", "132812.087500", "132813.287500", "132814.487500", "132815.687500", "132816.887500", "132818.087500", "132819.287500", "132820.487500", "132821.687500", "132822.887500", "132824.087500", "132825.287500", "132826.487500", "132827.687500", "132828.887500", "132830.087500", "132831.287500", "132832.487500", "132833.687500", "132834.887500", "132836.087500", "132837.287500", "132838.487500", "132839.687500", "132840.887500", "132842.087500", "132843.287500", "132844.487500", "132845.687500", "132846.887500", "132848.087500", "132849.287500", "132850.487500", "132851.687500", "132852.887500", "132854.087500", "132855.287500", "132856.487500", "132857.687500", "132858.887500", "132900.087500", "132901.287500", "132902.487500", "132903.687500", "132904.887500", "132906.087500", "132907.287500", "132908.487500", "132909.687500", "132910.887500", "132912.087500", "132913.287500", "132914.487500", "132915.687500", "132916.887500", "132918.087500", "132919.287500", "132920.487500", "132921.687500", "132922.887500", "132924.087500", "132925.287500", "132926.487500", "132927.687500", "132928.887500", "132930.087500", "132931.287500", "132932.487500", "132933.687500", "132934.887500", "132936.087500", "132937.287500", "132938.487500", "132939.687500", "132940.887500", "132942.087500", "132943.287500", "132944.487500", "132945.687500", "132946.887500", "132948.087500", "132949.287500", "132950.487500", "132951.687500", "132952.887500", "132954.087500", "132955.287500", "132956.487500", "132957.687500", "132958.887500", "133000.087500", "133001.287500", "133002.487500", "133003.687500", "133004.887500", "133006.087500", "133007.287500", "133008.487500", "133009.687500", "133010.887500", "133012.087500", "133013.287500", "133014.487500", "133015.687500", "133016.887500", "133018.087500", "133019.287500", "133020.487500", "133021.687500", "133022.887500", "133024.087500", "133025.287500", "133026.487500", "133027.687500", "133028.887500", "133030.087500", "133031.287500", "133032.487500", "133033.687500", "133034.887500", "133036.087500", "133037.287500", "133038.487500", "133039.687500", "133040.887500", "133042.087500", "133043.287500", "133044.487500", "133045.687500", "133046.887500", "133048.087500", "133049.287500", "133050.487500", "133051.687500", "133052.887500", "133054.087500", "133055.287500", "133056.487500", "133057.687500", "133058.887500", "133100.087500", "133101.287500", "133102.487500", "133103.687500", "133104.887500", "133106.087500", "133107.287500", "133108.487500", "133109.687500", "133110.887500", "133112.087500", "133113.287500", "133114.487500", "133115.687500", "133116.887500", "133118.087500", "133119.287500", "133120.487500", "133121.687500", "133122.887500", "133124.087500", "133125.287500"],
      "ContentTime": ["132414.991000", "132414.994000", "132414.997000", "132415.000000", "132415.003000", "132415.005000", "132415.008000", "132415.023000", "132415.025000", "132415.028000", "132415.031000", "132415.033000", "132415.036000", "132415.053000", "132415.056000", "132415.063000", "132415.066000", "132415.068000", "132415.071000", "132415.074000", "132415.076000", "132415.079000", "132415.087000", "132415.089000", "132415.092000", "132415.094000", "132415.097000", "132415.100000", "132415.102000", "132415.105000", "132415.107000", "132415.110000", "132454.987000", "132454.989000", "132454.992000", "132454.995000", "132454.997000", "132455.001000", "132455.003000", "132455.006000", "132455.008000", "132455.011000", "132455.013000", "132455.016000", "132455.019000", "132455.021000", "132455.024000", "132455.026000", "132455.029000", "132455.031000", "132455.034000", "132455.036000", "132455.039000", "132455.041000", "132455.044000", "132455.047000", "132455.049000", "132455.052000", "132455.054000", "132455.057000", "132455.059000", "132455.062000", "132455.064000", "132455.075000", "132455.078000", "132534.987000", "132534.989000", "132534.992000", "132534.995000", "132534.997000", "132535.001000", "132535.003000", "132535.006000", "132535.008000", "132535.011000", "132535.013000", "132535.016000", "132535.018000", "132535.021000", "132535.024000", "132535.029000", "132535.031000", "132535.034000", "132535.036000", "132535.039000", "132535.041000", "132535.044000", "132535.047000", "132535.049000", "132535.052000", "132535.054000", "132535.057000", "132535.059000", "132535.062000", "132535.064000", "132535.067000", "132535.069000", "132535.072000", "132535.074000", "132614.986000", "132614.989000", "132614.992000", "132614.995000", "132614.997000", "132615.001000", "132615.003000", "132615.006000", "132615.008000", "132615.011000", "132615.013000", "132615.016000", "132615.018000", "132615.021000", "132615.023000", "132615.026000", "132615.029000", "132615.031000", "132615.034000", "132615.036000", "132615.039000", "132615.042000", "132615.044000", "132615.047000", "132615.059000", "132615.062000", "132615.064000", "132615.067000", "132615.069000", "132615.072000", "132615.074000", "132615.077000", "132615.085000", "132654.987000", "132654.989000", "132654.992000", "132654.995000", "132654.997000", "132655.001000", "132655.004000", "132655.006000", "132655.009000", "132655.011000", "132655.014000", "132655.016000", "132655.019000", "132655.022000", "132655.024000", "132655.027000", "132655.029000", "132655.032000", "132655.035000", "132655.037000", "132655.040000", "132655.042000", "132655.045000", "132655.047000", "132655.050000", "132655.052000", "132655.055000", "132655.058000", "132655.060000", "132655.063000", "132655.065000", "132655.068000", "132655.070000", "132734.986000", "132734.989000", "132734.992000", "132734.994000", "132734.997000", "132735.000000", "132735.002000", "132735.005000", "132735.012000", "132735.015000", "132735.018000", "132735.020000", "132735.023000", "132735.025000", "132735.028000", "132735.030000", "132735.033000", "132735.036000", "132735.038000", "132735.041000", "132735.043000", "132735.046000", "132735.049000", "132735.051000", "132735.059000", "132735.061000", "132735.064000", "132735.066000", "132735.069000", "132735.072000", "132735.074000", "132735.077000", "132735.079000", "132735.082000", "132814.986000", "132814.989000", "132814.992000", "132814.994000", "132814.997000", "132815.001000", "132815.003000", "132815.006000", "132815.009000", "132815.011000", "132815.029000", "132815.032000", "132815.034000", "132815.037000", "132815.039000", "132815.042000", "132815.045000", "132815.047000", "132815.050000", "132815.052000", "132815.055000", "132815.058000", "132815.060000", "132815.063000", "132815.065000", "132815.068000", "132815.071000", "132815.073000", "132815.076000", "132815.079000", "132815.081000", "132815.084000", "132815.086000", "132854.987000", "132854.989000", "132854.992000", "132854.995000", "132854.997000", "132855.001000", "132855.003000", "132855.006000", "132855.008000", "132855.011000", "132855.014000", "132855.017000", "132855.019000", "132855.022000", "132855.024000", "132855.027000", "132855.029000", "132855.032000", "132855.035000", "132855.042000", "132855.045000", "132855.048000", "132855.050000", "132855.053000", "132855.055000", "132855.058000", "132855.061000", "132855.063000", "132855.066000", "132855.068000", "132855.071000", "132855.074000", "132855.076000", "132934.986000", "132934.989000", "132934.992000", "132934.994000", "132934.997000", "132935.001000", "132935.003000", "132935.006000", "132935.008000", "132935.011000", "132935.014000", "132935.016000", "132935.019000", "132935.022000", "132935.024000", "132935.027000", "132935.030000", "132935.032000", "132935.035000", "132935.037000", "132935.044000", "132935.047000", "132935.049000", "132935.052000", "132935.055000", "132935.057000", "132935.060000", "132935.062000", "132935.065000", "132935.068000", "132935.070000", "132935.073000", "132935.076000", "132935.078000", "133014.986000", "133014.989000", "133014.992000", "133014.995000", "133014.997000", "133015.001000", "133015.004000", "133015.006000", "133015.009000", "133015.012000", "133015.014000", "133015.017000", "133015.020000", "133015.022000", "133015.025000", "133015.028000", "133015.030000", "133015.033000", "133015.035000", "133015.038000", "133015.041000", "133015.043000", "133015.046000", "133015.049000", "133015.051000", "133015.054000", "133015.056000", "133015.059000", "133015.062000", "133015.064000", "133015.067000", "133015.069000", "133015.072000", "133054.987000", "133054.989000", "133054.992000", "133054.995000", "133054.997000", "133055.001000", "133055.004000", "133055.006000", "133055.009000", "133055.011000", "133055.014000", "133055.017000", "133055.019000", "133055.022000", "133055.024000", "133055.027000", "133055.030000", "133055.032000", "133055.035000", "133055.038000", "133055.040000", "133055.043000", "133055.045000", "133055.048000", "133055.050000", "133055.053000", "133055.056000", "133055.058000", "133055.061000", "133055.063000", "133055.066000", "133055.069000", "133055.071000", "133126.366000", "133126.369000", "133126.371000", "133126.374000", "133126.376000", "133126.379000", "133126.381000", "133126.384000", "133126.387000", "133126.389000", "133126.392000", "133126.394000", "133126.397000", "133126.400000", "133126.402000", "133126.405000", "133126.408000", "133126.410000", "133126.413000", "133126.415000", "133126.418000", "133126.420000", "133126.423000", "133126.426000", "133126.428000", "133126.431000", "133126.433000"],
      "InstanceCreationTime": ["132414.991000", "132414.994000", "132414.997000", "132415.000000", "132415.003000", "132415.005000", "132415.008000", "132415.023000", "132415.025000", "132415.028000", "132415.031000", "132415.033000", "132415.036000", "132415.053000", "132415.056000", "132415.063000", "132415.066000", "132415.068000", "132415.071000", "132415.074000", "132415.076000", "132415.079000", "132415.087000", "132415.089000", "132415.092000", "132415.094000", "132415.097000", "132415.100000", "132415.102000", "132415.105000", "132415.107000", "132415.110000", "132454.987000", "132454.989000", "132454.992000", "132454.995000", "132454.997000", "132455.001000", "132455.003000", "132455.006000", "132455.008000", "132455.011000", "132455.013000", "132455.016000", "132455.019000", "132455.021000", "132455.024000", "132455.026000", "132455.029000", "132455.031000", "132455.034000", "132455.036000", "132455.039000", "132455.041000", "132455.044000", "132455.047000", "132455.049000", "132455.052000", "132455.054000", "132455.057000", "132455.059000", "132455.062000", "132455.064000", "132455.075000", "132455.078000", "132534.987000", "132534.989000", "132534.992000", "132534.995000", "132534.997000", "132535.001000", "132535.003000", "132535.006000", "132535.008000", "132535.011000", "132535.013000", "132535.016000", "132535.018000", "132535.021000", "132535.024000", "132535.029000", "132535.031000", "132535.034000", "132535.036000", "132535.039000", "132535.041000", "132535.044000", "132535.047000", "132535.049000", "132535.052000", "132535.054000", "132535.057000", "132535.059000", "132535.062000", "132535.064000", "132535.067000", "132535.069000", "132535.072000", "132535.074000", "132614.986000", "132614.989000", "132614.992000", "132614.995000", "132614.997000", "132615.001000", "132615.003000", "132615.006000", "132615.008000", "132615.011000", "132615.013000", "132615.016000", "132615.018000", "132615.021000", "132615.023000", "132615.026000", "132615.029000", "132615.031000", "132615.034000", "132615.036000", "132615.039000", "132615.042000", "132615.044000", "132615.047000", "132615.059000", "132615.062000", "132615.064000", "132615.067000", "132615.069000", "132615.072000", "132615.074000", "132615.077000", "132615.085000", "132654.987000", "132654.989000", "132654.992000", "132654.995000", "132654.997000", "132655.001000", "132655.004000", "132655.006000", "132655.009000", "132655.011000", "132655.014000", "132655.016000", "132655.019000", "132655.022000", "132655.024000", "132655.027000", "132655.029000", "132655.032000", "132655.035000", "132655.037000", "132655.040000", "132655.042000", "132655.045000", "132655.047000", "132655.050000", "132655.052000", "132655.055000", "132655.058000", "132655.060000", "132655.063000", "132655.065000", "132655.068000", "132655.070000", "132734.986000", "132734.989000", "132734.992000", "132734.994000", "132734.997000", "132735.000000", "132735.002000", "132735.005000", "132735.012000", "132735.015000", "132735.018000", "132735.020000", "132735.023000", "132735.025000", "132735.028000", "132735.030000", "132735.033000", "132735.036000", "132735.038000", "132735.041000", "132735.043000", "132735.046000", "132735.049000", "132735.051000", "132735.059000", "132735.061000", "132735.064000", "132735.066000", "132735.069000", "132735.072000", "132735.074000", "132735.077000", "132735.079000", "132735.082000", "132814.986000", "132814.989000", "132814.992000", "132814.994000", "132814.997000", "132815.001000", "132815.003000", "132815.006000", "132815.009000", "132815.011000", "132815.029000", "132815.032000", "132815.034000", "132815.037000", "132815.039000", "132815.042000", "132815.045000", "132815.047000", "132815.050000", "132815.052000", "132815.055000", "132815.058000", "132815.060000", "132815.063000", "132815.065000", "132815.068000", "132815.071000", "132815.073000", "132815.076000", "132815.079000", "132815.081000", "132815.084000", "132815.086000", "132854.987000", "132854.989000", "132854.992000", "132854.995000", "132854.997000", "132855.001000", "132855.003000", "132855.006000", "132855.008000", "132855.011000", "132855.014000", "132855.017000", "132855.019000", "132855.022000", "132855.024000", "132855.027000", "132855.029000", "132855.032000", "132855.035000", "132855.042000", "132855.045000", "132855.048000", "132855.050000", "132855.053000", "132855.055000", "132855.058000", "132855.061000", "132855.063000", "132855.066000", "132855.068000", "132855.071000", "132855.074000", "132855.076000", "132934.986000", "132934.989000", "132934.992000", "132934.994000", "132934.997000", "132935.001000", "132935.003000", "132935.006000", "132935.008000", "132935.011000", "132935.014000", "132935.016000", "132935.019000", "132935.022000", "132935.024000", "132935.027000", "132935.030000", "132935.032000", "132935.035000", "132935.037000", "132935.044000", "132935.047000", "132935.049000", "132935.052000", "132935.055000", "132935.057000", "132935.060000", "132935.062000", "132935.065000", "132935.068000", "132935.070000", "132935.073000", "132935.076000", "132935.078000", "133014.986000", "133014.989000", "133014.992000", "133014.995000", "133014.997000", "133015.001000", "133015.004000", "133015.006000", "133015.009000", "133015.012000", "133015.014000", "133015.017000", "133015.020000", "133015.022000", "133015.025000", "133015.028000", "133015.030000", "133015.033000", "133015.035000", "133015.038000", "133015.041000", "133015.043000", "133015.046000", "133015.049000", "133015.051000", "133015.054000", "133015.056000", "133015.059000", "133015.062000", "133015.064000", "133015.067000", "133015.069000", "133015.072000", "133054.987000", "133054.989000", "133054.992000", "133054.995000", "133054.997000", "133055.001000", "133055.004000", "133055.006000", "133055.009000", "133055.011000", "133055.014000", "133055.017000", "133055.019000", "133055.022000", "133055.024000", "133055.027000", "133055.030000", "133055.032000", "133055.035000", "133055.038000", "133055.040000", "133055.043000", "133055.045000", "133055.048000", "133055.050000", "133055.053000", "133055.056000", "133055.058000", "133055.061000", "133055.063000", "133055.066000", "133055.069000", "133055.071000", "133126.366000", "133126.369000", "133126.371000", "133126.374000", "133126.376000", "133126.379000", "133126.381000", "133126.384000", "133126.387000", "133126.389000", "133126.392000", "133126.394000", "133126.397000", "133126.400000", "133126.402000", "133126.405000", "133126.408000", "133126.410000", "133126.413000", "133126.415000", "133126.418000", "133126.420000", "133126.423000", "133126.426000", "133126.428000", "133126.431000", "133126.433000"],
      "InstanceNumber": [1, 2, 3, 4, 5, 6, 7, 8, 9, 10, 11, 12, 13, 14, 15, 16, 17, 18, 19, 20, 21, 22, 23, 24, 25, 26, 27, 28, 29, 30, 31, 32, 33, 34, 35, 36, 37, 38, 39, 40, 41, 42, 43, 44, 45, 46, 47, 48, 49, 50, 51, 52, 53, 54, 55, 56, 57, 58, 59, 60, 61, 62, 63, 64, 65, 66, 67, 68, 69, 70, 71, 72, 73, 74, 75, 76, 77, 78, 79, 80, 81, 82, 83, 84, 85, 86, 87, 88, 89, 90, 91, 92, 93, 94, 95, 96, 97, 98, 99, 100, 101, 102, 103, 104, 105, 106, 107, 108, 109, 110, 111, 112, 113, 114, 115, 116, 117, 118, 119, 120, 121, 122, 123, 124, 125, 126, 127, 128, 129, 130, 131, 132, 133, 134, 135, 136, 137, 138, 139, 140, 141, 142, 143, 144, 145, 146, 147, 148, 149, 150, 151, 152, 153, 154, 155, 156, 157, 158, 159, 160, 161, 162, 163, 164, 165, 166, 167, 168, 169, 170, 171, 172, 173, 174, 175, 176, 177, 178, 179, 180, 181, 182, 183, 184, 185, 186, 187, 188, 189, 190, 191, 192, 193, 194, 195, 196, 197, 198, 199, 200, 201, 202, 203, 204, 205, 206, 207, 208, 209, 210, 211, 212, 213, 214, 215, 216, 217, 218, 219, 220, 221, 222, 223, 224, 225, 226, 227, 228, 229, 230, 231, 232, 233, 234, 235, 236, 237, 238, 239, 240, 241, 242, 243, 244, 245, 246, 247, 248, 249, 250, 251, 252, 253, 254, 255, 256, 257, 258, 259, 260, 261, 262, 263, 264, 265, 266, 267, 268, 269, 270, 271, 272, 273, 274, 275, 276, 277, 278, 279, 280, 281, 282, 283, 284, 285, 286, 287, 288, 289, 290, 291, 292, 293, 294, 295, 296, 297, 298, 299, 300, 301, 302, 303, 304, 305, 306, 307, 308, 309, 310, 311, 312, 313, 314, 315, 316, 317, 318, 319, 320, 321, 322, 323, 324, 325, 326, 327, 328, 329, 330, 331, 332, 333, 334, 335, 336, 337, 338, 339, 340, 341, 342, 343, 344, 345, 346, 347, 348, 349, 350, 351, 352, 353, 354, 355, 356, 357, 358, 359, 360, 361, 362, 363, 364, 365, 366, 367, 368, 369, 370, 371, 372, 373, 374, 375, 376, 377, 378, 379, 380, 381, 382, 383, 384, 385, 386, 387, 388, 389, 390, 391, 392],
