{
  "AcquisitionMatrixPE": 88,
  "AcquisitionNumber": 1,
  "AcquisitionTime": "13:32:36.577500",
  "BandwidthPerPixelPhaseEncode": 19.592,
  "BaseResolution": 88,
  "BodyPartExamined": "BRAIN",
  "ConsistencyInfo": "N4_VE11C_LATEST_20160120",
  "ConversionSoftware": "dcm2niix",
  "ConversionSoftwareVersion": "v1.0.20190902",
  "DerivedVendorReportedEchoSpacing": 0.000580014,
  "DeviceSerialNumber": "67050",
  "DwellTime": 2.6e-06,
  "EchoTime": 0.033,
  "EchoTrainLength": 88,
  "EffectiveEchoSpacing": 0.000580014,
  "FlipAngle": 62,
  "ImageOrientationPatientDICOM": [0.998953, 0.0386617, -0.0244382, -0.039249, 0.99894, -0.0240308],
  "ImageType": [
    "ORIGINAL",
    "PRIMARY",
    "M",
    "ND",
    "MOSAIC"
],
  "ImagingFrequency": 123.251,
  "InPlanePhaseEncodingDirectionDICOM": "COL",
  "InstitutionAddress": "Olive_Street_60_Providence_RI_US_02912",
  "InstitutionName": "BROWN_UNIVERSITY_MRF",
  "InstitutionalDepartmentName": "Department",
  "MRAcquisitionType": "2D",
  "MagneticFieldStrength": 3,
  "Manufacturer": "Siemens",
  "ManufacturersModelName": "Prisma_fit",
  "Modality": "MR",
  "MultibandAccelerationFactor": 4,
  "PartialFourier": 1,
  "PatientPosition": "HFS",
  "PercentPhaseFOV": 100,
  "PhaseEncodingDirection": "j-",
  "PhaseEncodingSteps": 88,
  "PhaseResolution": 1,
  "PixelBandwidth": 2185,
  "ProcedureStepDescription": "ASHENHAV_1222",
  "ProtocolName": "func-bold_task-RDMmotion_run-04",
  "PulseSequenceDetails": "%SiemensSeq%_ep2d_bold",
  "ReceiveCoilActiveElements": "HC1-7",
  "ReceiveCoilName": "HeadNeck_64",
  "ReconMatrixPE": 88,
  "RefLinesPE": 8,
  "RepetitionTime": 1.2,
  "SAR": 0.0486004,
  "ScanOptions": "FS",
  "ScanningSequence": "EP",
  "SequenceName": "_epfid2d1_88",
  "SequenceVariant": "SK",
  "SeriesDescription": "func-bold_task-RDMmotion_run-04",
  "SeriesNumber": 13,
  "ShimSetting": [1753, -9128, 4445, 707, -67, -187, 31, -1],
  "SliceThickness": 2.4,
  "SliceTiming": [0.55, 0, 0.63, 0.08, 0.7075, 0.1575, 0.7875, 0.235, 0.865, 0.315, 0.945, 0.3925, 1.0225, 0.4725, 1.1025, 0.55, 0, 0.63, 0.08, 0.7075, 0.1575, 0.7875, 0.235, 0.865, 0.315, 0.945, 0.3925, 1.0225, 0.4725, 1.1025, 0.55, 0, 0.63, 0.08, 0.7075, 0.1575, 0.7875, 0.235, 0.865, 0.315, 0.945, 0.3925, 1.0225, 0.4725, 1.1025, 0.55, 0, 0.63, 0.08, 0.7075, 0.1575, 0.7875, 0.235, 0.865, 0.315, 0.945, 0.3925, 1.0225, 0.4725, 1.1025],
  "SoftwareVersions": "syngo_MR_E11",
  "SpacingBetweenSlices": 2.4,
  "StationName": "AWP67050",
  "TaskName": "RDMmotion",
  "TotalReadoutTime": 0.0504612,
  "TxRefAmp": 219.091,
  "dcmmeta_affine": [
    [-2.3952178955078125, -0.09410848468542099, -0.056359704583883286, 112.23524475097656],
    [-0.09270010888576508, 2.39518666267395, -0.05991552397608757, -89.46002960205078],
    [-0.05859607085585594, 0.05761924386024475, 2.398589849472046, -56.61228942871094],
    [0.0, 0.0, 0.0, 1.0]
],
  "dcmmeta_reorient_transform": [
    [0.0, -1.0, 0.0, 87.0],
    [1.0, 0.0, 0.0, 0.0],
    [0.0, 0.0, 1.0, 0.0],
    [0.0, 0.0, 0.0, 1.0]
],
  "dcmmeta_shape": [88, 88, 60, 125],
  "dcmmeta_slice_dim": 2,
  "dcmmeta_version": 0.6,
  "global": {
    "const": {
      "AcquisitionMatrix": [88, 0, 0, 88],
      "AngioFlag": "N",
      "BitsAllocated": 16,
      "BitsStored": 12,
      "BodyPartExamined": "BRAIN",
      "Columns": 704,
      "DeidentificationMethodCodeSequence": [
        {
          "CodeMeaning": "XNAT DicomEdit 6 Script",
          "CodeValue": "3",
          "CodingSchemeDesignator": "XNAT",
          "CodingSchemeVersion": "1.0"}
],
      "EchoNumbers": 1,
      "EchoTime": 33.0,
      "EchoTrainLength": 88,
      "FlipAngle": 62.0,
      "HighBit": 11,
      "ImageOrientationPatient": [0.99895347834848, 0.03866165837903, -0.0244381723303, -0.0392490378536, 0.99894045611404, -0.0240307753983],
      "ImagePositionPatient": [-812.78952617539, -885.19036887744, -15.805099111792],
      "ImageType": [
        "ORIGINAL",
        "PRIMARY",
        "M",
        "ND",
        "MOSAIC"
],
      "ImagedNucleus": "1H",
      "ImagingFrequency": 123.250735,
      "InPlanePhaseEncodingDirection": "COL",
      "MRAcquisitionType": "2D",
      "MagneticFieldStrength": 3.0,
      "Manufacturer": "SIEMENS",
      "ManufacturerModelName": "Prisma_fit",
      "Modality": "MR",
      "NumberOfAverages": 1.0,
      "NumberOfPhaseEncodingSteps": 88,
      "PercentPhaseFieldOfView": 100.0,
      "PercentSampling": 100.0,
      "PerformedProcedureStepStartTime": "124940.610000",
      "PhotometricInterpretation": "MONOCHROME2",
      "PixelBandwidth": 2185.0,
      "PixelRepresentation": 0,
      "PixelSpacing": [2.3977272510529, 2.3977272510529],
      "ProtocolName": "func-bold_task-RDMmotion_run-04",
      "RepetitionTime": 1200.0,
      "Rows": 704,
      "SAR": 0.0486003956527,
      "SamplesPerPixel": 1,
      "ScanOptions": "FS",
      "ScanningSequence": "EP",
      "SequenceName": "*epfid2d1_88",
      "SequenceVariant": "SK",
      "SeriesDescription": "func-bold_task-RDMmotion_run-04",
      "SeriesNumber": 13,
      "SeriesTime": "133306.887000",
      "SliceLocation": -56.981321649144,
      "SliceThickness": 2.4000000953674,
      "SmallestImagePixelValue": 0,
      "SoftwareVersions": "syngo MR E11",
      "SpacingBetweenSlices": 2.4000000156725,
      "SpecificCharacterSet": "ISO_IR 100",
      "StudyID": "1",
      "StudyTime": "124940.509000",
      "TransmitCoilName": "Body",
      "VariableFlipAngleFlag": "N",
      "WindowCenterWidthExplanation": "Algo1",
      "dBdt": 0.0},
    "slices": {}
  },
  "time": {
    "samples": {
      "AcquisitionNumber": [1, 2, 3, 4, 5, 6, 7, 8, 9, 10, 11, 12, 13, 14, 15, 16, 17, 18, 19, 20, 21, 22, 23, 24, 25, 26, 27, 28, 29, 30, 31, 32, 33, 34, 35, 36, 37, 38, 39, 40, 41, 42, 43, 44, 45, 46, 47, 48, 49, 50, 51, 52, 53, 54, 55, 56, 57, 58, 59, 60, 61, 62, 63, 64, 65, 66, 67, 68, 69, 70, 71, 72, 73, 74, 75, 76, 77, 78, 79, 80, 81, 82, 83, 84, 85, 86, 87, 88, 89, 90, 91, 92, 93, 94, 95, 96, 97, 98, 99, 100, 101, 102, 103, 104, 105, 106, 107, 108, 109, 110, 111, 112, 113, 114, 115, 116, 117, 118, 119, 120, 121, 122, 123, 124, 125],
      "AcquisitionTime": ["133236.577500", "133237.777500", "133238.977500", "133240.177500", "133241.377500", "133242.577500", "133243.777500", "133244.977500", "133246.177500", "133247.377500", "133248.577500", "133249.777500", "133250.977500", "133252.177500", "133253.377500", "133254.577500", "133255.777500", "133256.977500", "133258.177500", "133259.377500", "133300.577500", "133301.777500", "133302.977500", "133304.177500", "133305.377500", "133306.577500", "133307.777500", "133308.977500", "133310.177500", "133311.377500", "133312.577500", "133313.777500", "133314.977500", "133316.177500", "133317.377500", "133318.577500", "133319.777500", "133320.977500", "133322.177500", "133323.377500", "133324.577500", "133325.777500", "133326.977500", "133328.177500", "133329.377500", "133330.577500", "133331.777500", "133332.977500", "133334.177500", "133335.377500", "133336.577500", "133337.777500", "133338.977500", "133340.177500", "133341.377500", "133342.577500", "133343.777500", "133344.977500", "133346.177500", "133347.377500", "133348.577500", "133349.777500", "133350.977500", "133352.177500", "133353.377500", "133354.577500", "133355.777500", "133356.977500", "133358.177500", "133359.377500", "133400.577500", "133401.777500", "133402.977500", "133404.177500", "133405.377500", "133406.577500", "133407.777500", "133408.977500", "133410.177500", "133411.377500", "133412.577500", "133413.777500", "133414.977500", "133416.177500", "133417.377500", "133418.577500", "133419.777500", "133420.977500", "133422.177500", "133423.377500", "133424.577500", "133425.777500", "133426.977500", "133428.177500", "133429.377500", "133430.577500", "133431.777500", "133432.977500", "133434.177500", "133435.377500", "133436.577500", "133437.777500", "133438.977500", "133440.177500", "133441.377500", "133442.577500", "133443.777500", "133444.977500", "133446.177500", "133447.377500", "133448.577500", "133449.777500", "133450.977500", "133452.177500", "133453.377500", "133454.577500", "133455.777500", "133456.977500", "133458.177500", "133459.377500", "133500.577500", "133501.777500", "133502.977500", "133504.177500", "133505.377500"],
      "ContentTime": ["133306.891000", "133306.894000", "133306.896000", "133306.899000", "133306.902000", "133306.904000", "133306.915000", "133306.917000", "133306.920000", "133306.922000", "133306.925000", "133306.928000", "133306.934000", "133306.937000", "133306.940000", "133306.951000", "133306.954000", "133306.956000", "133306.959000", "133306.962000", "133306.964000", "133306.967000", "133306.969000", "133306.972000", "133306.974000", "133346.872000", "133346.875000", "133346.878000", "133346.880000", "133346.883000", "133346.885000", "133346.888000", "133346.890000", "133346.893000", "133346.895000", "133346.898000", "133346.900000", "133346.903000", "133346.911000", "133346.914000", "133346.917000", "133346.919000", "133346.922000", "133346.924000", "133346.927000", "133346.929000", "133346.935000", "133346.938000", "133346.941000", "133346.943000", "133346.946000", "133346.948000", "133346.951000", "133346.953000", "133346.956000", "133346.959000", "133346.961000", "133346.964000", "133426.871000", "133426.874000", "133426.877000", "133426.879000", "133426.891000", "133426.893000", "133426.896000", "133426.898000", "133426.901000", "133426.904000", "133426.906000", "133426.909000", "133426.911000", "133426.914000", "133426.916000", "133426.919000", "133426.921000", "133426.924000", "133426.927000", "133426.929000", "133426.932000", "133426.934000", "133426.937000", "133426.940000", "133426.942000", "133426.945000", "133426.947000", "133426.950000", "133426.952000", "133426.955000", "133426.958000", "133426.960000", "133426.963000", "133506.860000", "133506.864000", "133506.866000", "133506.869000", "133506.872000", "133506.875000", "133506.878000", "133506.883000", "133506.885000", "133506.888000", "133506.891000", "133506.893000", "133506.896000", "133506.899000", "133506.901000", "133506.904000", "133506.907000", "133506.909000", "133506.912000", "133506.914000", "133506.917000", "133506.919000", "133506.922000", "133506.924000", "133506.927000", "133506.930000", "133506.932000", "133506.935000", "133506.938000", "133506.940000", "133506.943000", "133506.945000", "133506.948000", "133506.950000"],
      "InstanceCreationTime": ["133306.891000", "133306.894000", "133306.896000", "133306.899000", "133306.902000", "133306.904000", "133306.915000", "133306.917000", "133306.920000", "133306.922000", "133306.925000", "133306.928000", "133306.934000", "133306.937000", "133306.940000", "133306.951000", "133306.954000", "133306.956000", "133306.959000", "133306.962000", "133306.964000", "133306.967000", "133306.969000", "133306.972000", "133306.974000", "133346.872000", "133346.875000", "133346.878000", "133346.880000", "133346.883000", "133346.885000", "133346.888000", "133346.890000", "133346.893000", "133346.895000", "133346.898000", "133346.900000", "133346.903000", "133346.911000", "133346.914000", "133346.917000", "133346.919000", "133346.922000", "133346.924000", "133346.927000", "133346.929000", "133346.935000", "133346.938000", "133346.941000", "133346.943000", "133346.946000", "133346.948000", "133346.951000", "133346.953000", "133346.956000", "133346.959000", "133346.961000", "133346.964000", "133426.871000", "133426.874000", "133426.877000", "133426.879000", "133426.891000", "133426.893000", "133426.896000", "133426.898000", "133426.901000", "133426.904000", "133426.906000", "133426.909000", "133426.911000", "133426.914000", "133426.916000", "133426.919000", "133426.921000", "133426.924000", "133426.927000", "133426.929000", "133426.932000", "133426.934000", "133426.937000", "133426.940000", "133426.942000", "133426.945000", "133426.947000", "133426.950000", "133426.952000", "133426.955000", "133426.958000", "133426.960000", "133426.963000", "133506.860000", "133506.864000", "133506.866000", "133506.869000", "133506.872000", "133506.875000", "133506.878000", "133506.883000", "133506.885000", "133506.888000", "133506.891000", "133506.893000", "133506.896000", "133506.899000", "133506.901000", "133506.904000", "133506.907000", "133506.909000", "133506.912000", "133506.914000", "133506.917000", "133506.919000", "133506.922000", "133506.924000", "133506.927000", "133506.930000", "133506.932000", "133506.935000", "133506.938000", "133506.940000", "133506.943000", "133506.945000", "133506.948000", "133506.950000"],
      "InstanceNumber": [1, 2, 3, 4, 5, 6, 7, 8, 9, 10, 11, 12, 13, 14, 15, 16, 17, 18, 19, 20, 21, 22, 23, 24, 25, 26, 27, 28, 29, 30, 31, 32, 33, 34, 35, 36, 37, 38, 39, 40, 41, 42, 43, 44, 45, 46, 47, 48, 49, 50, 51, 52, 53, 54, 55, 56, 57, 58, 59, 60, 61, 62, 63, 64, 65, 66, 67, 68, 69, 70, 71, 72, 73, 74, 75, 76, 77, 78, 79, 80, 81, 82, 83, 84, 85, 86, 87, 88, 89, 90, 91, 92, 93, 94, 95, 96, 97, 98, 99, 100, 101, 102, 103, 104, 105, 106, 107, 108, 109, 110, 111, 112, 113, 114, 115, 116, 117, 118, 119, 120, 121, 122, 123, 124, 125],
      "LargestImagePixelValue": [2378, 2294, 2216, 2206, 2184, 2197, 2176, 2194, 2175, 2172, 2171, 2168, 2162, 2132, 2129, 2141, 2144, 2151, 2152, 2151, 2149, 2170, 2142, 2162, 2151, 2167, 2185, 2183, 2183, 2205, 2204, 2197, 2249, 2195, 2164, 2153, 2147, 2136, 2131, 2119, 2124, 2124, 2142, 2118, 2135, 2135, 2147, 2155, 2167, 2157, 2164, 2158, 2166, 2165, 2159, 2166, 2151, 2155, 2145, 2162, 2134, 2142, 2113, 2111, 2111, 2120, 2173, 2151, 2166, 2163, 2151, 2138, 2142, 2149, 2150, 2150, 2149, 2132, 2146, 2153, 2161, 2141, 2158, 2137, 2162, 2139, 2143, 2148, 2152, 2149, 2166, 2163, 2150, 2153, 2149, 2141, 2150, 2167, 2148, 2161, 2171, 2156, 2146, 2121, 2151, 2139, 2153, 2132, 2153, 2141, 2159, 2157, 2152, 2160, 2142, 2149, 2146, 2141, 2147, 2142, 2146, 2138, 2146, 2129, 2141],
      "WindowCenter": [613.0, 610.0, 608.0, 608.0, 608.0, 609.0, 609.0, 609.0, 608.0, 609.0, 609.0, 609.0, 609.0, 608.0, 608.0, 608.0, 607.0, 608.0, 607.0, 606.0, 606.0, 606.0, 606.0, 606.0, 606.0, 606.0, 607.0, 607.0, 607.0, 607.0, 608.0, 608.0, 609.0, 608.0, 609.0, 609.0, 609.0, 608.0, 607.0, 606.0, 605.0, 604.0, 604.0, 603.0, 603.0, 605.0, 606.0, 608.0, 610.0, 611.0, 610.0, 611.0, 610.0, 610.0, 609.0, 609.0, 608.0, 608.0, 608.0, 608.0, 608.0, 607.0, 607.0, 606.0, 606.0, 607.0, 608.0, 608.0, 608.0, 608.0, 607.0, 607.0, 607.0, 607.0, 607.0, 607.0, 607.0, 608.0, 608.0, 609.0, 608.0, 608.0, 607.0, 608.0, 607.0, 607.0, 606.0, 607.0, 608.0, 609.0, 609.0, 609.0, 609.0, 608.0, 607.0, 607.0, 607.0, 607.0, 607.0, 607.0, 608.0, 607.0, 606.0, 607.0, 608.0, 607.0, 607.0, 606.0, 607.0, 607.0, 608.0, 608.0, 607.0, 608.0, 607.0, 607.0, 608.0, 607.0, 607.0, 606.0, 606.0, 606.0, 606.0, 606.0, 606.0],
      "WindowWidth": [1308.0, 1302.0, 1297.0, 1296.0, 1296.0, 1297.0, 1297.0, 1298.0, 1297.0, 1297.0, 1297.0, 1298.0, 1298.0, 1296.0, 1295.0, 1296.0, 1294.0, 1295.0, 1293.0, 1292.0, 1291.0, 1291.0, 1291.0, 1291.0, 1291.0, 1291.0, 1293.0, 1292.0, 1294.0, 1294.0, 1295.0, 1295.0, 1296.0, 1296.0, 1298.0, 1298.0, 1297.0, 1295.0, 1293.0, 1292.0, 1290.0, 1287.0, 1287.0, 1284.0, 1284.0, 1287.0, 1291.0, 1296.0, 1299.0, 1302.0, 1301.0, 1304.0, 1302.0, 1301.0, 1299.0, 1298.0, 1295.0, 1295.0, 1296.0, 1295.0, 1296.0, 1294.0, 1293.0, 1291.0, 1291.0, 1293.0, 1295.0, 1296.0, 1295.0, 1295.0, 1294.0, 1293.0, 1292.0, 1293.0, 1293.0, 1294.0, 1294.0, 1295.0, 1295.0, 1297.0, 1296.0, 1295.0, 1294.0, 1295.0, 1293.0, 1292.0, 1292.0, 1294.0, 1296.0, 1297.0, 1298.0, 1298.0, 1297.0, 1296.0, 1294.0, 1294.0, 1294.0, 1293.0, 1294.0, 1294.0, 1295.0, 1294.0, 1292.0, 1293.0, 1294.0, 1293.0, 1293.0, 1291.0, 1294.0, 1294.0, 1295.0, 1295.0, 1294.0, 1296.0, 1294.0, 1293.0, 1295.0, 1293.0, 1294.0, 1291.0, 1292.0, 1291.0, 1291.0, 1292.0, 1290.0]
    },
    "slices": {}
  }
}