{
  "AcquisitionMatrixPE": 88,
  "AcquisitionNumber": 1,
  "AcquisitionTime": "13:08:30.782500",
  "BandwidthPerPixelPhaseEncode": 19.592,
  "BaseResolution": 88,
  "BodyPartExamined": "BRAIN",
  "ConsistencyInfo": "N4_VE11C_LATEST_20160120",
  "ConversionSoftware": "dcm2niix",
  "ConversionSoftwareVersion": "v1.0.20190902",
  "DerivedVendorReportedEchoSpacing": 0.000580014,
  "DeviceSerialNumber": "67050",
  "DwellTime": 2.6e-06,
  "EchoTime": 0.033,
  "EchoTrainLength": 88,
  "EffectiveEchoSpacing": 0.000580014,
  "FlipAngle": 62,
  "ImageOrientationPatientDICOM": [0.998953, 0.0386617, -0.0244382, -0.039249, 0.99894, -0.0240308],
  "ImageType": [
    "ORIGINAL",
    "PRIMARY",
    "M",
    "ND",
    "MOSAIC"
],
  "ImagingFrequency": 123.251,
  "InPlanePhaseEncodingDirectionDICOM": "COL",
  "InstitutionAddress": "Olive_Street_60_Providence_RI_US_02912",
  "InstitutionName": "BROWN_UNIVERSITY_MRF",
  "InstitutionalDepartmentName": "Department",
  "MRAcquisitionType": "2D",
  "MagneticFieldStrength": 3,
  "Manufacturer": "Siemens",
  "ManufacturersModelName": "Prisma_fit",
  "Modality": "MR",
  "MultibandAccelerationFactor": 4,
  "PartialFourier": 1,
  "PatientPosition": "HFS",
  "PercentPhaseFOV": 100,
  "PhaseEncodingDirection": "j-",
  "PhaseEncodingSteps": 88,
  "PhaseResolution": 1,
  "PixelBandwidth": 2185,
  "ProcedureStepDescription": "ASHENHAV_1222",
  "ProtocolName": "func-bold_task-RDMmotion_run-02",
  "PulseSequenceDetails": "%SiemensSeq%_ep2d_bold",
  "ReceiveCoilActiveElements": "HC1-7",
  "ReceiveCoilName": "HeadNeck_64",
  "ReconMatrixPE": 88,
  "RefLinesPE": 8,
  "RepetitionTime": 1.2,
  "SAR": 0.0486004,
  "ScanOptions": "FS",
  "ScanningSequence": "EP",
  "SequenceName": "_epfid2d1_88",
  "SequenceVariant": "SK",
  "SeriesDescription": "func-bold_task-RDMmotion_run-02",
  "SeriesNumber": 9,
  "ShimSetting": [1753, -9128, 4445, 707, -67, -187, 31, -1],
  "SliceThickness": 2.4,
  "SliceTiming": [0.55, 0, 0.6275, 0.0775, 0.7075, 0.1575, 0.785, 0.235, 0.865, 0.3125, 0.9425, 0.3925, 1.0225, 0.47, 1.1, 0.55, 0, 0.6275, 0.0775, 0.7075, 0.1575, 0.785, 0.235, 0.865, 0.3125, 0.9425, 0.3925, 1.0225, 0.47, 1.1, 0.55, 0, 0.6275, 0.0775, 0.7075, 0.1575, 0.785, 0.235, 0.865, 0.3125, 0.9425, 0.3925, 1.0225, 0.47, 1.1, 0.55, 0, 0.6275, 0.0775, 0.7075, 0.1575, 0.785, 0.235, 0.865, 0.3125, 0.9425, 0.3925, 1.0225, 0.47, 1.1],
  "SoftwareVersions": "syngo_MR_E11",
  "SpacingBetweenSlices": 2.4,
  "StationName": "AWP67050",
  "TaskName": "RDMmotion",
  "TotalReadoutTime": 0.0504612,
  "TxRefAmp": 219.091,
  "dcmmeta_affine": [
    [-2.3952178955078125, -0.09410848468542099, -0.056359704583883286, 112.23524475097656],
    [-0.09270010888576508, 2.39518666267395, -0.05991552397608757, -89.46002960205078],
    [-0.05859607085585594, 0.05761924386024475, 2.398589849472046, -56.61228942871094],
    [0.0, 0.0, 0.0, 1.0]
],
  "dcmmeta_reorient_transform": [
    [0.0, -1.0, 0.0, 87.0],
    [1.0, 0.0, 0.0, 0.0],
    [0.0, 0.0, 1.0, 0.0],
    [0.0, 0.0, 0.0, 1.0]
],
  "dcmmeta_shape": [88, 88, 60, 125],
  "dcmmeta_slice_dim": 2,
  "dcmmeta_version": 0.6,
  "global": {
    "const": {
      "AcquisitionMatrix": [88, 0, 0, 88],
      "AngioFlag": "N",
      "BitsAllocated": 16,
      "BitsStored": 12,
      "BodyPartExamined": "BRAIN",
      "Columns": 704,
      "DeidentificationMethodCodeSequence": [
        {
          "CodeMeaning": "XNAT DicomEdit 6 Script",
          "CodeValue": "3",
          "CodingSchemeDesignator": "XNAT",
          "CodingSchemeVersion": "1.0"}
],
      "EchoNumbers": 1,
      "EchoTime": 33.0,
      "EchoTrainLength": 88,
      "FlipAngle": 62.0,
      "HighBit": 11,
      "ImageOrientationPatient": [0.99895347834848, 0.03866165837903, -0.0244381723303, -0.0392490378536, 0.99894045611404, -0.0240307753983],
      "ImagePositionPatient": [-812.78952617539, -885.19036887744, -15.805099111792],
      "ImageType": [
        "ORIGINAL",
        "PRIMARY",
        "M",
        "ND",
        "MOSAIC"
],
      "ImagedNucleus": "1H",
      "ImagingFrequency": 123.250732,
      "InPlanePhaseEncodingDirection": "COL",
      "MRAcquisitionType": "2D",
      "MagneticFieldStrength": 3.0,
      "Manufacturer": "SIEMENS",
      "ManufacturerModelName": "Prisma_fit",
      "Modality": "MR",
      "NumberOfAverages": 1.0,
      "NumberOfPhaseEncodingSteps": 88,
      "PercentPhaseFieldOfView": 100.0,
      "PercentSampling": 100.0,
      "PerformedProcedureStepStartTime": "124940.610000",
      "PhotometricInterpretation": "MONOCHROME2",
      "PixelBandwidth": 2185.0,
      "PixelRepresentation": 0,
      "PixelSpacing": [2.3977272510529, 2.3977272510529],
      "ProtocolName": "func-bold_task-RDMmotion_run-02",
      "RepetitionTime": 1200.0,
      "Rows": 704,
      "SAR": 0.0486003956527,
      "SamplesPerPixel": 1,
      "ScanOptions": "FS",
      "ScanningSequence": "EP",
      "SequenceName": "*epfid2d1_88",
      "SequenceVariant": "SK",
      "SeriesDescription": "func-bold_task-RDMmotion_run-02",
      "SeriesNumber": 9,
      "SeriesTime": "130854.987000",
      "SliceLocation": -56.981321649144,
      "SliceThickness": 2.4000000953674,
      "SmallestImagePixelValue": 0,
      "SoftwareVersions": "syngo MR E11",
      "SpacingBetweenSlices": 2.4000000156725,
      "SpecificCharacterSet": "ISO_IR 100",
      "StudyID": "1",
      "StudyTime": "124940.509000",
      "TransmitCoilName": "Body",
      "VariableFlipAngleFlag": "N",
      "WindowCenterWidthExplanation": "Algo1",
      "dBdt": 0.0},
    "slices": {}
  },
  "time": {
    "samples": {
      "AcquisitionNumber": [1, 2, 3, 4, 5, 6, 7, 8, 9, 10, 11, 12, 13, 14, 15, 16, 17, 18, 19, 20, 21, 22, 23, 24, 25, 26, 27, 28, 29, 30, 31, 32, 33, 34, 35, 36, 37, 38, 39, 40, 41, 42, 43, 44, 45, 46, 47, 48, 49, 50, 51, 52, 53, 54, 55, 56, 57, 58, 59, 60, 61, 62, 63, 64, 65, 66, 67, 68, 69, 70, 71, 72, 73, 74, 75, 76, 77, 78, 79, 80, 81, 82, 83, 84, 85, 86, 87, 88, 89, 90, 91, 92, 93, 94, 95, 96, 97, 98, 99, 100, 101, 102, 103, 104, 105, 106, 107, 108, 109, 110, 111, 112, 113, 114, 115, 116, 117, 118, 119, 120, 121, 122, 123, 124, 125],
      "AcquisitionTime": ["130830.782500", "130831.982500", "130833.182500", "130834.382500", "130835.582500", "130836.782500", "130837.982500", "130839.182500", "130840.382500", "130841.582500", "130842.782500", "130843.982500", "130845.182500", "130846.382500", "130847.582500", "130848.782500", "130849.982500", "130851.182500", "130852.382500", "130853.582500", "130854.782500", "130855.982500", "130857.182500", "130858.382500", "130859.582500", "130900.782500", "130901.982500", "130903.182500", "130904.382500", "130905.582500", "130906.782500", "130907.982500", "130909.182500", "130910.382500", "130911.582500", "130912.782500", "130913.982500", "130915.182500", "130916.382500", "130917.582500", "130918.782500", "130919.982500", "130921.182500", "130922.382500", "130923.582500", "130924.782500", "130925.982500", "130927.182500", "130928.382500", "130929.582500", "130930.782500", "130931.982500", "130933.182500", "130934.382500", "130935.582500", "130936.782500", "130937.982500", "130939.182500", "130940.382500", "130941.582500", "130942.782500", "130943.982500", "130945.182500", "130946.382500", "130947.582500", "130948.782500", "130949.982500", "130951.182500", "130952.382500", "130953.582500", "130954.782500", "130955.982500", "130957.182500", "130958.382500", "130959.582500", "131000.782500", "131001.982500", "131003.182500", "131004.382500", "131005.582500", "131006.782500", "131007.982500", "131009.182500", "131010.382500", "131011.582500", "131012.782500", "131013.982500", "131015.182500", "131016.382500", "131017.582500", "131018.782500", "131019.982500", "131021.182500", "131022.382500", "131023.582500", "131024.782500", "131025.982500", "131027.182500", "131028.382500", "131029.582500", "131030.782500", "131031.982500", "131033.182500", "131034.382500", "131035.582500", "131036.782500", "131037.982500", "131039.182500", "131040.382500", "131041.582500", "131042.782500", "131043.982500", "131045.182500", "131046.382500", "131047.582500", "131048.782500", "131049.982500", "131051.182500", "131052.382500", "131053.582500", "131054.782500", "131055.982500", "131057.182500", "131058.382500", "131059.582500"],
      "ContentTime": ["130854.991000", "130854.994000", "130854.997000", "130855.000000", "130855.003000", "130855.005000", "130855.008000", "130855.019000", "130855.022000", "130855.024000", "130855.027000", "130855.030000", "130855.032000", "130855.035000", "130855.037000", "130855.040000", "130855.050000", "130855.052000", "130855.055000", "130855.057000", "130934.986000", "130934.989000", "130934.997000", "130935.001000", "130935.004000", "130935.006000", "130935.009000", "130935.011000", "130935.014000", "130935.016000", "130935.019000", "130935.021000", "130935.024000", "130935.026000", "130935.029000", "130935.032000", "130935.034000", "130935.038000", "130935.040000", "130935.043000", "130935.045000", "130935.048000", "130935.051000", "130935.053000", "130935.056000", "130935.058000", "130935.061000", "130935.063000", "130935.066000", "130935.069000", "130935.071000", "130935.074000", "130935.076000", "131014.986000", "131014.989000", "131014.992000", "131014.994000", "131014.997000", "131015.001000", "131015.003000", "131015.006000", "131015.008000", "131015.011000", "131015.013000", "131015.016000", "131015.019000", "131015.021000", "131015.024000", "131015.026000", "131015.029000", "131015.032000", "131015.034000", "131015.037000", "131015.039000", "131015.042000", "131015.044000", "131015.047000", "131015.050000", "131015.052000", "131015.055000", "131015.057000", "131015.060000", "131015.062000", "131015.065000", "131015.067000", "131015.070000", "131054.987000", "131054.989000", "131054.992000", "131054.995000", "131054.997000", "131055.001000", "131055.003000", "131055.006000", "131055.009000", "131055.011000", "131055.014000", "131055.017000", "131055.019000", "131055.022000", "131055.024000", "131055.027000", "131055.029000", "131055.032000", "131055.035000", "131055.044000", "131055.046000", "131055.049000", "131055.051000", "131055.054000", "131055.057000", "131055.059000", "131055.062000", "131055.064000", "131055.067000", "131055.069000", "131055.072000", "131055.075000", "131055.077000", "131055.080000", "131100.802000", "131100.805000", "131100.807000", "131100.810000", "131100.813000"],
      "InstanceCreationTime": ["130854.991000", "130854.994000", "130854.997000", "130855.000000", "130855.003000", "130855.005000", "130855.008000", "130855.019000", "130855.022000", "130855.024000", "130855.027000", "130855.030000", "130855.032000", "130855.035000", "130855.037000", "130855.040000", "130855.050000", "130855.052000", "130855.055000", "130855.057000", "130934.986000", "130934.989000", "130934.997000", "130935.001000", "130935.004000", "130935.006000", "130935.009000", "130935.011000", "130935.014000", "130935.016000", "130935.019000", "130935.021000", "130935.024000", "130935.026000", "130935.029000", "130935.032000", "130935.034000", "130935.038000", "130935.040000", "130935.043000", "130935.045000", "130935.048000", "130935.051000", "130935.053000", "130935.056000", "130935.058000", "130935.061000", "130935.063000", "130935.066000", "130935.069000", "130935.071000", "130935.074000", "130935.076000", "131014.986000", "131014.989000", "131014.992000", "131014.994000", "131014.997000", "131015.001000", "131015.003000", "131015.006000", "131015.008000", "131015.011000", "131015.013000", "131015.016000", "131015.019000", "131015.021000", "131015.024000", "131015.026000", "131015.029000", "131015.032000", "131015.034000", "131015.037000", "131015.039000", "131015.042000", "131015.044000", "131015.047000", "131015.050000", "131015.052000", "131015.055000", "131015.057000", "131015.060000", "131015.062000", "131015.065000", "131015.067000", "131015.070000", "131054.987000", "131054.989000", "131054.992000", "131054.995000", "131054.997000", "131055.001000", "131055.003000", "131055.006000", "131055.009000", "131055.011000", "131055.014000", "131055.017000", "131055.019000", "131055.022000", "131055.024000", "131055.027000", "131055.029000", "131055.032000", "131055.035000", "131055.044000", "131055.046000", "131055.049000", "131055.051000", "131055.054000", "131055.057000", "131055.059000", "131055.062000", "131055.064000", "131055.067000", "131055.069000", "131055.072000", "131055.075000", "131055.077000", "131055.080000", "131100.802000", "131100.805000", "131100.807000", "131100.810000", "131100.813000"],
      "InstanceNumber": [1, 2, 3, 4, 5, 6, 7, 8, 9, 10, 11, 12, 13, 14, 15, 16, 17, 18, 19, 20, 21, 22, 23, 24, 25, 26, 27, 28, 29, 30, 31, 32, 33, 34, 35, 36, 37, 38, 39, 40, 41, 42, 43, 44, 45, 46, 47, 48, 49, 50, 51, 52, 53, 54, 55, 56, 57, 58, 59, 60, 61, 62, 63, 64, 65, 66, 67, 68, 69, 70, 71, 72, 73, 74, 75, 76, 77, 78, 79, 80, 81, 82, 83, 84, 85, 86, 87, 88, 89, 90, 91, 92, 93, 94, 95, 96, 97, 98, 99, 100, 101, 102, 103, 104, 105, 106, 107, 108, 109, 110, 111, 112, 113, 114, 115, 116, 117, 118, 119, 120, 121, 122, 123, 124, 125],
      "LargestImagePixelValue": [2322, 2239, 2183, 2161, 2152, 2130, 2142, 2123, 2119, 2137, 2129, 2138, 2135, 2126, 2118, 2113, 2134, 2136, 2133, 2118, 2142, 2127, 2129, 2113, 2120, 2113, 2121, 2109, 2116, 2112, 2121, 2113, 2122, 2121, 2122, 2127, 2127, 2121, 2118, 2126, 2125, 2120, 2127, 2127, 2113, 2123, 2114, 2123, 2114, 2113, 2110, 2122, 2108, 2114, 2115, 2120, 2118, 2135, 2137, 2122, 2125, 2106, 2122, 2100, 2106, 2102, 2115, 2118, 2118, 2103, 2117, 2112, 2122, 2105, 2111, 2121, 2111, 2123, 2130, 2122, 2124, 2136, 2132, 2130, 2119, 2126, 2120, 2120, 2126, 2144, 2131, 2130, 2129, 2131, 2124, 2129, 2131, 2120, 2135, 2125, 2124, 2113, 2123, 2118, 2125, 2120, 2122, 2120, 2125, 2112, 2124, 2113, 2113, 2115, 2115, 2136, 2120, 2128, 2110, 2108, 2126, 2112, 2135, 2107, 2131],
      "WindowCenter": [616.0, 613.0, 610.0, 610.0, 609.0, 609.0, 609.0, 609.0, 609.0, 608.0, 607.0, 607.0, 607.0, 607.0, 606.0, 606.0, 607.0, 607.0, 607.0, 607.0, 607.0, 606.0, 607.0, 606.0, 606.0, 607.0, 607.0, 606.0, 606.0, 606.0, 605.0, 606.0, 606.0, 606.0, 606.0, 606.0, 606.0, 607.0, 607.0, 606.0, 606.0, 606.0, 606.0, 606.0, 606.0, 606.0, 606.0, 606.0, 606.0, 606.0, 606.0, 606.0, 605.0, 606.0, 606.0, 606.0, 607.0, 607.0, 606.0, 606.0, 606.0, 606.0, 606.0, 605.0, 605.0, 605.0, 605.0, 606.0, 606.0, 607.0, 607.0, 608.0, 607.0, 607.0, 608.0, 607.0, 608.0, 608.0, 608.0, 607.0, 607.0, 607.0, 607.0, 607.0, 607.0, 606.0, 607.0, 607.0, 606.0, 607.0, 607.0, 607.0, 607.0, 607.0, 607.0, 607.0, 607.0, 607.0, 607.0, 606.0, 606.0, 606.0, 606.0, 606.0, 607.0, 606.0, 607.0, 607.0, 607.0, 607.0, 607.0, 606.0, 606.0, 606.0, 606.0, 606.0, 606.0, 606.0, 606.0, 606.0, 607.0, 607.0, 607.0, 607.0, 608.0],
      "WindowWidth": [1315.0, 1307.0, 1301.0, 1300.0, 1299.0, 1299.0, 1298.0, 1298.0, 1297.0, 1296.0, 1294.0, 1294.0, 1293.0, 1293.0, 1292.0, 1292.0, 1292.0, 1293.0, 1292.0, 1293.0, 1292.0, 1292.0, 1292.0, 1291.0, 1291.0, 1292.0, 1292.0, 1291.0, 1291.0, 1290.0, 1289.0, 1290.0, 1291.0, 1290.0, 1291.0, 1292.0, 1292.0, 1292.0, 1293.0, 1292.0, 1292.0, 1291.0, 1291.0, 1290.0, 1290.0, 1290.0, 1290.0, 1290.0, 1290.0, 1291.0, 1291.0, 1290.0, 1289.0, 1290.0, 1291.0, 1291.0, 1292.0, 1292.0, 1292.0, 1291.0, 1291.0, 1290.0, 1290.0, 1289.0, 1288.0, 1288.0, 1289.0, 1290.0, 1290.0, 1292.0, 1293.0, 1295.0, 1294.0, 1294.0, 1295.0, 1295.0, 1295.0, 1295.0, 1295.0, 1293.0, 1293.0, 1293.0, 1293.0, 1294.0, 1293.0, 1292.0, 1293.0, 1293.0, 1292.0, 1292.0, 1294.0, 1293.0, 1293.0, 1294.0, 1293.0, 1293.0, 1293.0, 1292.0, 1293.0, 1292.0, 1292.0, 1292.0, 1292.0, 1291.0, 1292.0, 1292.0, 1293.0, 1293.0, 1293.0, 1293.0, 1292.0, 1292.0, 1292.0, 1291.0, 1291.0, 1290.0, 1290.0, 1290.0, 1291.0, 1291.0, 1293.0, 1293.0, 1293.0, 1294.0, 1294.0]
    },
    "slices": {}
  }
}