{
  "AcquisitionMatrixPE": 88,
  "AcquisitionNumber": 1,
  "AcquisitionTime": "13:47:48.847500",
  "BandwidthPerPixelPhaseEncode": 19.592,
  "BaseResolution": 88,
  "BodyPartExamined": "BRAIN",
  "ConsistencyInfo": "N4_VE11C_LATEST_20160120",
  "ConversionSoftware": "dcm2niix",
  "ConversionSoftwareVersion": "v1.0.20190902",
  "DerivedVendorReportedEchoSpacing": 0.000580014,
  "DeviceSerialNumber": "67050",
  "DwellTime": 2.6e-06,
  "EchoTime": 0.033,
  "EchoTrainLength": 88,
  "EffectiveEchoSpacing": 0.000580014,
  "FlipAngle": 62,
  "ImageOrientationPatientDICOM": [0.998953, 0.0386617, -0.0244382, -0.039249, 0.99894, -0.0240308],
  "ImageType": [
    "ORIGINAL",
    "PRIMARY",
    "M",
    "ND",
    "MOSAIC"
],
  "ImagingFrequency": 123.251,
  "InPlanePhaseEncodingDirectionDICOM": "COL",
  "InstitutionAddress": "Olive_Street_60_Providence_RI_US_02912",
  "InstitutionName": "BROWN_UNIVERSITY_MRF",
  "InstitutionalDepartmentName": "Department",
  "MRAcquisitionType": "2D",
  "MagneticFieldStrength": 3,
  "Manufacturer": "Siemens",
  "ManufacturersModelName": "Prisma_fit",
  "Modality": "MR",
  "MultibandAccelerationFactor": 4,
  "PartialFourier": 1,
  "PatientPosition": "HFS",
  "PercentPhaseFOV": 100,
  "PhaseEncodingDirection": "j-",
  "PhaseEncodingSteps": 88,
  "PhaseResolution": 1,
  "PixelBandwidth": 2185,
  "ProcedureStepDescription": "ASHENHAV_1222",
  "ProtocolName": "func-bold_task-RDMcolor_run-05",
  "PulseSequenceDetails": "%SiemensSeq%_ep2d_bold",
  "ReceiveCoilActiveElements": "HC1-7",
  "ReceiveCoilName": "HeadNeck_64",
  "ReconMatrixPE": 88,
  "RefLinesPE": 8,
  "RepetitionTime": 1.2,
  "SAR": 0.0490988,
  "ScanOptions": "FS",
  "ScanningSequence": "EP",
  "SequenceName": "_epfid2d1_88",
  "SequenceVariant": "SK",
  "SeriesDescription": "func-bold_task-RDMcolor_run-05",
  "SeriesNumber": 16,
  "ShimSetting": [1753, -9128, 4445, 707, -67, -187, 31, -1],
  "SliceThickness": 2.4,
  "SliceTiming": [0.55, 0, 0.63, 0.08, 0.7075, 0.1575, 0.7875, 0.2375, 0.865, 0.315, 0.945, 0.395, 1.0225, 0.4725, 1.1025, 0.55, 0, 0.63, 0.08, 0.7075, 0.1575, 0.7875, 0.2375, 0.865, 0.315, 0.945, 0.395, 1.0225, 0.4725, 1.1025, 0.55, 0, 0.63, 0.08, 0.7075, 0.1575, 0.7875, 0.2375, 0.865, 0.315, 0.945, 0.395, 1.0225, 0.4725, 1.1025, 0.55, 0, 0.63, 0.08, 0.7075, 0.1575, 0.7875, 0.2375, 0.865, 0.315, 0.945, 0.395, 1.0225, 0.4725, 1.1025],
  "SoftwareVersions": "syngo_MR_E11",
  "SpacingBetweenSlices": 2.4,
  "StationName": "AWP67050",
  "TaskName": "RDMcolor",
  "TotalReadoutTime": 0.0504612,
  "TxRefAmp": 219.091,
  "dcmmeta_affine": [
    [-2.3952178955078125, -0.09410848468542099, -0.056359704583883286, 112.23524475097656],
    [-0.09270010888576508, 2.39518666267395, -0.05991552397608757, -89.46002960205078],
    [-0.05859607085585594, 0.05761924386024475, 2.398589849472046, -56.61228942871094],
    [0.0, 0.0, 0.0, 1.0]
],
  "dcmmeta_reorient_transform": [
    [0.0, -1.0, 0.0, 87.0],
    [1.0, 0.0, 0.0, 0.0],
    [0.0, 0.0, 1.0, 0.0],
    [0.0, 0.0, 0.0, 1.0]
],
  "dcmmeta_shape": [88, 88, 60, 392],
  "dcmmeta_slice_dim": 2,
  "dcmmeta_version": 0.6,
  "global": {
    "const": {
      "AcquisitionMatrix": [88, 0, 0, 88],
      "AngioFlag": "N",
      "BitsAllocated": 16,
      "BitsStored": 12,
      "BodyPartExamined": "BRAIN",
      "Columns": 704,
      "DeidentificationMethodCodeSequence": [
        {
          "CodeMeaning": "XNAT DicomEdit 6 Script",
          "CodeValue": "3",
          "CodingSchemeDesignator": "XNAT",
          "CodingSchemeVersion": "1.0"}
],
      "EchoNumbers": 1,
      "EchoTime": 33.0,
      "EchoTrainLength": 88,
      "FlipAngle": 62.0,
      "HighBit": 11,
      "ImageOrientationPatient": [0.99895347834848, 0.03866165837903, -0.0244381723303, -0.0392490378536, 0.99894045611404, -0.0240307753983],
      "ImagePositionPatient": [-812.78952617539, -885.19036887744, -15.805099111792],
      "ImageType": [
        "ORIGINAL",
        "PRIMARY",
        "M",
        "ND",
        "MOSAIC"
],
      "ImagedNucleus": "1H",
      "ImagingFrequency": 123.250736,
      "InPlanePhaseEncodingDirection": "COL",
      "MRAcquisitionType": "2D",
      "MagneticFieldStrength": 3.0,
      "Manufacturer": "SIEMENS",
      "ManufacturerModelName": "Prisma_fit",
      "Modality": "MR",
      "NumberOfAverages": 1.0,
      "NumberOfPhaseEncodingSteps": 88,
      "PercentPhaseFieldOfView": 100.0,
      "PercentSampling": 100.0,
      "PerformedProcedureStepStartTime": "124940.610000",
      "PhotometricInterpretation": "MONOCHROME2",
      "PixelBandwidth": 2185.0,
      "PixelRepresentation": 0,
      "PixelSpacing": [2.3977272510529, 2.3977272510529],
      "ProtocolName": "func-bold_task-RDMcolor_run-05",
      "RepetitionTime": 1200.0,
      "Rows": 704,
      "SAR": 0.04909876831772,
      "SamplesPerPixel": 1,
      "ScanOptions": "FS",
      "ScanningSequence": "EP",
      "SequenceName": "*epfid2d1_88",
      "SequenceVariant": "SK",
      "SeriesDescription": "func-bold_task-RDMcolor_run-05",
      "SeriesNumber": 16,
      "SeriesTime": "134826.871000",
      "SliceLocation": -56.981321649144,
      "SliceThickness": 2.4000000953674,
      "SmallestImagePixelValue": 0,
      "SoftwareVersions": "syngo MR E11",
      "SpacingBetweenSlices": 2.4000000156725,
      "SpecificCharacterSet": "ISO_IR 100",
      "StudyID": "1",
      "StudyTime": "124940.509000",
      "TransmitCoilName": "Body",
      "VariableFlipAngleFlag": "N",
      "WindowCenterWidthExplanation": "Algo1",
      "dBdt": 0.0},
    "slices": {}
  },
  "time": {
    "samples": {
      "AcquisitionNumber": [1, 2, 3, 4, 5, 6, 7, 8, 9, 10, 11, 12, 13, 14, 15, 16, 17, 18, 19, 20, 21, 22, 23, 24, 25, 26, 27, 28, 29, 30, 31, 32, 33, 34, 35, 36, 37, 38, 39, 40, 41, 42, 43, 44, 45, 46, 47, 48, 49, 50, 51, 52, 53, 54, 55, 56, 57, 58, 59, 60, 61, 62, 63, 64, 65, 66, 67, 68, 69, 70, 71, 72, 73, 74, 75, 76, 77, 78, 79, 80, 81, 82, 83, 84, 85, 86, 87, 88, 89, 90, 91, 92, 93, 94, 95, 96, 97, 98, 99, 100, 101, 102, 103, 104, 105, 106, 107, 108, 109, 110, 111, 112, 113, 114, 115, 116, 117, 118, 119, 120, 121, 122, 123, 124, 125, 126, 127, 128, 129, 130, 131, 132, 133, 134, 135, 136, 137, 138, 139, 140, 141, 142, 143, 144, 145, 146, 147, 148, 149, 150, 151, 152, 153, 154, 155, 156, 157, 158, 159, 160, 161, 162, 163, 164, 165, 166, 167, 168, 169, 170, 171, 172, 173, 174, 175, 176, 177, 178, 179, 180, 181, 182, 183, 184, 185, 186, 187, 188, 189, 190, 191, 192, 193, 194, 195, 196, 197, 198, 199, 200, 201, 202, 203, 204, 205, 206, 207, 208, 209, 210, 211, 212, 213, 214, 215, 216, 217, 218, 219, 220, 221, 222, 223, 224, 225, 226, 227, 228, 229, 230, 231, 232, 233, 234, 235, 236, 237, 238, 239, 240, 241, 242, 243, 244, 245, 246, 247, 248, 249, 250, 251, 252, 253, 254, 255, 256, 257, 258, 259, 260, 261, 262, 263, 264, 265, 266, 267, 268, 269, 270, 271, 272, 273, 274, 275, 276, 277, 278, 279, 280, 281, 282, 283, 284, 285, 286, 287, 288, 289, 290, 291, 292, 293, 294, 295, 296, 297, 298, 299, 300, 301, 302, 303, 304, 305, 306, 307, 308, 309, 310, 311, 312, 313, 314, 315, 316, 317, 318, 319, 320, 321, 322, 323, 324, 325, 326, 327, 328, 329, 330, 331, 332, 333, 334, 335, 336, 337, 338, 339, 340, 341, 342, 343, 344, 345, 346, 347, 348, 349, 350, 351, 352, 353, 354, 355, 356, 357, 358, 359, 360, 361, 362, 363, 364, 365, 366, 367, 368, 369, 370, 371, 372, 373, 374, 375, 376, 377, 378, 379, 380, 381, 382, 383, 384, 385, 386, 387, 388, 389, 390, 391, 392],
      "AcquisitionTime": ["134748.847500", "134750.047500", "134751.247500", "134752.447500", "134753.647500", "134754.847500", "134756.047500", "134757.247500", "134758.447500", "134759.647500", "134800.847500", "134802.047500", "134803.247500", "134804.447500", "134805.647500", "134806.847500", "134808.047500", "134809.247500", "134810.447500", "134811.647500", "134812.847500", "134814.047500", "134815.247500", "134816.447500", "134817.647500", "134818.847500", "134820.047500", "134821.247500", "134822.447500", "134823.647500", "134824.847500", "134826.047500", "134827.247500", "134828.447500", "134829.647500", "134830.847500", "134832.047500", "134833.247500", "134834.447500", "134835.647500", "134836.847500", "134838.047500", "134839.247500", "134840.447500", "134841.647500", "134842.847500", "134844.047500", "134845.247500", "134846.447500", "134847.647500", "134848.847500", "134850.047500", "134851.247500", "134852.447500", "134853.647500", "134854.847500", "134856.047500", "134857.247500", "134858.447500", "134859.647500", "134900.847500", "134902.047500", "134903.247500", "134904.447500", "134905.647500", "134906.847500", "134908.047500", "134909.247500", "134910.447500", "134911.647500", "134912.847500", "134914.047500", "134915.247500", "134916.447500", "134917.647500", "134918.847500", "134920.047500", "134921.247500", "134922.447500", "134923.647500", "134924.847500", "134926.047500", "134927.247500", "134928.447500", "134929.647500", "134930.847500", "134932.047500", "134933.247500", "134934.447500", "134935.647500", "134936.847500", "134938.047500", "134939.247500", "134940.447500", "134941.647500", "134942.847500", "134944.047500", "134945.247500", "134946.447500", "134947.647500", "134948.847500", "134950.047500", "134951.247500", "134952.447500", "134953.647500", "134954.847500", "134956.047500", "134957.247500", "134958.447500", "134959.647500", "135000.847500", "135002.047500", "135003.247500", "135004.447500", "135005.647500", "135006.847500", "135008.047500", "135009.247500", "135010.447500", "135011.647500", "135012.847500", "135014.047500", "135015.247500", "135016.447500", "135017.647500", "135018.847500", "135020.047500", "135021.247500", "135022.447500", "135023.647500", "135024.847500", "135026.047500", "135027.247500", "135028.447500", "135029.647500", "135030.847500", "135032.047500", "135033.247500", "135034.447500", "135035.647500", "135036.847500", "135038.047500", "135039.247500", "135040.447500", "135041.647500", "135042.847500", "135044.047500", "135045.247500", "135046.447500", "135047.647500", "135048.847500", "135050.047500", "135051.247500", "135052.447500", "135053.647500", "135054.847500", "135056.047500", "135057.247500", "135058.447500", "135059.647500", "135100.847500", "135102.047500", "135103.247500", "135104.447500", "135105.647500", "135106.847500", "135108.047500", "135109.247500", "135110.447500", "135111.647500", "135112.847500", "135114.047500", "135115.247500", "135116.447500", "135117.647500", "135118.847500", "135120.047500", "135121.247500", "135122.447500", "135123.647500", "135124.847500", "135126.047500", "135127.247500", "135128.447500", "135129.647500", "135130.847500", "135132.047500", "135133.247500", "135134.447500", "135135.647500", "135136.847500", "135138.047500", "135139.247500", "135140.447500", "135141.647500", "135142.847500", "135144.047500", "135145.247500", "135146.447500", "135147.647500", "135148.847500", "135150.047500", "135151.247500", "135152.447500", "135153.647500", "135154.847500", "135156.047500", "135157.247500", "135158.447500", "135159.647500", "135200.847500", "135202.047500", "135203.247500", "135204.447500", "135205.647500", "135206.847500", "135208.047500", "135209.247500", "135210.447500", "135211.647500", "135212.847500", "135214.047500", "135215.247500", "135216.447500", "135217.647500", "135218.847500", "135220.047500", "135221.247500", "135222.447500", "135223.647500", "135224.847500", "135226.047500", "135227.247500", "135228.447500", "135229.647500", "135230.847500", "135232.047500", "135233.247500", "135234.447500", "135235.647500", "135236.847500", "135238.047500", "135239.247500", "135240.447500", "135241.647500", "135242.847500", "135244.047500", "135245.247500", "135246.447500", "135247.647500", "135248.847500", "135250.047500", "135251.247500", "135252.447500", "135253.647500", "135254.847500", "135256.047500", "135257.247500", "135258.447500", "135259.647500", "135300.847500", "135302.047500", "135303.247500", "135304.447500", "135305.647500", "135306.847500", "135308.047500", "135309.247500", "135310.447500", "135311.647500", "135312.847500", "135314.047500", "135315.247500", "135316.447500", "135317.647500", "135318.847500", "135320.047500", "135321.247500", "135322.447500", "135323.647500", "135324.847500", "135326.047500", "135327.247500", "135328.447500", "135329.647500", "135330.847500", "135332.047500", "135333.247500", "135334.447500", "135335.647500", "135336.847500", "135338.047500", "135339.247500", "135340.447500", "135341.647500", "135342.847500", "135344.047500", "135345.247500", "135346.447500", "135347.647500", "135348.847500", "135350.047500", "135351.247500", "135352.447500", "135353.647500", "135354.847500", "135356.047500", "135357.247500", "135358.447500", "135359.647500", "135400.847500", "135402.047500", "135403.247500", "135404.447500", "135405.647500", "135406.847500", "135408.047500", "135409.247500", "135410.447500", "135411.647500", "135412.847500", "135414.047500", "135415.247500", "135416.447500", "135417.647500", "135418.847500", "135420.047500", "135421.247500", "135422.447500", "135423.647500", "135424.847500", "135426.047500", "135427.247500", "135428.447500", "135429.647500", "135430.847500", "135432.047500", "135433.247500", "135434.447500", "135435.647500", "135436.847500", "135438.047500", "135439.247500", "135440.447500", "135441.647500", "135442.847500", "135444.047500", "135445.247500", "135446.447500", "135447.647500", "135448.847500", "135450.047500", "135451.247500", "135452.447500", "135453.647500", "135454.847500", "135456.047500", "135457.247500", "135458.447500", "135459.647500", "135500.847500", "135502.047500", "135503.247500", "135504.447500", "135505.647500", "135506.847500", "135508.047500", "135509.247500", "135510.447500", "135511.647500", "135512.847500", "135514.047500", "135515.247500", "135516.447500", "135517.647500", "135518.847500", "135520.047500", "135521.247500", "135522.447500", "135523.647500", "135524.847500", "135526.047500", "135527.247500", "135528.447500", "135529.647500", "135530.847500", "135532.047500", "135533.247500", "135534.447500", "135535.647500", "135536.847500", "135538.047500"],
      "ContentTime": ["134826.875000", "134826.878000", "134826.881000", "134826.883000", "134826.887000", "134826.890000", "134826.892000", "134826.895000", "134826.897000", "134826.900000", "134826.902000", "134826.905000", "134826.907000", "134826.910000", "134826.913000", "134826.915000", "134826.918000", "134826.921000", "134826.923000", "134826.926000", "134826.928000", "134826.931000", "134826.933000", "134826.936000", "134826.938000", "134826.941000", "134826.944000", "134826.946000", "134826.949000", "134826.951000", "134826.954000", "134906.872000", "134906.875000", "134906.877000", "134906.880000", "134906.882000", "134906.885000", "134906.887000", "134906.890000", "134906.893000", "134906.895000", "134906.898000", "134906.900000", "134906.908000", "134906.911000", "134906.913000", "134906.916000", "134906.919000", "134906.921000", "134906.924000", "134906.927000", "134906.929000", "134906.932000", "134906.934000", "134906.937000", "134906.940000", "134906.942000", "134906.945000", "134906.947000", "134906.950000", "134906.953000", "134906.955000", "134906.958000", "134906.960000", "134946.871000", "134946.874000", "134946.877000", "134946.880000", "134946.882000", "134946.885000", "134946.887000", "134946.890000", "134946.892000", "134946.895000", "134946.897000", "134946.900000", "134946.903000", "134946.905000", "134946.908000", "134946.910000", "134946.913000", "134946.915000", "134946.918000", "134946.921000", "134946.923000", "134946.926000", "134946.928000", "134946.931000", "134946.933000", "134946.936000", "134946.939000", "134946.958000", "134946.960000", "134946.963000", "134946.966000", "134946.968000", "134946.971000", "134946.974000", "135026.872000", "135026.874000", "135026.877000", "135026.880000", "135026.882000", "135026.885000", "135026.887000", "135026.890000", "135026.893000", "135026.895000", "135026.898000", "135026.900000", "135026.903000", "135026.905000", "135026.908000", "135026.911000", "135026.913000", "135026.916000", "135026.918000", "135026.921000", "135026.924000", "135026.926000", "135026.929000", "135026.931000", "135026.934000", "135026.936000", "135026.939000", "135026.941000", "135026.944000", "135026.947000", "135026.949000", "135026.952000", "135026.954000", "135106.871000", "135106.874000", "135106.876000", "135106.879000", "135106.881000", "135106.884000", "135106.886000", "135106.889000", "135106.891000", "135106.894000", "135106.896000", "135106.899000", "135106.902000", "135106.905000", "135106.907000", "135106.910000", "135106.912000", "135106.915000", "135106.917000", "135106.920000", "135106.922000", "135106.925000", "135106.928000", "135106.930000", "135106.933000", "135106.935000", "135106.938000", "135106.940000", "135106.943000", "135106.946000", "135106.948000", "135106.951000", "135106.953000", "135146.872000", "135146.874000", "135146.877000", "135146.879000", "135146.882000", "135146.885000", "135146.887000", "135146.890000", "135146.892000", "135146.895000", "135146.897000", "135146.900000", "135146.903000", "135146.905000", "135146.908000", "135146.910000", "135146.913000", "135146.916000", "135146.918000", "135146.921000", "135146.924000", "135146.926000", "135146.929000", "135146.931000", "135146.934000", "135146.957000", "135146.959000", "135146.962000", "135146.964000", "135146.967000", "135146.969000", "135146.972000", "135146.975000", "135146.977000", "135226.872000", "135226.874000", "135226.877000", "135226.879000", "135226.882000", "135226.885000", "135226.887000", "135226.890000", "135226.893000", "135226.895000", "135226.898000", "135226.900000", "135226.903000", "135226.906000", "135226.908000", "135226.911000", "135226.914000", "135226.916000", "135226.919000", "135226.921000", "135226.924000", "135226.927000", "135226.929000", "135226.932000", "135226.934000", "135226.937000", "135226.939000", "135226.946000", "135226.949000", "135226.951000", "135226.954000", "135226.956000", "135226.959000", "135306.871000", "135306.873000", "135306.876000", "135306.878000", "135306.882000", "135306.884000", "135306.895000", "135306.898000", "135306.900000", "135306.903000", "135306.913000", "135306.915000", "135306.918000", "135306.921000", "135306.923000", "135306.926000", "135306.928000", "135306.931000", "135306.934000", "135306.936000", "135306.939000", "135306.941000", "135306.944000", "135306.946000", "135306.949000", "135306.952000", "135306.954000", "135306.957000", "135306.959000", "135306.962000", "135306.964000", "135306.967000", "135306.970000", "135346.871000", "135346.874000", "135346.877000", "135346.879000", "135346.882000", "135346.884000", "135346.887000", "135346.890000", "135346.893000", "135346.895000", "135346.898000", "135346.901000", "135346.903000", "135346.906000", "135346.908000", "135346.911000", "135346.913000", "135346.916000", "135346.918000", "135346.921000", "135346.923000", "135346.926000", "135346.929000", "135346.931000", "135346.947000", "135346.950000", "135346.952000", "135346.955000", "135346.957000", "135346.960000", "135346.962000", "135346.965000", "135346.967000", "135346.970000", "135426.879000", "135426.882000", "135426.893000", "135427.269000", "135427.272000", "135427.275000", "135427.277000", "135427.280000", "135427.282000", "135427.285000", "135427.288000", "135427.290000", "135427.293000", "135427.295000", "135427.298000", "135427.301000", "135427.317000", "135427.320000", "135427.322000", "135427.325000", "135427.327000", "135427.330000", "135427.333000", "135427.335000", "135427.338000", "135427.340000", "135427.343000", "135427.345000", "135427.348000", "135427.350000", "135427.353000", "135427.356000", "135427.358000", "135506.871000", "135506.874000", "135506.877000", "135506.893000", "135506.895000", "135506.898000", "135506.901000", "135506.903000", "135506.906000", "135506.908000", "135506.912000", "135506.914000", "135506.917000", "135506.920000", "135506.923000", "135506.925000", "135506.928000", "135506.931000", "135506.933000", "135506.936000", "135506.938000", "135506.941000", "135506.944000", "135506.946000", "135506.949000", "135506.952000", "135506.955000", "135506.957000", "135506.960000", "135506.962000", "135506.965000", "135506.967000", "135506.970000", "135539.718000", "135539.735000", "135539.738000", "135539.741000", "135539.743000", "135539.746000", "135539.749000", "135539.752000", "135539.755000", "135539.757000", "135539.760000", "135539.763000", "135539.766000", "135539.769000", "135539.771000", "135539.774000", "135539.777000", "135539.780000", "135539.782000", "135539.785000", "135539.788000", "135539.790000", "135539.793000", "135539.796000", "135539.799000", "135539.802000", "135539.805000", "135539.808000"],
      "InstanceCreationTime": ["134826.875000", "134826.878000", "134826.881000", "134826.883000", "134826.887000", "134826.890000", "134826.892000", "134826.895000", "134826.897000", "134826.900000", "134826.902000", "134826.905000", "134826.907000", "134826.910000", "134826.913000", "134826.915000", "134826.918000", "134826.921000", "134826.923000", "134826.926000", "134826.928000", "134826.931000", "134826.933000", "134826.936000", "134826.938000", "134826.941000", "134826.944000", "134826.946000", "134826.949000", "134826.951000", "134826.954000", "134906.872000", "134906.875000", "134906.877000", "134906.880000", "134906.882000", "134906.885000", "134906.887000", "134906.890000", "134906.893000", "134906.895000", "134906.898000", "134906.900000", "134906.908000", "134906.911000", "134906.913000", "134906.916000", "134906.919000", "134906.921000", "134906.924000", "134906.927000", "134906.929000", "134906.932000", "134906.934000", "134906.937000", "134906.940000", "134906.942000", "134906.945000", "134906.947000", "134906.950000", "134906.953000", "134906.955000", "134906.958000", "134906.960000", "134946.871000", "134946.874000", "134946.877000", "134946.880000", "134946.882000", "134946.885000", "134946.887000", "134946.890000", "134946.892000", "134946.895000", "134946.897000", "134946.900000", "134946.903000", "134946.905000", "134946.908000", "134946.910000", "134946.913000", "134946.915000", "134946.918000", "134946.921000", "134946.923000", "134946.926000", "134946.928000", "134946.931000", "134946.933000", "134946.936000", "134946.939000", "134946.958000", "134946.960000", "134946.963000", "134946.966000", "134946.968000", "134946.971000", "134946.974000", "135026.872000", "135026.874000", "135026.877000", "135026.880000", "135026.882000", "135026.885000", "135026.887000", "135026.890000", "135026.893000", "135026.895000", "135026.898000", "135026.900000", "135026.903000", "135026.905000", "135026.908000", "135026.911000", "135026.913000", "135026.916000", "135026.918000", "135026.921000", "135026.924000", "135026.926000", "135026.929000", "135026.931000", "135026.934000", "135026.936000", "135026.939000", "135026.941000", "135026.944000", "135026.947000", "135026.949000", "135026.952000", "135026.954000", "135106.871000", "135106.874000", "135106.876000", "135106.879000", "135106.881000", "135106.884000", "135106.886000", "135106.889000", "135106.891000", "135106.894000", "135106.896000", "135106.899000", "135106.902000", "135106.905000", "135106.907000", "135106.910000", "135106.912000", "135106.915000", "135106.917000", "135106.920000", "135106.922000", "135106.925000", "135106.928000", "135106.930000", "135106.933000", "135106.935000", "135106.938000", "135106.940000", "135106.943000", "135106.946000", "135106.948000", "135106.951000", "135106.953000", "135146.872000", "135146.874000", "135146.877000", "135146.879000", "135146.882000", "135146.885000", "135146.887000", "135146.890000", "135146.892000", "135146.895000", "135146.897000", "135146.900000", "135146.903000", "135146.905000", "135146.908000", "135146.910000", "135146.913000", "135146.916000", "135146.918000", "135146.921000", "135146.924000", "135146.926000", "135146.929000", "135146.931000", "135146.934000", "135146.957000", "135146.959000", "135146.962000", "135146.964000", "135146.967000", "135146.969000", "135146.972000", "135146.975000", "135146.977000", "135226.872000", "135226.874000", "135226.877000", "135226.879000", "135226.882000", "135226.885000", "135226.887000", "135226.890000", "135226.893000", "135226.895000", "135226.898000", "135226.900000", "135226.903000", "135226.906000", "135226.908000", "135226.911000", "135226.914000", "135226.916000", "135226.919000", "135226.921000", "135226.924000", "135226.927000", "135226.929000", "135226.932000", "135226.934000", "135226.937000", "135226.939000", "135226.946000", "135226.949000", "135226.951000", "135226.954000", "135226.956000", "135226.959000", "135306.871000", "135306.873000", "135306.876000", "135306.878000", "135306.882000", "135306.884000", "135306.895000", "135306.898000", "135306.900000", "135306.903000", "135306.913000", "135306.915000", "135306.918000", "135306.921000", "135306.923000", "135306.926000", "135306.928000", "135306.931000", "135306.934000", "135306.936000", "135306.939000", "135306.941000", "135306.944000", "135306.946000", "135306.949000", "135306.952000", "135306.954000", "135306.957000", "135306.959000", "135306.962000", "135306.964000", "135306.967000", "135306.970000", "135346.871000", "135346.874000", "135346.877000", "135346.879000", "135346.882000", "135346.884000", "135346.887000", "135346.890000", "135346.893000", "135346.895000", "135346.898000", "135346.901000", "135346.903000", "135346.906000", "135346.908000", "135346.911000", "135346.913000", "135346.916000", "135346.918000", "135346.921000", "135346.923000", "135346.926000", "135346.929000", "135346.931000", "135346.947000", "135346.950000", "135346.952000", "135346.955000", "135346.957000", "135346.960000", "135346.962000", "135346.965000", "135346.967000", "135346.970000", "135426.879000", "135426.882000", "135426.893000", "135427.269000", "135427.272000", "135427.275000", "135427.277000", "135427.280000", "135427.282000", "135427.285000", "135427.288000", "135427.290000", "135427.293000", "135427.295000", "135427.298000", "135427.301000", "135427.317000", "135427.320000", "135427.322000", "135427.325000", "135427.327000", "135427.330000", "135427.333000", "135427.335000", "135427.338000", "135427.340000", "135427.343000", "135427.345000", "135427.348000", "135427.350000", "135427.353000", "135427.356000", "135427.358000", "135506.871000", "135506.874000", "135506.877000", "135506.893000", "135506.895000", "135506.898000", "135506.901000", "135506.903000", "135506.906000", "135506.908000", "135506.912000", "135506.914000", "135506.917000", "135506.920000", "135506.923000", "135506.925000", "135506.928000", "135506.931000", "135506.933000", "135506.936000", "135506.938000", "135506.941000", "135506.944000", "135506.946000", "135506.949000", "135506.952000", "135506.955000", "135506.957000", "135506.960000", "135506.962000", "135506.965000", "135506.967000", "135506.970000", "135539.718000", "135539.735000", "135539.738000", "135539.741000", "135539.743000", "135539.746000", "135539.749000", "135539.752000", "135539.755000", "135539.757000", "135539.760000", "135539.763000", "135539.766000", "135539.769000", "135539.771000", "135539.774000", "135539.777000", "135539.780000", "135539.782000", "135539.785000", "135539.788000", "135539.790000", "135539.793000", "135539.796000", "135539.799000", "135539.802000", "135539.805000", "135539.808000"],
      "InstanceNumber": [1, 2, 3, 4, 5, 6, 7, 8, 9, 10, 11, 12, 13, 14, 15, 16, 17, 18, 19, 20, 21, 22, 23, 24, 25, 26, 27, 28, 29, 30, 31, 32, 33, 34, 35, 36, 37, 38, 39, 40, 41, 42, 43, 44, 45, 46, 47, 48, 49, 50, 51, 52, 53, 54, 55, 56, 57, 58, 59, 60, 61, 62, 63, 64, 65, 66, 67, 68, 69, 70, 71, 72, 73, 74, 75, 76, 77, 78, 79, 80, 81, 82, 83, 84, 85, 86, 87, 88, 89, 90, 91, 92, 93, 94, 95, 96, 97, 98, 99, 100, 101, 102, 103, 104, 105, 106, 107, 108, 109, 110, 111, 112, 113, 114, 115, 116, 117, 118, 119, 120, 121, 122, 123, 124, 125, 126, 127, 128, 129, 130, 131, 132, 133, 134, 135, 136, 137, 138, 139, 140, 141, 142, 143, 144, 145, 146, 147, 148, 149, 150, 151, 152, 153, 154, 155, 156, 157, 158, 159, 160, 161, 162, 163, 164, 165, 166, 167, 168, 169, 170, 171, 172, 173, 174, 175, 176, 177, 178, 179, 180, 181, 182, 183, 184, 185, 186, 187, 188, 189, 190, 191, 192, 193, 194, 195, 196, 197, 198, 199, 200, 201, 202, 203, 204, 205, 206, 207, 208, 209, 210, 211, 212, 213, 214, 215, 216, 217, 218, 219, 220, 221, 222, 223, 224, 225, 226, 227, 228, 229, 230, 231, 232, 233, 234, 235, 236, 237, 238, 239, 240, 241, 242, 243, 244, 245, 246, 247, 248, 249, 250, 251, 252, 253, 254, 255, 256, 257, 258, 259, 260, 261, 262, 263, 264, 265, 266, 267, 268, 269, 270, 271, 272, 273, 274, 275, 276, 277, 278, 279, 280, 281, 282, 283, 284, 285, 286, 287, 288, 289, 290, 291, 292, 293, 294, 295, 296, 297, 298, 299, 300, 301, 302, 303, 304, 305, 306, 307, 308, 309, 310, 311, 312, 313, 314, 315, 316, 317, 318, 319, 320, 321, 322, 323, 324, 325, 326, 327, 328, 329, 330, 331, 332, 333, 334, 335, 336, 337, 338, 339, 340, 341, 342, 343, 344, 345, 346, 347, 348, 349, 350, 351, 352, 353, 354, 355, 356, 357, 358, 359, 360, 361, 362, 363, 364, 365, 366, 367, 368, 369, 370, 371, 372, 373, 374, 375, 376, 377, 378, 379, 380, 381, 382, 383, 384, 385, 386, 387, 388, 389, 390, 391, 392],
