{
  "AcquisitionMatrixPE": 88,
  "AcquisitionNumber": 1,
  "AcquisitionTime": "11:01:12.990000",
  "BandwidthPerPixelPhaseEncode": 19.592,
  "BaseResolution": 88,
  "BodyPartExamined": "BRAIN",
  "ConsistencyInfo": "N4_VE11C_LATEST_20160120",
  "ConversionSoftware": "dcm2niix",
  "ConversionSoftwareVersion": "v1.0.20190902",
  "DerivedVendorReportedEchoSpacing": 0.000580014,
  "DeviceSerialNumber": "67050",
  "DwellTime": 2.6e-06,
  "EchoTime": 0.033,
  "EchoTrainLength": 88,
  "EffectiveEchoSpacing": 0.000580014,
  "FlipAngle": 62,
  "ImageOrientationPatientDICOM": [0.999151, -0.032854, 0.0248782, 0.0371611, 0.979239, -0.199276],
  "ImageType": [
    "ORIGINAL",
    "PRIMARY",
    "M",
    "ND",
    "MOSAIC"
],
  "ImagingFrequency": 123.251,
  "InPlanePhaseEncodingDirectionDICOM": "COL",
  "InstitutionAddress": "Olive_Street_60_Providence_RI_US_02912",
  "InstitutionName": "BROWN_UNIVERSITY_MRF",
  "InstitutionalDepartmentName": "Department",
  "MRAcquisitionType": "2D",
  "MagneticFieldStrength": 3,
  "Manufacturer": "Siemens",
  "ManufacturersModelName": "Prisma_fit",
  "Modality": "MR",
  "MultibandAccelerationFactor": 4,
  "PartialFourier": 1,
  "PatientPosition": "HFS",
  "PercentPhaseFOV": 100,
  "PhaseEncodingDirection": "j-",
  "PhaseEncodingSteps": 88,
  "PhaseResolution": 1,
  "PixelBandwidth": 2185,
  "ProcedureStepDescription": "ASHENHAV_1222",
  "ProtocolName": "func-bold_task-RDMmotion_run-02",
  "PulseSequenceDetails": "%SiemensSeq%_ep2d_bold",
  "ReceiveCoilActiveElements": "HC1-7;NC1",
  "ReceiveCoilName": "HeadNeck_64",
  "ReconMatrixPE": 88,
  "RefLinesPE": 8,
  "RepetitionTime": 1.2,
  "SAR": 0.047626,
  "ScanOptions": "FS",
  "ScanningSequence": "EP",
  "SequenceName": "_epfid2d1_88",
  "SequenceVariant": "SK",
  "SeriesDescription": "func-bold_task-RDMmotion_run-02",
  "SeriesNumber": 9,
  "ShimSetting": [1742, -9059, 4360, 382, -119, -362, -24, -68],
  "SliceThickness": 2.4,
  "SliceTiming": [0.55, 0, 0.63, 0.0775, 0.7075, 0.1575, 0.7875, 0.235, 0.865, 0.315, 0.945, 0.3925, 1.0225, 0.4725, 1.1025, 0.55, 0, 0.63, 0.0775, 0.7075, 0.1575, 0.7875, 0.235, 0.865, 0.315, 0.945, 0.3925, 1.0225, 0.4725, 1.1025, 0.55, 0, 0.63, 0.0775, 0.7075, 0.1575, 0.7875, 0.235, 0.865, 0.315, 0.945, 0.3925, 1.0225, 0.4725, 1.1025, 0.55, 0, 0.63, 0.0775, 0.7075, 0.1575, 0.7875, 0.235, 0.865, 0.315, 0.945, 0.3925, 1.0225, 0.4725, 1.1025],
  "SoftwareVersions": "syngo_MR_E11",
  "SpacingBetweenSlices": 2.4,
  "StationName": "AWP67050",
  "TaskName": "RDMmotion",
  "TotalReadoutTime": 0.0504612,
  "TxRefAmp": 251.74,
  "dcmmeta_affine": [
    [-2.395690441131592, 0.0891021266579628, 0.04275523126125336, 100.81504821777344],
    [0.07877487689256668, 2.347946882247925, -0.4800748825073242, -76.80107879638672],
    [0.05965112894773483, 0.47780948877334595, 2.3511059284210205, -92.32898712158203],
    [0.0, 0.0, 0.0, 1.0]
],
  "dcmmeta_reorient_transform": [
    [0.0, -1.0, 0.0, 87.0],
    [1.0, 0.0, 0.0, 0.0],
    [0.0, 0.0, 1.0, 0.0],
    [0.0, 0.0, 0.0, 1.0]
],
  "dcmmeta_shape": [88, 88, 60, 125],
  "dcmmeta_slice_dim": 2,
  "dcmmeta_version": 0.6,
  "global": {
    "const": {
      "AcquisitionMatrix": [88, 0, 0, 88],
      "AngioFlag": "N",
      "BitsAllocated": 16,
      "BitsStored": 12,
      "BodyPartExamined": "BRAIN",
      "Columns": 704,
      "DeidentificationMethodCodeSequence": [
        {
          "CodeMeaning": "XNAT DicomEdit 6 Script",
          "CodeValue": "3",
          "CodingSchemeDesignator": "XNAT",
          "CodingSchemeVersion": "1.0"}
],
      "EchoNumbers": 1,
      "EchoTime": 33.0,
      "EchoTrainLength": 88,
      "FlipAngle": 62.0,
      "HighBit": 11,
      "ImageOrientationPatient": [0.99915048495405, -0.032853976555, 0.02487819608818, 0.03716107637795, 0.97923854786965, -0.1992759914505],
      "ImagePositionPatient": [-873.88301286131, -826.37530665648, 78.033206766272],
      "ImageType": [
        "ORIGINAL",
        "PRIMARY",
        "M",
        "ND",
        "MOSAIC"
],
      "ImagedNucleus": "1H",
      "ImagingFrequency": 123.250732,
      "InPlanePhaseEncodingDirection": "COL",
      "MRAcquisitionType": "2D",
      "MagneticFieldStrength": 3.0,
      "Manufacturer": "SIEMENS",
      "ManufacturerModelName": "Prisma_fit",
      "Modality": "MR",
      "NumberOfAverages": 1.0,
      "NumberOfPhaseEncodingSteps": 88,
      "PercentPhaseFieldOfView": 100.0,
      "PercentSampling": 100.0,
      "PerformedProcedureStepStartTime": "104137.407000",
      "PhotometricInterpretation": "MONOCHROME2",
      "PixelBandwidth": 2185.0,
      "PixelRepresentation": 0,
      "PixelSpacing": [2.3977272510529, 2.3977272510529],
      "ProtocolName": "func-bold_task-RDMmotion_run-02",
      "RepetitionTime": 1200.0,
      "Rows": 704,
      "SAR": 0.04762594963569,
      "SamplesPerPixel": 1,
      "ScanOptions": "FS",
      "ScanningSequence": "EP",
      "SequenceName": "*epfid2d1_88",
      "SequenceVariant": "SK",
      "SeriesDescription": "func-bold_task-RDMmotion_run-02",
      "SeriesNumber": 9,
      "SeriesTime": "110152.112000",
      "SliceLocation": -73.2894215974,
      "SliceThickness": 2.4000000953674,
      "SmallestImagePixelValue": 0,
      "SoftwareVersions": "syngo MR E11",
      "SpacingBetweenSlices": 2.3999998934776,
      "SpecificCharacterSet": "ISO_IR 100",
      "StudyID": "1",
      "StudyTime": "104137.264000",
      "TransmitCoilName": "Body",
      "VariableFlipAngleFlag": "N",
      "WindowCenterWidthExplanation": "Algo1",
      "dBdt": 0.0},
    "slices": {}
  },
  "time": {
    "samples": {
      "AcquisitionNumber": [1, 2, 3, 4, 5, 6, 7, 8, 9, 10, 11, 12, 13, 14, 15, 16, 17, 18, 19, 20, 21, 22, 23, 24, 25, 26, 27, 28, 29, 30, 31, 32, 33, 34, 35, 36, 37, 38, 39, 40, 41, 42, 43, 44, 45, 46, 47, 48, 49, 50, 51, 52, 53, 54, 55, 56, 57, 58, 59, 60, 61, 62, 63, 64, 65, 66, 67, 68, 69, 70, 71, 72, 73, 74, 75, 76, 77, 78, 79, 80, 81, 82, 83, 84, 85, 86, 87, 88, 89, 90, 91, 92, 93, 94, 95, 96, 97, 98, 99, 100, 101, 102, 103, 104, 105, 106, 107, 108, 109, 110, 111, 112, 113, 114, 115, 116, 117, 118, 119, 120, 121, 122, 123, 124, 125],
      "AcquisitionTime": ["110112.990000", "110114.190000", "110115.390000", "110116.590000", "110117.790000", "110118.990000", "110120.190000", "110121.390000", "110122.590000", "110123.790000", "110124.990000", "110126.190000", "110127.390000", "110128.590000", "110129.790000", "110130.990000", "110132.190000", "110133.390000", "110134.590000", "110135.790000", "110136.990000", "110138.190000", "110139.390000", "110140.590000", "110141.790000", "110142.990000", "110144.190000", "110145.390000", "110146.590000", "110147.790000", "110148.990000", "110150.190000", "110151.390000", "110152.590000", "110153.790000", "110154.990000", "110156.190000", "110157.390000", "110158.590000", "110159.790000", "110200.990000", "110202.190000", "110203.390000", "110204.590000", "110205.790000", "110206.990000", "110208.190000", "110209.390000", "110210.590000", "110211.790000", "110212.990000", "110214.190000", "110215.390000", "110216.590000", "110217.790000", "110218.990000", "110220.190000", "110221.390000", "110222.590000", "110223.790000", "110224.990000", "110226.190000", "110227.390000", "110228.590000", "110229.790000", "110230.990000", "110232.190000", "110233.390000", "110234.590000", "110235.790000", "110236.990000", "110238.190000", "110239.390000", "110240.590000", "110241.790000", "110242.990000", "110244.190000", "110245.390000", "110246.590000", "110247.790000", "110248.990000", "110250.190000", "110251.390000", "110252.590000", "110253.790000", "110254.990000", "110256.190000", "110257.390000", "110258.590000", "110259.790000", "110300.990000", "110302.190000", "110303.390000", "110304.590000", "110305.790000", "110306.990000", "110308.190000", "110309.390000", "110310.590000", "110311.790000", "110312.990000", "110314.190000", "110315.390000", "110316.590000", "110317.790000", "110318.990000", "110320.190000", "110321.390000", "110322.590000", "110323.790000", "110324.990000", "110326.190000", "110327.390000", "110328.590000", "110329.790000", "110330.990000", "110332.190000", "110333.390000", "110334.590000", "110335.790000", "110336.990000", "110338.190000", "110339.390000", "110340.590000", "110341.790000"],
      "ContentTime": ["110152.116000", "110152.119000", "110152.121000", "110152.124000", "110152.127000", "110152.130000", "110152.132000", "110152.135000", "110152.137000", "110152.143000", "110152.146000", "110152.149000", "110152.151000", "110152.154000", "110152.156000", "110152.159000", "110152.162000", "110152.164000", "110152.178000", "110152.181000", "110152.183000", "110152.186000", "110152.188000", "110152.191000", "110152.193000", "110152.196000", "110152.199000", "110152.201000", "110152.204000", "110152.207000", "110152.209000", "110152.212000", "110232.112000", "110232.114000", "110232.117000", "110232.120000", "110232.122000", "110232.125000", "110232.128000", "110232.136000", "110232.139000", "110232.141000", "110232.144000", "110232.147000", "110232.149000", "110232.152000", "110232.155000", "110232.157000", "110232.160000", "110232.162000", "110232.165000", "110232.173000", "110232.194000", "110232.196000", "110232.203000", "110232.206000", "110232.209000", "110232.211000", "110232.214000", "110232.217000", "110232.219000", "110232.222000", "110232.225000", "110232.227000", "110232.230000", "110312.112000", "110312.114000", "110312.117000", "110312.129000", "110312.132000", "110312.134000", "110312.137000", "110312.140000", "110312.143000", "110312.145000", "110312.148000", "110312.150000", "110312.153000", "110312.155000", "110312.158000", "110312.161000", "110312.163000", "110312.166000", "110312.168000", "110312.171000", "110312.174000", "110312.176000", "110312.183000", "110312.186000", "110312.199000", "110312.202000", "110312.204000", "110312.207000", "110312.209000", "110312.212000", "110312.215000", "110312.218000", "110312.220000", "110343.712000", "110343.715000", "110343.717000", "110343.720000", "110343.723000", "110343.725000", "110343.728000", "110343.730000", "110343.733000", "110343.736000", "110343.738000", "110343.741000", "110343.743000", "110343.746000", "110343.749000", "110343.751000", "110343.754000", "110343.756000", "110343.759000", "110343.761000", "110343.764000", "110343.767000", "110343.769000", "110343.772000", "110343.774000", "110343.777000", "110343.780000"],
      "InstanceCreationTime": ["110152.116000", "110152.119000", "110152.121000", "110152.124000", "110152.127000", "110152.130000", "110152.132000", "110152.135000", "110152.137000", "110152.143000", "110152.146000", "110152.149000", "110152.151000", "110152.154000", "110152.156000", "110152.159000", "110152.162000", "110152.164000", "110152.178000", "110152.181000", "110152.183000", "110152.186000", "110152.188000", "110152.191000", "110152.193000", "110152.196000", "110152.199000", "110152.201000", "110152.204000", "110152.207000", "110152.209000", "110152.212000", "110232.112000", "110232.114000", "110232.117000", "110232.120000", "110232.122000", "110232.125000", "110232.128000", "110232.136000", "110232.139000", "110232.141000", "110232.144000", "110232.147000", "110232.149000", "110232.152000", "110232.155000", "110232.157000", "110232.160000", "110232.162000", "110232.165000", "110232.173000", "110232.194000", "110232.196000", "110232.203000", "110232.206000", "110232.209000", "110232.211000", "110232.214000", "110232.217000", "110232.219000", "110232.222000", "110232.225000", "110232.227000", "110232.230000", "110312.112000", "110312.114000", "110312.117000", "110312.129000", "110312.132000", "110312.134000", "110312.137000", "110312.140000", "110312.143000", "110312.145000", "110312.148000", "110312.150000", "110312.153000", "110312.155000", "110312.158000", "110312.161000", "110312.163000", "110312.166000", "110312.168000", "110312.171000", "110312.174000", "110312.176000", "110312.183000", "110312.186000", "110312.199000", "110312.202000", "110312.204000", "110312.207000", "110312.209000", "110312.212000", "110312.215000", "110312.218000", "110312.220000", "110343.712000", "110343.715000", "110343.717000", "110343.720000", "110343.723000", "110343.725000", "110343.728000", "110343.730000", "110343.733000", "110343.736000", "110343.738000", "110343.741000", "110343.743000", "110343.746000", "110343.749000", "110343.751000", "110343.754000", "110343.756000", "110343.759000", "110343.761000", "110343.764000", "110343.767000", "110343.769000", "110343.772000", "110343.774000", "110343.777000", "110343.780000"],
      "InstanceNumber": [1, 2, 3, 4, 5, 6, 7, 8, 9, 10, 11, 12, 13, 14, 15, 16, 17, 18, 19, 20, 21, 22, 23, 24, 25, 26, 27, 28, 29, 30, 31, 32, 33, 34, 35, 36, 37, 38, 39, 40, 41, 42, 43, 44, 45, 46, 47, 48, 49, 50, 51, 52, 53, 54, 55, 56, 57, 58, 59, 60, 61, 62, 63, 64, 65, 66, 67, 68, 69, 70, 71, 72, 73, 74, 75, 76, 77, 78, 79, 80, 81, 82, 83, 84, 85, 86, 87, 88, 89, 90, 91, 92, 93, 94, 95, 96, 97, 98, 99, 100, 101, 102, 103, 104, 105, 106, 107, 108, 109, 110, 111, 112, 113, 114, 115, 116, 117, 118, 119, 120, 121, 122, 123, 124, 125],
      "LargestImagePixelValue": [1956, 1885, 1869, 1829, 1812, 1840, 1776, 1815, 1787, 1801, 1797, 1782, 1810, 1792, 1796, 1777, 1793, 1807, 1792, 1816, 1790, 1797, 1817, 1798, 1832, 1819, 1802, 1830, 1794, 1824, 1803, 1833, 1846, 1809, 1824, 1819, 1809, 1816, 1799, 1834, 1819, 1807, 1833, 1797, 1816, 1802, 1835, 1820, 1848, 1832, 1825, 1832, 1840, 1825, 1843, 1799, 1846, 1818, 1857, 1834, 1831, 1814, 1860, 1856, 1818, 1834, 1808, 1822, 1800, 1846, 1848, 1840, 1855, 1846, 1836, 1860, 1847, 1843, 1849, 1827, 1862, 1837, 1861, 1859, 1820, 1874, 1875, 1826, 1869, 1845, 1845, 1847, 1832, 1846, 1834, 1859, 1818, 1831, 1820, 1852, 1822, 1857, 1866, 1865, 1854, 1857, 1881, 1840, 1879, 1865, 1874, 1856, 1862, 1864, 1855, 1875, 1842, 1875, 1848, 1857, 1838, 1845, 1851, 1818, 1858],
      "WindowCenter": [571.0, 567.0, 566.0, 565.0, 565.0, 566.0, 564.0, 566.0, 565.0, 566.0, 566.0, 565.0, 566.0, 566.0, 567.0, 566.0, 566.0, 566.0, 566.0, 566.0, 565.0, 564.0, 565.0, 565.0, 566.0, 565.0, 565.0, 566.0, 565.0, 564.0, 564.0, 564.0, 565.0, 565.0, 566.0, 566.0, 565.0, 565.0, 564.0, 566.0, 566.0, 566.0, 567.0, 566.0, 566.0, 565.0, 565.0, 565.0, 566.0, 567.0, 567.0, 567.0, 566.0, 566.0, 566.0, 565.0, 566.0, 566.0, 567.0, 567.0, 566.0, 565.0, 566.0, 567.0, 567.0, 567.0, 566.0, 565.0, 564.0, 564.0, 565.0, 565.0, 566.0, 565.0, 565.0, 565.0, 564.0, 565.0, 566.0, 565.0, 567.0, 566.0, 566.0, 565.0, 564.0, 565.0, 566.0, 565.0, 566.0, 565.0, 565.0, 564.0, 565.0, 564.0, 565.0, 565.0, 565.0, 565.0, 565.0, 565.0, 565.0, 566.0, 567.0, 567.0, 566.0, 565.0, 565.0, 563.0, 563.0, 562.0, 563.0, 564.0, 563.0, 563.0, 563.0, 564.0, 564.0, 565.0, 565.0, 567.0, 567.0, 567.0, 567.0, 565.0, 566.0],
      "WindowWidth": [1209.0, 1201.0, 1198.0, 1196.0, 1196.0, 1197.0, 1195.0, 1197.0, 1196.0, 1198.0, 1197.0, 1196.0, 1198.0, 1199.0, 1200.0, 1199.0, 1199.0, 1199.0, 1197.0, 1197.0, 1195.0, 1194.0, 1196.0, 1196.0, 1198.0, 1197.0, 1195.0, 1197.0, 1195.0, 1194.0, 1193.0, 1194.0, 1196.0, 1196.0, 1197.0, 1197.0, 1196.0, 1196.0, 1195.0, 1197.0, 1197.0, 1198.0, 1199.0, 1197.0, 1198.0, 1196.0, 1196.0, 1195.0, 1198.0, 1201.0, 1200.0, 1200.0, 1198.0, 1198.0, 1198.0, 1197.0, 1198.0, 1199.0, 1201.0, 1200.0, 1198.0, 1196.0, 1197.0, 1199.0, 1199.0, 1200.0, 1198.0, 1196.0, 1194.0, 1194.0, 1195.0, 1196.0, 1197.0, 1196.0, 1195.0, 1195.0, 1194.0, 1195.0, 1197.0, 1196.0, 1199.0, 1197.0, 1197.0, 1196.0, 1193.0, 1196.0, 1196.0, 1195.0, 1197.0, 1195.0, 1196.0, 1194.0, 1194.0, 1194.0, 1195.0, 1196.0, 1195.0, 1196.0, 1195.0, 1196.0, 1195.0, 1198.0, 1200.0, 1199.0, 1198.0, 1196.0, 1194.0, 1190.0, 1190.0, 1189.0, 1190.0, 1192.0, 1191.0, 1192.0, 1191.0, 1193.0, 1192.0, 1195.0, 1195.0, 1200.0, 1199.0, 1200.0, 1200.0, 1196.0, 1197.0]
    },
    "slices": {}
  }
}