{
  "AcquisitionMatrixPE": 88,
  "AcquisitionNumber": 1,
  "AcquisitionTime": "11:12:51.650000",
  "BandwidthPerPixelPhaseEncode": 19.592,
  "BaseResolution": 88,
  "BodyPartExamined": "BRAIN",
  "ConsistencyInfo": "N4_VE11C_LATEST_20160120",
  "ConversionSoftware": "dcm2niix",
  "ConversionSoftwareVersion": "v1.0.20190902",
  "DerivedVendorReportedEchoSpacing": 0.000580014,
  "DeviceSerialNumber": "67050",
  "DwellTime": 2.6e-06,
  "EchoTime": 0.033,
  "EchoTrainLength": 88,
  "EffectiveEchoSpacing": 0.000580014,
  "FlipAngle": 62,
  "ImageOrientationPatientDICOM": [0.999151, -0.032854, 0.0248782, 0.0371611, 0.979239, -0.199276],
  "ImageType": [
    "ORIGINAL",
    "PRIMARY",
    "M",
    "ND",
    "MOSAIC"
],
  "ImagingFrequency": 123.251,
  "InPlanePhaseEncodingDirectionDICOM": "COL",
  "InstitutionAddress": "Olive_Street_60_Providence_RI_US_02912",
  "InstitutionName": "BROWN_UNIVERSITY_MRF",
  "InstitutionalDepartmentName": "Department",
  "MRAcquisitionType": "2D",
  "MagneticFieldStrength": 3,
  "Manufacturer": "Siemens",
  "ManufacturersModelName": "Prisma_fit",
  "Modality": "MR",
  "MultibandAccelerationFactor": 4,
  "PartialFourier": 1,
  "PatientPosition": "HFS",
  "PercentPhaseFOV": 100,
  "PhaseEncodingDirection": "j-",
  "PhaseEncodingSteps": 88,
  "PhaseResolution": 1,
  "PixelBandwidth": 2185,
  "ProcedureStepDescription": "ASHENHAV_1222",
  "ProtocolName": "func-bold_task-RDMmotion_run-03",
  "PulseSequenceDetails": "%SiemensSeq%_ep2d_bold",
  "ReceiveCoilActiveElements": "HC1-7;NC1",
  "ReceiveCoilName": "HeadNeck_64",
  "ReconMatrixPE": 88,
  "RefLinesPE": 8,
  "RepetitionTime": 1.2,
  "SAR": 0.047626,
  "ScanOptions": "FS",
  "ScanningSequence": "EP",
  "SequenceName": "_epfid2d1_88",
  "SequenceVariant": "SK",
  "SeriesDescription": "func-bold_task-RDMmotion_run-03",
  "SeriesNumber": 11,
  "ShimSetting": [1742, -9059, 4360, 382, -119, -362, -24, -68],
  "SliceThickness": 2.4,
  "SliceTiming": [0.55, 0, 0.63, 0.0775, 0.7075, 0.1575, 0.7875, 0.235, 0.865, 0.315, 0.945, 0.3925, 1.0225, 0.4725, 1.1025, 0.55, 0, 0.63, 0.0775, 0.7075, 0.1575, 0.7875, 0.235, 0.865, 0.315, 0.945, 0.3925, 1.0225, 0.4725, 1.1025, 0.55, 0, 0.63, 0.0775, 0.7075, 0.1575, 0.7875, 0.235, 0.865, 0.315, 0.945, 0.3925, 1.0225, 0.4725, 1.1025, 0.55, 0, 0.63, 0.0775, 0.7075, 0.1575, 0.7875, 0.235, 0.865, 0.315, 0.945, 0.3925, 1.0225, 0.4725, 1.1025],
  "SoftwareVersions": "syngo_MR_E11",
  "SpacingBetweenSlices": 2.4,
  "StationName": "AWP67050",
  "TaskName": "RDMmotion",
  "TotalReadoutTime": 0.0504612,
  "TxRefAmp": 251.74,
  "dcmmeta_affine": [
    [-2.395690441131592, 0.0891021266579628, 0.04275523126125336, 100.81504821777344],
    [0.07877487689256668, 2.347946882247925, -0.4800748825073242, -76.80107879638672],
    [0.05965112894773483, 0.47780948877334595, 2.3511059284210205, -92.32898712158203],
    [0.0, 0.0, 0.0, 1.0]
],
  "dcmmeta_reorient_transform": [
    [0.0, -1.0, 0.0, 87.0],
    [1.0, 0.0, 0.0, 0.0],
    [0.0, 0.0, 1.0, 0.0],
    [0.0, 0.0, 0.0, 1.0]
],
  "dcmmeta_shape": [88, 88, 60, 125],
  "dcmmeta_slice_dim": 2,
  "dcmmeta_version": 0.6,
  "global": {
    "const": {
      "AcquisitionMatrix": [88, 0, 0, 88],
      "AngioFlag": "N",
      "BitsAllocated": 16,
      "BitsStored": 12,
      "BodyPartExamined": "BRAIN",
      "Columns": 704,
      "DeidentificationMethodCodeSequence": [
        {
          "CodeMeaning": "XNAT DicomEdit 6 Script",
          "CodeValue": "3",
          "CodingSchemeDesignator": "XNAT",
          "CodingSchemeVersion": "1.0"}
],
      "EchoNumbers": 1,
      "EchoTime": 33.0,
      "EchoTrainLength": 88,
      "FlipAngle": 62.0,
      "HighBit": 11,
      "ImageOrientationPatient": [0.99915048495405, -0.032853976555, 0.02487819608818, 0.03716107637795, 0.97923854786965, -0.1992759914505],
      "ImagePositionPatient": [-873.88301286131, -826.37530665648, 78.033206766272],
      "ImageType": [
        "ORIGINAL",
        "PRIMARY",
        "M",
        "ND",
        "MOSAIC"
],
      "ImagedNucleus": "1H",
      "ImagingFrequency": 123.250734,
      "InPlanePhaseEncodingDirection": "COL",
      "MRAcquisitionType": "2D",
      "MagneticFieldStrength": 3.0,
      "Manufacturer": "SIEMENS",
      "ManufacturerModelName": "Prisma_fit",
      "Modality": "MR",
      "NumberOfAverages": 1.0,
      "NumberOfPhaseEncodingSteps": 88,
      "PercentPhaseFieldOfView": 100.0,
      "PercentSampling": 100.0,
      "PerformedProcedureStepStartTime": "104137.407000",
      "PhotometricInterpretation": "MONOCHROME2",
      "PixelBandwidth": 2185.0,
      "PixelRepresentation": 0,
      "PixelSpacing": [2.3977272510529, 2.3977272510529],
      "ProtocolName": "func-bold_task-RDMmotion_run-03",
      "RepetitionTime": 1200.0,
      "Rows": 704,
      "SAR": 0.04762594963569,
      "SamplesPerPixel": 1,
      "ScanOptions": "FS",
      "ScanningSequence": "EP",
      "SequenceName": "*epfid2d1_88",
      "SequenceVariant": "SK",
      "SeriesDescription": "func-bold_task-RDMmotion_run-03",
      "SeriesNumber": 11,
      "SeriesTime": "111330.759000",
      "SliceLocation": -73.2894215974,
      "SliceThickness": 2.4000000953674,
      "SmallestImagePixelValue": 0,
      "SoftwareVersions": "syngo MR E11",
      "SpacingBetweenSlices": 2.3999998934776,
      "SpecificCharacterSet": "ISO_IR 100",
      "StudyID": "1",
      "StudyTime": "104137.264000",
      "TransmitCoilName": "Body",
      "VariableFlipAngleFlag": "N",
      "WindowCenterWidthExplanation": "Algo1",
      "dBdt": 0.0},
    "slices": {}
  },
  "time": {
    "samples": {
      "AcquisitionNumber": [1, 2, 3, 4, 5, 6, 7, 8, 9, 10, 11, 12, 13, 14, 15, 16, 17, 18, 19, 20, 21, 22, 23, 24, 25, 26, 27, 28, 29, 30, 31, 32, 33, 34, 35, 36, 37, 38, 39, 40, 41, 42, 43, 44, 45, 46, 47, 48, 49, 50, 51, 52, 53, 54, 55, 56, 57, 58, 59, 60, 61, 62, 63, 64, 65, 66, 67, 68, 69, 70, 71, 72, 73, 74, 75, 76, 77, 78, 79, 80, 81, 82, 83, 84, 85, 86, 87, 88, 89, 90, 91, 92, 93, 94, 95, 96, 97, 98, 99, 100, 101, 102, 103, 104, 105, 106, 107, 108, 109, 110, 111, 112, 113, 114, 115, 116, 117, 118, 119, 120, 121, 122, 123, 124, 125],
      "AcquisitionTime": ["111251.650000", "111252.850000", "111254.050000", "111255.250000", "111256.450000", "111257.650000", "111258.850000", "111300.050000", "111301.250000", "111302.450000", "111303.650000", "111304.850000", "111306.050000", "111307.250000", "111308.450000", "111309.650000", "111310.850000", "111312.050000", "111313.250000", "111314.450000", "111315.650000", "111316.850000", "111318.050000", "111319.250000", "111320.450000", "111321.650000", "111322.850000", "111324.050000", "111325.250000", "111326.450000", "111327.650000", "111328.850000", "111330.050000", "111331.250000", "111332.450000", "111333.650000", "111334.850000", "111336.050000", "111337.250000", "111338.450000", "111339.650000", "111340.850000", "111342.050000", "111343.250000", "111344.450000", "111345.650000", "111346.850000", "111348.050000", "111349.250000", "111350.450000", "111351.650000", "111352.850000", "111354.050000", "111355.250000", "111356.450000", "111357.650000", "111358.850000", "111400.050000", "111401.250000", "111402.450000", "111403.650000", "111404.850000", "111406.050000", "111407.250000", "111408.450000", "111409.650000", "111410.850000", "111412.050000", "111413.250000", "111414.450000", "111415.650000", "111416.850000", "111418.050000", "111419.250000", "111420.450000", "111421.650000", "111422.850000", "111424.050000", "111425.250000", "111426.450000", "111427.650000", "111428.850000", "111430.050000", "111431.250000", "111432.450000", "111433.650000", "111434.850000", "111436.050000", "111437.250000", "111438.450000", "111439.650000", "111440.850000", "111442.050000", "111443.250000", "111444.450000", "111445.650000", "111446.850000", "111448.050000", "111449.250000", "111450.450000", "111451.650000", "111452.850000", "111454.050000", "111455.250000", "111456.450000", "111457.650000", "111458.850000", "111500.050000", "111501.250000", "111502.450000", "111503.650000", "111504.850000", "111506.050000", "111507.250000", "111508.450000", "111509.650000", "111510.850000", "111512.050000", "111513.250000", "111514.450000", "111515.650000", "111516.850000", "111518.050000", "111519.250000", "111520.450000"],
      "ContentTime": ["111330.763000", "111330.775000", "111330.778000", "111330.781000", "111330.787000", "111330.790000", "111330.792000", "111330.795000", "111330.798000", "111330.800000", "111330.803000", "111330.805000", "111330.811000", "111330.814000", "111330.816000", "111330.819000", "111330.822000", "111330.824000", "111330.827000", "111330.830000", "111330.832000", "111330.835000", "111330.837000", "111330.840000", "111330.842000", "111330.845000", "111330.848000", "111330.850000", "111330.853000", "111330.855000", "111330.858000", "111330.860000", "111410.759000", "111410.762000", "111410.764000", "111410.767000", "111410.770000", "111410.772000", "111410.775000", "111410.777000", "111410.780000", "111410.783000", "111410.785000", "111410.793000", "111410.795000", "111410.798000", "111410.801000", "111410.803000", "111410.806000", "111410.808000", "111410.811000", "111410.814000", "111410.818000", "111410.821000", "111410.823000", "111410.826000", "111410.829000", "111410.831000", "111410.834000", "111410.836000", "111410.839000", "111410.841000", "111410.844000", "111410.847000", "111410.850000", "111450.758000", "111450.761000", "111450.764000", "111450.766000", "111450.769000", "111450.771000", "111450.774000", "111450.776000", "111450.779000", "111450.782000", "111450.784000", "111450.787000", "111450.789000", "111450.802000", "111450.805000", "111450.808000", "111450.810000", "111450.813000", "111450.816000", "111450.818000", "111450.821000", "111450.823000", "111450.826000", "111450.829000", "111450.831000", "111450.834000", "111450.837000", "111450.839000", "111450.842000", "111450.847000", "111450.850000", "111450.852000", "111450.855000", "111450.858000", "111521.602000", "111521.604000", "111521.612000", "111521.615000", "111521.617000", "111521.620000", "111521.623000", "111521.625000", "111521.628000", "111521.630000", "111521.633000", "111521.636000", "111521.638000", "111521.641000", "111521.643000", "111521.646000", "111521.649000", "111521.651000", "111521.654000", "111521.656000", "111521.659000", "111521.662000", "111521.664000", "111521.667000", "111521.669000", "111521.672000"],
      "InstanceCreationTime": ["111330.763000", "111330.775000", "111330.778000", "111330.781000", "111330.787000", "111330.790000", "111330.792000", "111330.795000", "111330.798000", "111330.800000", "111330.803000", "111330.805000", "111330.811000", "111330.814000", "111330.816000", "111330.819000", "111330.822000", "111330.824000", "111330.827000", "111330.830000", "111330.832000", "111330.835000", "111330.837000", "111330.840000", "111330.842000", "111330.845000", "111330.848000", "111330.850000", "111330.853000", "111330.855000", "111330.858000", "111330.860000", "111410.759000", "111410.762000", "111410.764000", "111410.767000", "111410.770000", "111410.772000", "111410.775000", "111410.777000", "111410.780000", "111410.783000", "111410.785000", "111410.793000", "111410.795000", "111410.798000", "111410.801000", "111410.803000", "111410.806000", "111410.808000", "111410.811000", "111410.814000", "111410.818000", "111410.821000", "111410.823000", "111410.826000", "111410.829000", "111410.831000", "111410.834000", "111410.836000", "111410.839000", "111410.841000", "111410.844000", "111410.847000", "111410.850000", "111450.758000", "111450.761000", "111450.764000", "111450.766000", "111450.769000", "111450.771000", "111450.774000", "111450.776000", "111450.779000", "111450.782000", "111450.784000", "111450.787000", "111450.789000", "111450.802000", "111450.805000", "111450.808000", "111450.810000", "111450.813000", "111450.816000", "111450.818000", "111450.821000", "111450.823000", "111450.826000", "111450.829000", "111450.831000", "111450.834000", "111450.837000", "111450.839000", "111450.842000", "111450.847000", "111450.850000", "111450.852000", "111450.855000", "111450.858000", "111521.602000", "111521.604000", "111521.612000", "111521.615000", "111521.617000", "111521.620000", "111521.623000", "111521.625000", "111521.628000", "111521.630000", "111521.633000", "111521.636000", "111521.638000", "111521.641000", "111521.643000", "111521.646000", "111521.649000", "111521.651000", "111521.654000", "111521.656000", "111521.659000", "111521.662000", "111521.664000", "111521.667000", "111521.669000", "111521.672000"],
      "InstanceNumber": [1, 2, 3, 4, 5, 6, 7, 8, 9, 10, 11, 12, 13, 14, 15, 16, 17, 18, 19, 20, 21, 22, 23, 24, 25, 26, 27, 28, 29, 30, 31, 32, 33, 34, 35, 36, 37, 38, 39, 40, 41, 42, 43, 44, 45, 46, 47, 48, 49, 50, 51, 52, 53, 54, 55, 56, 57, 58, 59, 60, 61, 62, 63, 64, 65, 66, 67, 68, 69, 70, 71, 72, 73, 74, 75, 76, 77, 78, 79, 80, 81, 82, 83, 84, 85, 86, 87, 88, 89, 90, 91, 92, 93, 94, 95, 96, 97, 98, 99, 100, 101, 102, 103, 104, 105, 106, 107, 108, 109, 110, 111, 112, 113, 114, 115, 116, 117, 118, 119, 120, 121, 122, 123, 124, 125],
      "LargestImagePixelValue": [1951, 1878, 1865, 1844, 1821, 1814, 1811, 1808, 1801, 1799, 1798, 1812, 1803, 1798, 1803, 1802, 1811, 1812, 1821, 1804, 1818, 1817, 1817, 1806, 1835, 1817, 1826, 1808, 1824, 1803, 1829, 1816, 1814, 1830, 1832, 1817, 1830, 1799, 1829, 1819, 1822, 1812, 1837, 1808, 1836, 1813, 1830, 1812, 1805, 1819, 1801, 1815, 1825, 1823, 1834, 1810, 1827, 1803, 1812, 1834, 1809, 1808, 1825, 1805, 1815, 1802, 1834, 1821, 1830, 1810, 1799, 1816, 1812, 1809, 1830, 1818, 1812, 1839, 1784, 1821, 1796, 1825, 1812, 1822, 1849, 1860, 1853, 1818, 1842, 1833, 1805, 1832, 1833, 1837, 1842, 1828, 1824, 1846, 1828, 1820, 1852, 1821, 1800, 1860, 1827, 1803, 1868, 1819, 1829, 1830, 1817, 1853, 1817, 1817, 1844, 1803, 1852, 1797, 1837, 1862, 1902, 1857, 1841, 1831, 1831],
      "WindowCenter": [570.0, 568.0, 567.0, 565.0, 564.0, 565.0, 565.0, 564.0, 565.0, 565.0, 566.0, 565.0, 565.0, 565.0, 565.0, 565.0, 566.0, 565.0, 565.0, 564.0, 565.0, 565.0, 565.0, 565.0, 565.0, 565.0, 565.0, 564.0, 565.0, 565.0, 566.0, 566.0, 566.0, 565.0, 565.0, 565.0, 565.0, 565.0, 565.0, 565.0, 565.0, 565.0, 565.0, 564.0, 564.0, 565.0, 565.0, 565.0, 564.0, 565.0, 565.0, 566.0, 566.0, 566.0, 566.0, 565.0, 565.0, 563.0, 564.0, 565.0, 564.0, 564.0, 564.0, 564.0, 563.0, 563.0, 563.0, 564.0, 564.0, 563.0, 563.0, 563.0, 563.0, 563.0, 564.0, 565.0, 565.0, 566.0, 565.0, 565.0, 565.0, 565.0, 565.0, 566.0, 567.0, 567.0, 566.0, 565.0, 565.0, 564.0, 562.0, 561.0, 560.0, 559.0, 560.0, 559.0, 560.0, 562.0, 562.0, 563.0, 564.0, 564.0, 563.0, 564.0, 562.0, 562.0, 564.0, 563.0, 563.0, 563.0, 563.0, 564.0, 562.0, 563.0, 563.0, 562.0, 563.0, 563.0, 565.0, 567.0, 567.0, 565.0, 564.0, 564.0, 564.0],
      "WindowWidth": [1208.0, 1202.0, 1200.0, 1197.0, 1195.0, 1196.0, 1196.0, 1195.0, 1196.0, 1196.0, 1197.0, 1197.0, 1196.0, 1196.0, 1197.0, 1197.0, 1198.0, 1196.0, 1196.0, 1195.0, 1196.0, 1196.0, 1196.0, 1195.0, 1196.0, 1195.0, 1195.0, 1194.0, 1196.0, 1197.0, 1199.0, 1198.0, 1198.0, 1196.0, 1196.0, 1195.0, 1196.0, 1195.0, 1197.0, 1197.0, 1196.0, 1195.0, 1195.0, 1193.0, 1194.0, 1194.0, 1196.0, 1196.0, 1195.0, 1196.0, 1195.0, 1197.0, 1197.0, 1197.0, 1197.0, 1195.0, 1195.0, 1192.0, 1193.0, 1195.0, 1193.0, 1193.0, 1193.0, 1193.0, 1192.0, 1191.0, 1192.0, 1192.0, 1193.0, 1192.0, 1192.0, 1192.0, 1191.0, 1192.0, 1194.0, 1196.0, 1196.0, 1197.0, 1195.0, 1196.0, 1196.0, 1196.0, 1196.0, 1197.0, 1200.0, 1200.0, 1197.0, 1195.0, 1195.0, 1193.0, 1189.0, 1186.0, 1185.0, 1182.0, 1183.0, 1183.0, 1185.0, 1188.0, 1190.0, 1192.0, 1194.0, 1193.0, 1192.0, 1193.0, 1189.0, 1189.0, 1192.0, 1190.0, 1191.0, 1192.0, 1190.0, 1192.0, 1190.0, 1190.0, 1190.0, 1189.0, 1191.0, 1190.0, 1194.0, 1198.0, 1200.0, 1196.0, 1194.0, 1193.0, 1193.0]
    },
    "slices": {}
  }
}