{
  "AcquisitionMatrixPE": 88,
  "AcquisitionNumber": 1,
  "AcquisitionTime": "12:07:27.937500",
  "BandwidthPerPixelPhaseEncode": 19.592,
  "BaseResolution": 88,
  "BodyPartExamined": "BRAIN",
  "ConsistencyInfo": "N4_VE11C_LATEST_20160120",
  "ConversionSoftware": "dcm2niix",
  "ConversionSoftwareVersion": "v1.0.20190902",
  "DerivedVendorReportedEchoSpacing": 0.000580014,
  "DeviceSerialNumber": "67050",
  "DwellTime": 2.6e-06,
  "EchoTime": 0.033,
  "EchoTrainLength": 88,
  "EffectiveEchoSpacing": 0.000580014,
  "FlipAngle": 62,
  "ImageOrientationPatientDICOM": [0.999123, -0.0122211, 0.040053, 0.0190096, 0.984603, -0.173771],
  "ImageType": [
    "ORIGINAL",
    "PRIMARY",
    "M",
    "ND",
    "MOSAIC"
],
  "ImagingFrequency": 123.251,
  "InPlanePhaseEncodingDirectionDICOM": "COL",
  "InstitutionAddress": "Olive_Street_60_Providence_RI_US_02912",
  "InstitutionName": "BROWN_UNIVERSITY_MRF",
  "InstitutionalDepartmentName": "Department",
  "MRAcquisitionType": "2D",
  "MagneticFieldStrength": 3,
  "Manufacturer": "Siemens",
  "ManufacturersModelName": "Prisma_fit",
  "Modality": "MR",
  "MultibandAccelerationFactor": 4,
  "PartialFourier": 1,
  "PatientPosition": "HFS",
  "PercentPhaseFOV": 100,
  "PhaseEncodingDirection": "j-",
  "PhaseEncodingSteps": 88,
  "PhaseResolution": 1,
  "PixelBandwidth": 2185,
  "ProcedureStepDescription": "ASHENHAV_1222",
  "ProtocolName": "func-bold_task-RDMlocalizer_run-02",
  "PulseSequenceDetails": "%SiemensSeq%_ep2d_bold",
  "ReceiveCoilActiveElements": "HC1-7;NC1",
  "ReceiveCoilName": "HeadNeck_64",
  "ReconMatrixPE": 88,
  "RefLinesPE": 8,
  "RepetitionTime": 1.2,
  "SAR": 0.0482992,
  "ScanOptions": "FS",
  "ScanningSequence": "EP",
  "SequenceName": "_epfid2d1_88",
  "SequenceVariant": "SK",
  "SeriesDescription": "func-bold_task-RDMlocalizer_run-02",
  "SeriesNumber": 25,
  "ShimSetting": [1758, -9041, 4363, 367, -132, -307, 37, -104],
  "SliceThickness": 2.4,
  "SliceTiming": [0.5525, 0, 0.63, 0.08, 0.7075, 0.1575, 0.7875, 0.2375, 0.865, 0.315, 0.945, 0.395, 1.0225, 0.4725, 1.1025, 0.5525, 0, 0.63, 0.08, 0.7075, 0.1575, 0.7875, 0.2375, 0.865, 0.315, 0.945, 0.395, 1.0225, 0.4725, 1.1025, 0.5525, 0, 0.63, 0.08, 0.7075, 0.1575, 0.7875, 0.2375, 0.865, 0.315, 0.945, 0.395, 1.0225, 0.4725, 1.1025, 0.5525, 0, 0.63, 0.08, 0.7075, 0.1575, 0.7875, 0.2375, 0.865, 0.315, 0.945, 0.395, 1.0225, 0.4725, 1.1025],
  "SoftwareVersions": "syngo_MR_E11",
  "SpacingBetweenSlices": 2.4,
  "StationName": "AWP67050",
  "TaskName": "RDMlocalizer",
  "TotalReadoutTime": 0.0504612,
  "TxRefAmp": 254.98,
  "dcmmeta_affine": [
    [-2.3956239223480225, 0.04557992145419121, 0.08955024182796478, 103.69342803955078],
    [0.029302820563316345, 2.3608083724975586, -0.4185121953487396, -79.79276275634766],
    [0.09603613615036011, 0.4166557490825653, 2.3615307807922363, -97.72188568115234],
    [0.0, 0.0, 0.0, 1.0]
],
  "dcmmeta_reorient_transform": [
    [0.0, -1.0, 0.0, 87.0],
    [1.0, 0.0, 0.0, 0.0],
    [0.0, 0.0, 1.0, 0.0],
    [0.0, 0.0, 0.0, 1.0]
],
  "dcmmeta_shape": [88, 88, 60, 195],
  "dcmmeta_slice_dim": 2,
  "dcmmeta_version": 0.6,
  "global": {
    "const": {
      "AcquisitionMatrix": [88, 0, 0, 88],
      "AngioFlag": "N",
      "BitsAllocated": 16,
      "BitsStored": 12,
      "BodyPartExamined": "BRAIN",
      "Columns": 704,
      "DeidentificationMethodCodeSequence": [
        {
          "CodeMeaning": "XNAT DicomEdit 6 Script",
          "CodeValue": "3",
          "CodingSchemeDesignator": "XNAT",
          "CodingSchemeVersion": "1.0"}
],
      "EchoNumbers": 1,
      "EchoTime": 33.0,
      "EchoTrainLength": 88,
      "FlipAngle": 62.0,
      "HighBit": 11,
      "ImageOrientationPatient": [0.99912281705729, -0.0122210812865, 0.04005298500356, 0.01900963510009, 0.98460257547611, -0.1737711199802],
      "ImagePositionPatient": [-859.54969269134, -843.70129760616, 37.278003886915],
      "ImageType": [
        "ORIGINAL",
        "PRIMARY",
        "M",
        "ND",
        "MOSAIC"
],
      "ImagedNucleus": "1H",
      "ImagingFrequency": 123.250763,
      "InPlanePhaseEncodingDirection": "COL",
      "MRAcquisitionType": "2D",
      "MagneticFieldStrength": 3.0,
      "Manufacturer": "SIEMENS",
      "ManufacturerModelName": "Prisma_fit",
      "Modality": "MR",
      "NumberOfAverages": 1.0,
      "NumberOfPhaseEncodingSteps": 88,
      "PercentPhaseFieldOfView": 100.0,
      "PercentSampling": 100.0,
      "PerformedProcedureStepStartTime": "104137.407000",
      "PhotometricInterpretation": "MONOCHROME2",
      "PixelBandwidth": 2185.0,
      "PixelRepresentation": 0,
      "PixelSpacing": [2.3977272510529, 2.3977272510529],
      "ProtocolName": "func-bold_task-RDMlocalizer_run-02",
      "RepetitionTime": 1200.0,
      "Rows": 704,
      "SAR": 0.04829924402239,
      "SamplesPerPixel": 1,
      "ScanOptions": "FS",
      "ScanningSequence": "EP",
      "SequenceName": "*epfid2d1_88",
      "SequenceVariant": "SK",
      "SeriesDescription": "func-bold_task-RDMlocalizer_run-02",
      "SeriesNumber": 25,
      "SeriesTime": "120746.216000",
      "SliceLocation": -78.37218500529,
      "SliceThickness": 2.4000000953674,
      "SmallestImagePixelValue": 0,
      "SoftwareVersions": "syngo MR E11",
      "SpacingBetweenSlices": 2.3999999648836,
      "SpecificCharacterSet": "ISO_IR 100",
      "StudyID": "1",
      "StudyTime": "104137.264000",
      "TransmitCoilName": "Body",
      "VariableFlipAngleFlag": "N",
      "WindowCenterWidthExplanation": "Algo1",
      "dBdt": 0.0},
    "slices": {}
  },
  "time": {
    "samples": {
      "AcquisitionNumber": [1, 2, 3, 4, 5, 6, 7, 8, 9, 10, 11, 12, 13, 14, 15, 16, 17, 18, 19, 20, 21, 22, 23, 24, 25, 26, 27, 28, 29, 30, 31, 32, 33, 34, 35, 36, 37, 38, 39, 40, 41, 42, 43, 44, 45, 46, 47, 48, 49, 50, 51, 52, 53, 54, 55, 56, 57, 58, 59, 60, 61, 62, 63, 64, 65, 66, 67, 68, 69, 70, 71, 72, 73, 74, 75, 76, 77, 78, 79, 80, 81, 82, 83, 84, 85, 86, 87, 88, 89, 90, 91, 92, 93, 94, 95, 96, 97, 98, 99, 100, 101, 102, 103, 104, 105, 106, 107, 108, 109, 110, 111, 112, 113, 114, 115, 116, 117, 118, 119, 120, 121, 122, 123, 124, 125, 126, 127, 128, 129, 130, 131, 132, 133, 134, 135, 136, 137, 138, 139, 140, 141, 142, 143, 144, 145, 146, 147, 148, 149, 150, 151, 152, 153, 154, 155, 156, 157, 158, 159, 160, 161, 162, 163, 164, 165, 166, 167, 168, 169, 170, 171, 172, 173, 174, 175, 176, 177, 178, 179, 180, 181, 182, 183, 184, 185, 186, 187, 188, 189, 190, 191, 192, 193, 194, 195],
      "AcquisitionTime": ["120727.937500", "120729.137500", "120730.337500", "120731.537500", "120732.737500", "120733.937500", "120735.137500", "120736.337500", "120737.537500", "120738.737500", "120739.937500", "120741.137500", "120742.337500", "120743.537500", "120744.737500", "120745.937500", "120747.137500", "120748.337500", "120749.537500", "120750.737500", "120751.937500", "120753.137500", "120754.337500", "120755.537500", "120756.737500", "120757.937500", "120759.137500", "120800.337500", "120801.537500", "120802.737500", "120803.937500", "120805.137500", "120806.337500", "120807.537500", "120808.737500", "120809.937500", "120811.137500", "120812.337500", "120813.537500", "120814.737500", "120815.937500", "120817.137500", "120818.337500", "120819.537500", "120820.737500", "120821.937500", "120823.137500", "120824.337500", "120825.537500", "120826.737500", "120827.937500", "120829.137500", "120830.337500", "120831.537500", "120832.737500", "120833.937500", "120835.137500", "120836.337500", "120837.537500", "120838.737500", "120839.937500", "120841.137500", "120842.337500", "120843.537500", "120844.737500", "120845.937500", "120847.137500", "120848.337500", "120849.537500", "120850.737500", "120851.937500", "120853.137500", "120854.337500", "120855.537500", "120856.737500", "120857.937500", "120859.137500", "120900.337500", "120901.537500", "120902.737500", "120903.937500", "120905.137500", "120906.337500", "120907.537500", "120908.737500", "120909.937500", "120911.137500", "120912.337500", "120913.537500", "120914.737500", "120915.937500", "120917.137500", "120918.337500", "120919.537500", "120920.737500", "120921.937500", "120923.137500", "120924.337500", "120925.537500", "120926.737500", "120927.937500", "120929.137500", "120930.337500", "120931.537500", "120932.737500", "120933.937500", "120935.137500", "120936.337500", "120937.537500", "120938.737500", "120939.937500", "120941.137500", "120942.337500", "120943.537500", "120944.737500", "120945.937500", "120947.137500", "120948.337500", "120949.537500", "120950.737500", "120951.937500", "120953.137500", "120954.337500", "120955.537500", "120956.737500", "120957.937500", "120959.137500", "121000.337500", "121001.537500", "121002.737500", "121003.937500", "121005.137500", "121006.337500", "121007.537500", "121008.737500", "121009.937500", "121011.137500", "121012.337500", "121013.537500", "121014.737500", "121015.937500", "121017.137500", "121018.337500", "121019.537500", "121020.737500", "121021.937500", "121023.137500", "121024.337500", "121025.537500", "121026.737500", "121027.937500", "121029.137500", "121030.337500", "121031.537500", "121032.737500", "121033.937500", "121035.137500", "121036.337500", "121037.537500", "121038.737500", "121039.937500", "121041.137500", "121042.337500", "121043.537500", "121044.737500", "121045.937500", "121047.137500", "121048.337500", "121049.537500", "121050.737500", "121051.937500", "121053.137500", "121054.337500", "121055.537500", "121056.737500", "121057.937500", "121059.137500", "121100.337500", "121101.537500", "121102.737500", "121103.937500", "121105.137500", "121106.337500", "121107.537500", "121108.737500", "121109.937500", "121111.137500", "121112.337500", "121113.537500", "121114.737500", "121115.937500", "121117.137500", "121118.337500", "121119.537500", "121120.737500"],
      "ContentTime": ["120746.219000", "120746.236000", "120746.239000", "120746.241000", "120746.244000", "120746.246000", "120746.249000", "120746.252000", "120746.254000", "120746.262000", "120746.265000", "120746.267000", "120746.270000", "120746.272000", "120746.275000", "120826.214000", "120826.217000", "120826.220000", "120826.222000", "120826.225000", "120826.228000", "120826.231000", "120826.233000", "120826.236000", "120826.239000", "120826.241000", "120826.244000", "120826.252000", "120826.255000", "120826.258000", "120826.260000", "120826.270000", "120826.272000", "120826.275000", "120826.277000", "120826.280000", "120826.283000", "120826.285000", "120826.288000", "120826.291000", "120826.293000", "120826.296000", "120826.299000", "120826.301000", "120826.304000", "120826.306000", "120826.309000", "120826.312000", "120906.214000", "120906.216000", "120906.219000", "120906.226000", "120906.243000", "120906.246000", "120906.249000", "120906.251000", "120906.254000", "120906.257000", "120906.259000", "120906.262000", "120906.264000", "120906.267000", "120906.269000", "120906.272000", "120906.275000", "120906.277000", "120906.280000", "120906.282000", "120906.285000", "120906.288000", "120906.290000", "120906.293000", "120906.296000", "120906.298000", "120906.301000", "120906.303000", "120906.306000", "120906.308000", "120906.311000", "120906.314000", "120906.316000", "120946.213000", "120946.223000", "120946.234000", "120946.243000", "120946.245000", "120946.248000", "120946.259000", "120946.262000", "120946.265000", "120946.268000", "120946.271000", "120946.273000", "120946.286000", "120946.288000", "120946.291000", "120946.294000", "120946.296000", "120946.299000", "120946.302000", "120946.304000", "120946.315000", "120946.321000", "120946.329000", "120946.336000", "120946.338000", "120946.341000", "120946.344000", "120946.347000", "120946.349000", "120946.352000", "120946.354000", "120946.357000", "120946.360000", "120946.362000", "121026.215000", "121026.230000", "121026.233000", "121026.236000", "121026.239000", "121026.241000", "121026.244000", "121026.247000", "121026.249000", "121026.252000", "121026.255000", "121026.257000", "121026.260000", "121026.263000", "121026.265000", "121026.268000", "121026.270000", "121026.273000", "121026.276000", "121026.278000", "121026.281000", "121026.284000", "121026.286000", "121026.289000", "121026.291000", "121026.294000", "121026.297000", "121026.299000", "121026.302000", "121026.305000", "121026.307000", "121026.310000", "121026.313000", "121106.214000", "121106.216000", "121106.219000", "121106.222000", "121106.225000", "121106.227000", "121106.230000", "121106.232000", "121106.235000", "121106.238000", "121106.240000", "121106.243000", "121106.246000", "121106.248000", "121106.251000", "121106.253000", "121106.256000", "121106.259000", "121106.261000", "121106.264000", "121106.267000", "121106.269000", "121106.280000", "121106.282000", "121106.285000", "121106.288000", "121106.290000", "121106.293000", "121106.295000", "121106.298000", "121106.301000", "121106.303000", "121106.306000", "121122.138000", "121122.141000", "121122.143000", "121122.146000", "121122.149000", "121122.151000", "121122.154000", "121122.157000", "121122.159000", "121122.162000", "121122.164000", "121122.168000", "121122.171000", "121122.174000"],
      "InstanceCreationTime": ["120746.219000", "120746.236000", "120746.239000", "120746.241000", "120746.244000", "120746.246000", "120746.249000", "120746.252000", "120746.254000", "120746.262000", "120746.265000", "120746.267000", "120746.270000", "120746.272000", "120746.275000", "120826.214000", "120826.217000", "120826.220000", "120826.222000", "120826.225000", "120826.228000", "120826.231000", "120826.233000", "120826.236000", "120826.239000", "120826.241000", "120826.244000", "120826.252000", "120826.255000", "120826.258000", "120826.260000", "120826.270000", "120826.272000", "120826.275000", "120826.277000", "120826.280000", "120826.283000", "120826.285000", "120826.288000", "120826.291000", "120826.293000", "120826.296000", "120826.299000", "120826.301000", "120826.304000", "120826.306000", "120826.309000", "120826.312000", "120906.214000", "120906.216000", "120906.219000", "120906.226000", "120906.243000", "120906.246000", "120906.249000", "120906.251000", "120906.254000", "120906.257000", "120906.259000", "120906.262000", "120906.264000", "120906.267000", "120906.269000", "120906.272000", "120906.275000", "120906.277000", "120906.280000", "120906.282000", "120906.285000", "120906.288000", "120906.290000", "120906.293000", "120906.296000", "120906.298000", "120906.301000", "120906.303000", "120906.306000", "120906.308000", "120906.311000", "120906.314000", "120906.316000", "120946.213000", "120946.223000", "120946.234000", "120946.243000", "120946.245000", "120946.248000", "120946.259000", "120946.262000", "120946.265000", "120946.268000", "120946.271000", "120946.273000", "120946.286000", "120946.288000", "120946.291000", "120946.294000", "120946.296000", "120946.299000", "120946.302000", "120946.304000", "120946.315000", "120946.321000", "120946.329000", "120946.336000", "120946.338000", "120946.341000", "120946.344000", "120946.347000", "120946.349000", "120946.352000", "120946.354000", "120946.357000", "120946.360000", "120946.362000", "121026.215000", "121026.230000", "121026.233000", "121026.236000", "121026.239000", "121026.241000", "121026.244000", "121026.247000", "121026.249000", "121026.252000", "121026.255000", "121026.257000", "121026.260000", "121026.263000", "121026.265000", "121026.268000", "121026.270000", "121026.273000", "121026.276000", "121026.278000", "121026.281000", "121026.284000", "121026.286000", "121026.289000", "121026.291000", "121026.294000", "121026.297000", "121026.299000", "121026.302000", "121026.305000", "121026.307000", "121026.310000", "121026.313000", "121106.214000", "121106.216000", "121106.219000", "121106.222000", "121106.225000", "121106.227000", "121106.230000", "121106.232000", "121106.235000", "121106.238000", "121106.240000", "121106.243000", "121106.246000", "121106.248000", "121106.251000", "121106.253000", "121106.256000", "121106.259000", "121106.261000", "121106.264000", "121106.267000", "121106.269000", "121106.280000", "121106.282000", "121106.285000", "121106.288000", "121106.290000", "121106.293000", "121106.295000", "121106.298000", "121106.301000", "121106.303000", "121106.306000", "121122.138000", "121122.141000", "121122.143000", "121122.146000", "121122.149000", "121122.151000", "121122.154000", "121122.157000", "121122.159000", "121122.162000", "121122.164000", "121122.168000", "121122.171000", "121122.174000"],
      "InstanceNumber": [1, 2, 3, 4, 5, 6, 7, 8, 9, 10, 11, 12, 13, 14, 15, 16, 17, 18, 19, 20, 21, 22, 23, 24, 25, 26, 27, 28, 29, 30, 31, 32, 33, 34, 35, 36, 37, 38, 39, 40, 41, 42, 43, 44, 45, 46, 47, 48, 49, 50, 51, 52, 53, 54, 55, 56, 57, 58, 59, 60, 61, 62, 63, 64, 65, 66, 67, 68, 69, 70, 71, 72, 73, 74, 75, 76, 77, 78, 79, 80, 81, 82, 83, 84, 85, 86, 87, 88, 89, 90, 91, 92, 93, 94, 95, 96, 97, 98, 99, 100, 101, 102, 103, 104, 105, 106, 107, 108, 109, 110, 111, 112, 113, 114, 115, 116, 117, 118, 119, 120, 121, 122, 123, 124, 125, 126, 127, 128, 129, 130, 131, 132, 133, 134, 135, 136, 137, 138, 139, 140, 141, 142, 143, 144, 145, 146, 147, 148, 149, 150, 151, 152, 153, 154, 155, 156, 157, 158, 159, 160, 161, 162, 163, 164, 165, 166, 167, 168, 169, 170, 171, 172, 173, 174, 175, 176, 177, 178, 179, 180, 181, 182, 183, 184, 185, 186, 187, 188, 189, 190, 191, 192, 193, 194, 195],
      "LargestImagePixelValue": [1942, 1910, 1872, 1874, 1873, 1865, 1850, 1856, 1858, 1851, 1830, 1849, 1842, 1847, 1836, 1834, 1843, 1821, 1846, 1832, 1853, 1854, 1838, 1847, 1848, 1829, 1866, 1853, 1861, 1859, 1854, 1863, 1877, 1837, 1830, 1842, 1851, 1827, 1830, 1843, 1829, 1835, 1827, 1836, 1823, 1833, 1852, 1840, 1841, 1846, 1846, 1860, 1834, 1835, 1829, 1827, 1844, 1826, 1829, 1820, 1825, 1829, 1814, 1818, 1818, 1831, 1835, 1836, 1835, 1836, 1821, 1835, 1834, 1838, 1826, 1824, 1821, 1827, 1811, 1835, 1842, 1828, 1819, 1847, 1839, 1839, 1840, 1836, 1841, 1849, 1832, 1828, 1838, 1832, 1837, 1841, 1839, 1827, 1828, 1838, 1831, 1844, 1816, 1843, 1824, 1842, 1830, 1824, 1842, 1834, 1845, 1836, 1842, 1814, 1837, 1840, 1831, 1831, 1845, 1841, 1851, 1820, 1834, 1823, 1835, 1830, 1838, 1835, 1851, 1858, 1838, 1840, 1822, 1832, 1848, 1840, 1849, 1837, 1829, 1848, 1830, 1830, 1818, 1827, 1830, 1840, 1833, 1846, 1815, 1853, 1822, 1847, 1827, 1847, 1829, 1850, 1825, 1857, 1823, 1829, 1852, 1837, 1836, 1856, 1823, 1857, 1833, 1849, 1831, 1840, 1854, 1815, 1822, 1893, 1868, 1873, 1842, 1869, 1837, 1867, 1842, 1891, 1858, 1860, 1867, 1861, 1854, 1856, 1861, 1838, 1863, 1856, 1848, 1843, 1857],
      "WindowCenter": [562.0, 560.0, 559.0, 559.0, 559.0, 559.0, 559.0, 558.0, 558.0, 558.0, 558.0, 559.0, 558.0, 558.0, 558.0, 558.0, 558.0, 558.0, 558.0, 558.0, 558.0, 557.0, 557.0, 558.0, 557.0, 557.0, 557.0, 556.0, 556.0, 556.0, 557.0, 560.0, 560.0, 560.0, 559.0, 558.0, 557.0, 556.0, 555.0, 555.0, 556.0, 556.0, 556.0, 556.0, 555.0, 556.0, 556.0, 556.0, 556.0, 557.0, 556.0, 557.0, 556.0, 557.0, 557.0, 558.0, 559.0, 558.0, 558.0, 557.0, 557.0, 556.0, 557.0, 557.0, 559.0, 560.0, 559.0, 558.0, 557.0, 556.0, 556.0, 557.0, 557.0, 557.0, 556.0, 556.0, 556.0, 556.0, 556.0, 557.0, 556.0, 556.0, 556.0, 557.0, 557.0, 557.0, 557.0, 557.0, 557.0, 558.0, 558.0, 558.0, 557.0, 557.0, 557.0, 557.0, 558.0, 558.0, 559.0, 559.0, 559.0, 558.0, 557.0, 557.0, 556.0, 557.0, 557.0, 557.0, 558.0, 557.0, 557.0, 557.0, 556.0, 556.0, 556.0, 557.0, 558.0, 559.0, 559.0, 558.0, 558.0, 557.0, 557.0, 556.0, 557.0, 557.0, 557.0, 558.0, 558.0, 557.0, 557.0, 557.0, 556.0, 557.0, 557.0, 557.0, 557.0, 557.0, 557.0, 558.0, 558.0, 557.0, 556.0, 556.0, 556.0, 557.0, 558.0, 558.0, 557.0, 558.0, 557.0, 557.0, 556.0, 557.0, 556.0, 558.0, 557.0, 558.0, 557.0, 557.0, 558.0, 558.0, 558.0, 559.0, 557.0, 557.0, 557.0, 556.0, 556.0, 556.0, 556.0, 556.0, 556.0, 558.0, 558.0, 557.0, 556.0, 556.0, 555.0, 555.0, 554.0, 555.0, 555.0, 556.0, 556.0, 556.0, 556.0, 556.0, 556.0, 556.0, 557.0, 558.0, 558.0, 559.0, 559.0],
      "WindowWidth": [1190.0, 1185.0, 1182.0, 1183.0, 1184.0, 1184.0, 1182.0, 1181.0, 1181.0, 1181.0, 1181.0, 1182.0, 1181.0, 1181.0, 1181.0, 1180.0, 1180.0, 1181.0, 1181.0, 1180.0, 1180.0, 1179.0, 1178.0, 1180.0, 1179.0, 1178.0, 1177.0, 1176.0, 1175.0, 1175.0, 1179.0, 1185.0, 1185.0, 1184.0, 1183.0, 1179.0, 1178.0, 1176.0, 1174.0, 1174.0, 1176.0, 1176.0, 1176.0, 1176.0, 1175.0, 1175.0, 1176.0, 1175.0, 1176.0, 1177.0, 1177.0, 1177.0, 1177.0, 1178.0, 1179.0, 1180.0, 1182.0, 1181.0, 1180.0, 1179.0, 1178.0, 1177.0, 1178.0, 1180.0, 1183.0, 1184.0, 1183.0, 1180.0, 1178.0, 1177.0, 1177.0, 1178.0, 1178.0, 1178.0, 1177.0, 1177.0, 1177.0, 1177.0, 1177.0, 1177.0, 1177.0, 1177.0, 1177.0, 1178.0, 1177.0, 1177.0, 1178.0, 1179.0, 1179.0, 1181.0, 1181.0, 1180.0, 1179.0, 1179.0, 1179.0, 1179.0, 1180.0, 1181.0, 1182.0, 1183.0, 1182.0, 1181.0, 1179.0, 1179.0, 1177.0, 1178.0, 1177.0, 1179.0, 1180.0, 1179.0, 1178.0, 1178.0, 1177.0, 1176.0, 1177.0, 1179.0, 1182.0, 1182.0, 1182.0, 1180.0, 1180.0, 1178.0, 1178.0, 1177.0, 1177.0, 1178.0, 1179.0, 1180.0, 1180.0, 1179.0, 1178.0, 1178.0, 1177.0, 1179.0, 1179.0, 1179.0, 1179.0, 1178.0, 1179.0, 1182.0, 1181.0, 1179.0, 1177.0, 1177.0, 1177.0, 1179.0, 1180.0, 1181.0, 1179.0, 1180.0, 1178.0, 1178.0, 1177.0, 1178.0, 1177.0, 1179.0, 1178.0, 1179.0, 1178.0, 1178.0, 1179.0, 1181.0, 1181.0, 1182.0, 1179.0, 1179.0, 1177.0, 1177.0, 1176.0, 1176.0, 1177.0, 1175.0, 1176.0, 1181.0, 1179.0, 1178.0, 1176.0, 1177.0, 1175.0, 1173.0, 1171.0, 1174.0, 1174.0, 1175.0, 1175.0, 1176.0, 1176.0, 1175.0, 1175.0, 1176.0, 1178.0, 1180.0, 1181.0, 1183.0, 1182.0]
    },
    "slices": {}
  }
}