{
  "AcquisitionMatrixPE": 88,
  "AcquisitionNumber": 1,
  "AcquisitionTime": "11:36:13.350000",
  "BandwidthPerPixelPhaseEncode": 19.592,
  "BaseResolution": 88,
  "BodyPartExamined": "BRAIN",
  "ConsistencyInfo": "N4_VE11C_LATEST_20160120",
  "ConversionSoftware": "dcm2niix",
  "ConversionSoftwareVersion": "v1.0.20190902",
  "DerivedVendorReportedEchoSpacing": 0.000580014,
  "DeviceSerialNumber": "67050",
  "DwellTime": 2.6e-06,
  "EchoTime": 0.033,
  "EchoTrainLength": 88,
  "EffectiveEchoSpacing": 0.000580014,
  "FlipAngle": 62,
  "ImageOrientationPatientDICOM": [0.999151, -0.032854, 0.0248782, 0.0371611, 0.979239, -0.199276],
  "ImageType": [
    "ORIGINAL",
    "PRIMARY",
    "M",
    "ND",
    "MOSAIC"
],
  "ImagingFrequency": 123.251,
  "InPlanePhaseEncodingDirectionDICOM": "COL",
  "InstitutionAddress": "Olive_Street_60_Providence_RI_US_02912",
  "InstitutionName": "BROWN_UNIVERSITY_MRF",
  "InstitutionalDepartmentName": "Department",
  "MRAcquisitionType": "2D",
  "MagneticFieldStrength": 3,
  "Manufacturer": "Siemens",
  "ManufacturersModelName": "Prisma_fit",
  "Modality": "MR",
  "MultibandAccelerationFactor": 4,
  "PartialFourier": 1,
  "PatientPosition": "HFS",
  "PercentPhaseFOV": 100,
  "PhaseEncodingDirection": "j-",
  "PhaseEncodingSteps": 88,
  "PhaseResolution": 1,
  "PixelBandwidth": 2185,
  "ProcedureStepDescription": "ASHENHAV_1222",
  "ProtocolName": "func-bold_task-RDMmotion_run-05",
  "PulseSequenceDetails": "%SiemensSeq%_ep2d_bold",
  "ReceiveCoilActiveElements": "HC1-7;NC1",
  "ReceiveCoilName": "HeadNeck_64",
  "ReconMatrixPE": 88,
  "RefLinesPE": 8,
  "RepetitionTime": 1.2,
  "SAR": 0.047626,
  "ScanOptions": "FS",
  "ScanningSequence": "EP",
  "SequenceName": "_epfid2d1_88",
  "SequenceVariant": "SK",
  "SeriesDescription": "func-bold_task-RDMmotion_run-05",
  "SeriesNumber": 15,
  "ShimSetting": [1742, -9059, 4360, 382, -119, -362, -24, -68],
  "SliceThickness": 2.4,
  "SliceTiming": [0.55, 0, 0.6275, 0.0775, 0.7075, 0.1575, 0.785, 0.235, 0.865, 0.3125, 0.9425, 0.3925, 1.0225, 0.47, 1.1, 0.55, 0, 0.6275, 0.0775, 0.7075, 0.1575, 0.785, 0.235, 0.865, 0.3125, 0.9425, 0.3925, 1.0225, 0.47, 1.1, 0.55, 0, 0.6275, 0.0775, 0.7075, 0.1575, 0.785, 0.235, 0.865, 0.3125, 0.9425, 0.3925, 1.0225, 0.47, 1.1, 0.55, 0, 0.6275, 0.0775, 0.7075, 0.1575, 0.785, 0.235, 0.865, 0.3125, 0.9425, 0.3925, 1.0225, 0.47, 1.1],
  "SoftwareVersions": "syngo_MR_E11",
  "SpacingBetweenSlices": 2.4,
  "StationName": "AWP67050",
  "TaskName": "RDMmotion",
  "TotalReadoutTime": 0.0504612,
  "TxRefAmp": 251.74,
  "dcmmeta_affine": [
    [-2.395690441131592, 0.0891021266579628, 0.04275523126125336, 100.81504821777344],
    [0.07877487689256668, 2.347946882247925, -0.4800748825073242, -76.80107879638672],
    [0.05965112894773483, 0.47780948877334595, 2.3511059284210205, -92.32898712158203],
    [0.0, 0.0, 0.0, 1.0]
],
  "dcmmeta_reorient_transform": [
    [0.0, -1.0, 0.0, 87.0],
    [1.0, 0.0, 0.0, 0.0],
    [0.0, 0.0, 1.0, 0.0],
    [0.0, 0.0, 0.0, 1.0]
],
  "dcmmeta_shape": [88, 88, 60, 125],
  "dcmmeta_slice_dim": 2,
  "dcmmeta_version": 0.6,
  "global": {
    "const": {
      "AcquisitionMatrix": [88, 0, 0, 88],
      "AngioFlag": "N",
      "BitsAllocated": 16,
      "BitsStored": 12,
      "BodyPartExamined": "BRAIN",
      "Columns": 704,
      "DeidentificationMethodCodeSequence": [
        {
          "CodeMeaning": "XNAT DicomEdit 6 Script",
          "CodeValue": "3",
          "CodingSchemeDesignator": "XNAT",
          "CodingSchemeVersion": "1.0"}
],
      "EchoNumbers": 1,
      "EchoTime": 33.0,
      "EchoTrainLength": 88,
      "FlipAngle": 62.0,
      "HighBit": 11,
      "ImageOrientationPatient": [0.99915048495405, -0.032853976555, 0.02487819608818, 0.03716107637795, 0.97923854786965, -0.1992759914505],
      "ImagePositionPatient": [-873.88301286131, -826.37530665648, 78.033206766272],
      "ImageType": [
        "ORIGINAL",
        "PRIMARY",
        "M",
        "ND",
        "MOSAIC"
],
      "ImagedNucleus": "1H",
      "ImagingFrequency": 123.250738,
      "InPlanePhaseEncodingDirection": "COL",
      "MRAcquisitionType": "2D",
      "MagneticFieldStrength": 3.0,
      "Manufacturer": "SIEMENS",
      "ManufacturerModelName": "Prisma_fit",
      "Modality": "MR",
      "NumberOfAverages": 1.0,
      "NumberOfPhaseEncodingSteps": 88,
      "PercentPhaseFieldOfView": 100.0,
      "PercentSampling": 100.0,
      "PerformedProcedureStepStartTime": "104137.407000",
      "PhotometricInterpretation": "MONOCHROME2",
      "PixelBandwidth": 2185.0,
      "PixelRepresentation": 0,
      "PixelSpacing": [2.3977272510529, 2.3977272510529],
      "ProtocolName": "func-bold_task-RDMmotion_run-05",
      "RepetitionTime": 1200.0,
      "Rows": 704,
      "SAR": 0.04762594963569,
      "SamplesPerPixel": 1,
      "ScanOptions": "FS",
      "ScanningSequence": "EP",
      "SequenceName": "*epfid2d1_88",
      "SequenceVariant": "SK",
      "SeriesDescription": "func-bold_task-RDMmotion_run-05",
      "SeriesNumber": 15,
      "SeriesTime": "113652.112000",
      "SliceLocation": -73.2894215974,
      "SliceThickness": 2.4000000953674,
      "SmallestImagePixelValue": 0,
      "SoftwareVersions": "syngo MR E11",
      "SpacingBetweenSlices": 2.3999998934776,
      "SpecificCharacterSet": "ISO_IR 100",
      "StudyID": "1",
      "StudyTime": "104137.264000",
      "TransmitCoilName": "Body",
      "VariableFlipAngleFlag": "N",
      "WindowCenterWidthExplanation": "Algo1",
      "dBdt": 0.0},
    "slices": {}
  },
  "time": {
    "samples": {
      "AcquisitionNumber": [1, 2, 3, 4, 5, 6, 7, 8, 9, 10, 11, 12, 13, 14, 15, 16, 17, 18, 19, 20, 21, 22, 23, 24, 25, 26, 27, 28, 29, 30, 31, 32, 33, 34, 35, 36, 37, 38, 39, 40, 41, 42, 43, 44, 45, 46, 47, 48, 49, 50, 51, 52, 53, 54, 55, 56, 57, 58, 59, 60, 61, 62, 63, 64, 65, 66, 67, 68, 69, 70, 71, 72, 73, 74, 75, 76, 77, 78, 79, 80, 81, 82, 83, 84, 85, 86, 87, 88, 89, 90, 91, 92, 93, 94, 95, 96, 97, 98, 99, 100, 101, 102, 103, 104, 105, 106, 107, 108, 109, 110, 111, 112, 113, 114, 115, 116, 117, 118, 119, 120, 121, 122, 123, 124, 125],
      "AcquisitionTime": ["113613.350000", "113614.550000", "113615.750000", "113616.950000", "113618.150000", "113619.350000", "113620.550000", "113621.750000", "113622.950000", "113624.150000", "113625.350000", "113626.550000", "113627.750000", "113628.950000", "113630.150000", "113631.350000", "113632.550000", "113633.750000", "113634.950000", "113636.150000", "113637.350000", "113638.550000", "113639.750000", "113640.950000", "113642.150000", "113643.350000", "113644.550000", "113645.750000", "113646.950000", "113648.150000", "113649.350000", "113650.550000", "113651.750000", "113652.950000", "113654.150000", "113655.350000", "113656.550000", "113657.750000", "113658.950000", "113700.150000", "113701.350000", "113702.550000", "113703.750000", "113704.950000", "113706.150000", "113707.350000", "113708.550000", "113709.750000", "113710.950000", "113712.150000", "113713.350000", "113714.550000", "113715.750000", "113716.950000", "113718.150000", "113719.350000", "113720.550000", "113721.750000", "113722.950000", "113724.150000", "113725.350000", "113726.550000", "113727.750000", "113728.950000", "113730.150000", "113731.350000", "113732.550000", "113733.750000", "113734.950000", "113736.150000", "113737.350000", "113738.550000", "113739.750000", "113740.950000", "113742.150000", "113743.350000", "113744.550000", "113745.750000", "113746.950000", "113748.150000", "113749.350000", "113750.550000", "113751.750000", "113752.950000", "113754.150000", "113755.350000", "113756.550000", "113757.750000", "113758.950000", "113800.150000", "113801.350000", "113802.550000", "113803.750000", "113804.950000", "113806.150000", "113807.350000", "113808.550000", "113809.750000", "113810.950000", "113812.150000", "113813.350000", "113814.550000", "113815.750000", "113816.950000", "113818.150000", "113819.350000", "113820.550000", "113821.750000", "113822.950000", "113824.150000", "113825.350000", "113826.550000", "113827.750000", "113828.950000", "113830.150000", "113831.350000", "113832.550000", "113833.750000", "113834.950000", "113836.150000", "113837.350000", "113838.550000", "113839.750000", "113840.950000", "113842.150000"],
      "ContentTime": ["113652.116000", "113652.119000", "113652.122000", "113652.124000", "113652.134000", "113652.137000", "113652.139000", "113652.142000", "113652.145000", "113652.147000", "113652.150000", "113652.152000", "113652.155000", "113652.158000", "113652.160000", "113652.163000", "113652.165000", "113652.168000", "113652.170000", "113652.173000", "113652.176000", "113652.178000", "113652.181000", "113652.183000", "113652.186000", "113652.189000", "113652.195000", "113652.198000", "113652.200000", "113652.203000", "113652.206000", "113732.112000", "113732.114000", "113732.117000", "113732.120000", "113732.122000", "113732.125000", "113732.127000", "113732.130000", "113732.132000", "113732.135000", "113732.138000", "113732.140000", "113732.143000", "113732.147000", "113732.150000", "113732.153000", "113732.155000", "113732.159000", "113732.162000", "113732.165000", "113732.167000", "113732.170000", "113732.172000", "113732.175000", "113732.177000", "113732.180000", "113732.183000", "113732.185000", "113732.188000", "113732.190000", "113732.193000", "113732.195000", "113732.198000", "113732.201000", "113812.112000", "113812.114000", "113812.117000", "113812.120000", "113812.122000", "113812.125000", "113812.127000", "113812.130000", "113812.133000", "113812.135000", "113812.138000", "113812.140000", "113812.143000", "113812.145000", "113812.148000", "113812.151000", "113812.153000", "113812.156000", "113812.158000", "113812.161000", "113812.164000", "113812.166000", "113812.169000", "113812.171000", "113812.174000", "113812.176000", "113812.179000", "113812.182000", "113812.184000", "113812.191000", "113812.193000", "113812.196000", "113812.198000", "113844.081000", "113844.084000", "113844.087000", "113844.089000", "113844.092000", "113844.094000", "113844.097000", "113844.100000", "113844.102000", "113844.105000", "113844.108000", "113844.110000", "113844.113000", "113844.116000", "113844.118000", "113844.121000", "113844.123000", "113844.126000", "113844.128000", "113844.131000", "113844.134000", "113844.136000", "113844.139000", "113844.142000", "113844.144000", "113844.147000", "113844.150000"],
      "InstanceCreationTime": ["113652.116000", "113652.119000", "113652.122000", "113652.124000", "113652.134000", "113652.137000", "113652.139000", "113652.142000", "113652.145000", "113652.147000", "113652.150000", "113652.152000", "113652.155000", "113652.158000", "113652.160000", "113652.163000", "113652.165000", "113652.168000", "113652.170000", "113652.173000", "113652.176000", "113652.178000", "113652.181000", "113652.183000", "113652.186000", "113652.189000", "113652.195000", "113652.198000", "113652.200000", "113652.203000", "113652.206000", "113732.112000", "113732.114000", "113732.117000", "113732.120000", "113732.122000", "113732.125000", "113732.127000", "113732.130000", "113732.132000", "113732.135000", "113732.138000", "113732.140000", "113732.143000", "113732.147000", "113732.150000", "113732.153000", "113732.155000", "113732.159000", "113732.162000", "113732.165000", "113732.167000", "113732.170000", "113732.172000", "113732.175000", "113732.177000", "113732.180000", "113732.183000", "113732.185000", "113732.188000", "113732.190000", "113732.193000", "113732.195000", "113732.198000", "113732.201000", "113812.112000", "113812.114000", "113812.117000", "113812.120000", "113812.122000", "113812.125000", "113812.127000", "113812.130000", "113812.133000", "113812.135000", "113812.138000", "113812.140000", "113812.143000", "113812.145000", "113812.148000", "113812.151000", "113812.153000", "113812.156000", "113812.158000", "113812.161000", "113812.164000", "113812.166000", "113812.169000", "113812.171000", "113812.174000", "113812.176000", "113812.179000", "113812.182000", "113812.184000", "113812.191000", "113812.193000", "113812.196000", "113812.198000", "113844.081000", "113844.084000", "113844.087000", "113844.089000", "113844.092000", "113844.094000", "113844.097000", "113844.100000", "113844.102000", "113844.105000", "113844.108000", "113844.110000", "113844.113000", "113844.116000", "113844.118000", "113844.121000", "113844.123000", "113844.126000", "113844.128000", "113844.131000", "113844.134000", "113844.136000", "113844.139000", "113844.142000", "113844.144000", "113844.147000", "113844.150000"],
      "InstanceNumber": [1, 2, 3, 4, 5, 6, 7, 8, 9, 10, 11, 12, 13, 14, 15, 16, 17, 18, 19, 20, 21, 22, 23, 24, 25, 26, 27, 28, 29, 30, 31, 32, 33, 34, 35, 36, 37, 38, 39, 40, 41, 42, 43, 44, 45, 46, 47, 48, 49, 50, 51, 52, 53, 54, 55, 56, 57, 58, 59, 60, 61, 62, 63, 64, 65, 66, 67, 68, 69, 70, 71, 72, 73, 74, 75, 76, 77, 78, 79, 80, 81, 82, 83, 84, 85, 86, 87, 88, 89, 90, 91, 92, 93, 94, 95, 96, 97, 98, 99, 100, 101, 102, 103, 104, 105, 106, 107, 108, 109, 110, 111, 112, 113, 114, 115, 116, 117, 118, 119, 120, 121, 122, 123, 124, 125],
      "LargestImagePixelValue": [2018, 1962, 1906, 1917, 1916, 1901, 1920, 1892, 1912, 1872, 1908, 1863, 1913, 1879, 1910, 1888, 1909, 1868, 1908, 1878, 1910, 1892, 1899, 1900, 1911, 1907, 1909, 1906, 1865, 1920, 1899, 1914, 1892, 1917, 1879, 1915, 1904, 1914, 1901, 1897, 1919, 1883, 1922, 1890, 1930, 1884, 1894, 1923, 1906, 1914, 1872, 1907, 1903, 1910, 1893, 1917, 1908, 1906, 1897, 1919, 1866, 1901, 1879, 1890, 1895, 1911, 1899, 1923, 1864, 1919, 1895, 1927, 1893, 1937, 1876, 1919, 1877, 1907, 1898, 1899, 1900, 1907, 1902, 1912, 1913, 1905, 1906, 1914, 1910, 1903, 1925, 1891, 1929, 1873, 1912, 1915, 1903, 1887, 1904, 1914, 1914, 1886, 1917, 1901, 1928, 1852, 1894, 1888, 1892, 1885, 1918, 1868, 1921, 1885, 1900, 1879, 1897, 1885, 1926, 1896, 1933, 1847, 1822, 1879, 1904],
      "WindowCenter": [571.0, 569.0, 567.0, 567.0, 567.0, 566.0, 567.0, 566.0, 567.0, 566.0, 567.0, 566.0, 567.0, 566.0, 566.0, 566.0, 566.0, 565.0, 566.0, 566.0, 567.0, 566.0, 566.0, 565.0, 566.0, 565.0, 566.0, 566.0, 566.0, 566.0, 566.0, 565.0, 565.0, 566.0, 566.0, 567.0, 567.0, 567.0, 567.0, 566.0, 567.0, 565.0, 567.0, 567.0, 568.0, 568.0, 567.0, 567.0, 566.0, 565.0, 564.0, 564.0, 564.0, 565.0, 565.0, 565.0, 565.0, 565.0, 565.0, 566.0, 565.0, 566.0, 565.0, 566.0, 566.0, 565.0, 564.0, 565.0, 564.0, 566.0, 566.0, 567.0, 567.0, 567.0, 565.0, 566.0, 565.0, 566.0, 566.0, 566.0, 566.0, 566.0, 565.0, 566.0, 566.0, 565.0, 566.0, 566.0, 565.0, 566.0, 566.0, 566.0, 566.0, 566.0, 567.0, 566.0, 566.0, 565.0, 565.0, 565.0, 565.0, 566.0, 566.0, 566.0, 567.0, 565.0, 566.0, 565.0, 566.0, 566.0, 566.0, 565.0, 566.0, 564.0, 565.0, 564.0, 565.0, 565.0, 566.0, 566.0, 566.0, 565.0, 565.0, 566.0, 565.0],
      "WindowWidth": [1208.0, 1203.0, 1199.0, 1199.0, 1198.0, 1198.0, 1198.0, 1198.0, 1199.0, 1199.0, 1199.0, 1198.0, 1199.0, 1197.0, 1198.0, 1197.0, 1197.0, 1196.0, 1197.0, 1197.0, 1198.0, 1197.0, 1197.0, 1196.0, 1196.0, 1196.0, 1196.0, 1196.0, 1197.0, 1198.0, 1196.0, 1196.0, 1195.0, 1197.0, 1197.0, 1199.0, 1199.0, 1200.0, 1199.0, 1198.0, 1198.0, 1196.0, 1199.0, 1200.0, 1202.0, 1201.0, 1200.0, 1198.0, 1196.0, 1196.0, 1194.0, 1194.0, 1194.0, 1195.0, 1195.0, 1195.0, 1195.0, 1196.0, 1196.0, 1198.0, 1196.0, 1197.0, 1196.0, 1196.0, 1196.0, 1194.0, 1193.0, 1194.0, 1193.0, 1196.0, 1197.0, 1200.0, 1200.0, 1200.0, 1196.0, 1196.0, 1195.0, 1196.0, 1197.0, 1197.0, 1196.0, 1196.0, 1196.0, 1197.0, 1196.0, 1196.0, 1196.0, 1197.0, 1196.0, 1196.0, 1197.0, 1197.0, 1198.0, 1198.0, 1199.0, 1198.0, 1197.0, 1196.0, 1196.0, 1196.0, 1196.0, 1197.0, 1198.0, 1198.0, 1198.0, 1195.0, 1197.0, 1196.0, 1197.0, 1197.0, 1197.0, 1195.0, 1196.0, 1194.0, 1194.0, 1194.0, 1195.0, 1196.0, 1198.0, 1198.0, 1197.0, 1196.0, 1196.0, 1197.0, 1196.0]
    },
    "slices": {}
  }
}