{
  "AcquisitionMatrixPE": 88,
  "AcquisitionNumber": 1,
  "AcquisitionTime": "11:24:38.407500",
  "BandwidthPerPixelPhaseEncode": 19.592,
  "BaseResolution": 88,
  "BodyPartExamined": "BRAIN",
  "ConsistencyInfo": "N4_VE11C_LATEST_20160120",
  "ConversionSoftware": "dcm2niix",
  "ConversionSoftwareVersion": "v1.0.20190902",
  "DerivedVendorReportedEchoSpacing": 0.000580014,
  "DeviceSerialNumber": "67050",
  "DwellTime": 2.6e-06,
  "EchoTime": 0.033,
  "EchoTrainLength": 88,
  "EffectiveEchoSpacing": 0.000580014,
  "FlipAngle": 62,
  "ImageOrientationPatientDICOM": [0.999151, -0.032854, 0.0248782, 0.0371611, 0.979239, -0.199276],
  "ImageType": [
    "ORIGINAL",
    "PRIMARY",
    "M",
    "ND",
    "MOSAIC"
],
  "ImagingFrequency": 123.251,
  "InPlanePhaseEncodingDirectionDICOM": "COL",
  "InstitutionAddress": "Olive_Street_60_Providence_RI_US_02912",
  "InstitutionName": "BROWN_UNIVERSITY_MRF",
  "InstitutionalDepartmentName": "Department",
  "MRAcquisitionType": "2D",
  "MagneticFieldStrength": 3,
  "Manufacturer": "Siemens",
  "ManufacturersModelName": "Prisma_fit",
  "Modality": "MR",
  "MultibandAccelerationFactor": 4,
  "PartialFourier": 1,
  "PatientPosition": "HFS",
  "PercentPhaseFOV": 100,
  "PhaseEncodingDirection": "j-",
  "PhaseEncodingSteps": 88,
  "PhaseResolution": 1,
  "PixelBandwidth": 2185,
  "ProcedureStepDescription": "ASHENHAV_1222",
  "ProtocolName": "func-bold_task-RDMmotion_run-04",
  "PulseSequenceDetails": "%SiemensSeq%_ep2d_bold",
  "ReceiveCoilActiveElements": "HC1-7;NC1",
  "ReceiveCoilName": "HeadNeck_64",
  "ReconMatrixPE": 88,
  "RefLinesPE": 8,
  "RepetitionTime": 1.2,
  "SAR": 0.047626,
  "ScanOptions": "FS",
  "ScanningSequence": "EP",
  "SequenceName": "_epfid2d1_88",
  "SequenceVariant": "SK",
  "SeriesDescription": "func-bold_task-RDMmotion_run-04",
  "SeriesNumber": 13,
  "ShimSetting": [1742, -9059, 4360, 382, -119, -362, -24, -68],
  "SliceThickness": 2.4,
  "SliceTiming": [0.55, 0, 0.63, 0.08, 0.7075, 0.1575, 0.7875, 0.235, 0.865, 0.315, 0.945, 0.3925, 1.0225, 0.4725, 1.1025, 0.55, 0, 0.63, 0.08, 0.7075, 0.1575, 0.7875, 0.235, 0.865, 0.315, 0.945, 0.3925, 1.0225, 0.4725, 1.1025, 0.55, 0, 0.63, 0.08, 0.7075, 0.1575, 0.7875, 0.235, 0.865, 0.315, 0.945, 0.3925, 1.0225, 0.4725, 1.1025, 0.55, 0, 0.63, 0.08, 0.7075, 0.1575, 0.7875, 0.235, 0.865, 0.315, 0.945, 0.3925, 1.0225, 0.4725, 1.1025],
  "SoftwareVersions": "syngo_MR_E11",
  "SpacingBetweenSlices": 2.4,
  "StationName": "AWP67050",
  "TaskName": "RDMmotion",
  "TotalReadoutTime": 0.0504612,
  "TxRefAmp": 251.74,
  "dcmmeta_affine": [
    [-2.395690441131592, 0.0891021266579628, 0.04275523126125336, 100.81504821777344],
    [0.07877487689256668, 2.347946882247925, -0.4800748825073242, -76.80107879638672],
    [0.05965112894773483, 0.47780948877334595, 2.3511059284210205, -92.32898712158203],
    [0.0, 0.0, 0.0, 1.0]
],
  "dcmmeta_reorient_transform": [
    [0.0, -1.0, 0.0, 87.0],
    [1.0, 0.0, 0.0, 0.0],
    [0.0, 0.0, 1.0, 0.0],
    [0.0, 0.0, 0.0, 1.0]
],
  "dcmmeta_shape": [88, 88, 60, 125],
  "dcmmeta_slice_dim": 2,
  "dcmmeta_version": 0.6,
  "global": {
    "const": {
      "AcquisitionMatrix": [88, 0, 0, 88],
      "AngioFlag": "N",
      "BitsAllocated": 16,
      "BitsStored": 12,
      "BodyPartExamined": "BRAIN",
      "Columns": 704,
      "DeidentificationMethodCodeSequence": [
        {
          "CodeMeaning": "XNAT DicomEdit 6 Script",
          "CodeValue": "3",
          "CodingSchemeDesignator": "XNAT",
          "CodingSchemeVersion": "1.0"}
],
      "EchoNumbers": 1,
      "EchoTime": 33.0,
      "EchoTrainLength": 88,
      "FlipAngle": 62.0,
      "HighBit": 11,
      "ImageOrientationPatient": [0.99915048495405, -0.032853976555, 0.02487819608818, 0.03716107637795, 0.97923854786965, -0.1992759914505],
      "ImagePositionPatient": [-873.88301286131, -826.37530665648, 78.033206766272],
      "ImageType": [
        "ORIGINAL",
        "PRIMARY",
        "M",
        "ND",
        "MOSAIC"
],
      "ImagedNucleus": "1H",
      "ImagingFrequency": 123.250737,
      "InPlanePhaseEncodingDirection": "COL",
      "MRAcquisitionType": "2D",
      "MagneticFieldStrength": 3.0,
      "Manufacturer": "SIEMENS",
      "ManufacturerModelName": "Prisma_fit",
      "Modality": "MR",
      "NumberOfAverages": 1.0,
      "NumberOfPhaseEncodingSteps": 88,
      "PercentPhaseFieldOfView": 100.0,
      "PercentSampling": 100.0,
      "PerformedProcedureStepStartTime": "104137.407000",
      "PhotometricInterpretation": "MONOCHROME2",
      "PixelBandwidth": 2185.0,
      "PixelRepresentation": 0,
      "PixelSpacing": [2.3977272510529, 2.3977272510529],
      "ProtocolName": "func-bold_task-RDMmotion_run-04",
      "RepetitionTime": 1200.0,
      "Rows": 704,
      "SAR": 0.04762594963569,
      "SamplesPerPixel": 1,
      "ScanOptions": "FS",
      "ScanningSequence": "EP",
      "SequenceName": "*epfid2d1_88",
      "SequenceVariant": "SK",
      "SeriesDescription": "func-bold_task-RDMmotion_run-04",
      "SeriesNumber": 13,
      "SeriesTime": "112506.215000",
      "SliceLocation": -73.2894215974,
      "SliceThickness": 2.4000000953674,
      "SmallestImagePixelValue": 0,
      "SoftwareVersions": "syngo MR E11",
      "SpacingBetweenSlices": 2.3999998934776,
      "SpecificCharacterSet": "ISO_IR 100",
      "StudyID": "1",
      "StudyTime": "104137.264000",
      "TransmitCoilName": "Body",
      "VariableFlipAngleFlag": "N",
      "WindowCenterWidthExplanation": "Algo1",
      "dBdt": 0.0},
    "slices": {}
  },
  "time": {
    "samples": {
      "AcquisitionNumber": [1, 2, 3, 4, 5, 6, 7, 8, 9, 10, 11, 12, 13, 14, 15, 16, 17, 18, 19, 20, 21, 22, 23, 24, 25, 26, 27, 28, 29, 30, 31, 32, 33, 34, 35, 36, 37, 38, 39, 40, 41, 42, 43, 44, 45, 46, 47, 48, 49, 50, 51, 52, 53, 54, 55, 56, 57, 58, 59, 60, 61, 62, 63, 64, 65, 66, 67, 68, 69, 70, 71, 72, 73, 74, 75, 76, 77, 78, 79, 80, 81, 82, 83, 84, 85, 86, 87, 88, 89, 90, 91, 92, 93, 94, 95, 96, 97, 98, 99, 100, 101, 102, 103, 104, 105, 106, 107, 108, 109, 110, 111, 112, 113, 114, 115, 116, 117, 118, 119, 120, 121, 122, 123, 124, 125],
      "AcquisitionTime": ["112438.407500", "112439.607500", "112440.807500", "112442.007500", "112443.207500", "112444.407500", "112445.607500", "112446.807500", "112448.007500", "112449.207500", "112450.407500", "112451.607500", "112452.807500", "112454.007500", "112455.207500", "112456.407500", "112457.607500", "112458.807500", "112500.007500", "112501.207500", "112502.407500", "112503.607500", "112504.807500", "112506.007500", "112507.207500", "112508.407500", "112509.607500", "112510.807500", "112512.007500", "112513.207500", "112514.407500", "112515.607500", "112516.807500", "112518.007500", "112519.207500", "112520.407500", "112521.607500", "112522.807500", "112524.007500", "112525.207500", "112526.407500", "112527.607500", "112528.807500", "112530.007500", "112531.207500", "112532.407500", "112533.607500", "112534.807500", "112536.007500", "112537.207500", "112538.407500", "112539.607500", "112540.807500", "112542.007500", "112543.207500", "112544.407500", "112545.607500", "112546.807500", "112548.007500", "112549.207500", "112550.407500", "112551.607500", "112552.807500", "112554.007500", "112555.207500", "112556.407500", "112557.607500", "112558.807500", "112600.007500", "112601.207500", "112602.407500", "112603.607500", "112604.807500", "112606.007500", "112607.207500", "112608.407500", "112609.607500", "112610.807500", "112612.007500", "112613.207500", "112614.407500", "112615.607500", "112616.807500", "112618.007500", "112619.207500", "112620.407500", "112621.607500", "112622.807500", "112624.007500", "112625.207500", "112626.407500", "112627.607500", "112628.807500", "112630.007500", "112631.207500", "112632.407500", "112633.607500", "112634.807500", "112636.007500", "112637.207500", "112638.407500", "112639.607500", "112640.807500", "112642.007500", "112643.207500", "112644.407500", "112645.607500", "112646.807500", "112648.007500", "112649.207500", "112650.407500", "112651.607500", "112652.807500", "112654.007500", "112655.207500", "112656.407500", "112657.607500", "112658.807500", "112700.007500", "112701.207500", "112702.407500", "112703.607500", "112704.807500", "112706.007500", "112707.207500"],
      "ContentTime": ["112506.218000", "112506.221000", "112506.224000", "112506.231000", "112506.233000", "112506.236000", "112506.238000", "112506.241000", "112506.244000", "112506.246000", "112506.249000", "112506.251000", "112506.259000", "112506.262000", "112506.265000", "112506.267000", "112506.270000", "112506.273000", "112506.275000", "112506.278000", "112506.287000", "112506.289000", "112506.292000", "112546.213000", "112546.216000", "112546.219000", "112546.221000", "112546.224000", "112546.227000", "112546.229000", "112546.232000", "112546.234000", "112546.237000", "112546.240000", "112546.242000", "112546.245000", "112546.247000", "112546.250000", "112546.253000", "112546.255000", "112546.258000", "112546.261000", "112546.263000", "112546.266000", "112546.268000", "112546.271000", "112546.274000", "112546.276000", "112546.279000", "112546.281000", "112546.290000", "112546.293000", "112546.295000", "112546.298000", "112546.301000", "112546.303000", "112626.214000", "112626.217000", "112626.220000", "112626.223000", "112626.225000", "112626.228000", "112626.230000", "112626.233000", "112626.236000", "112626.238000", "112626.241000", "112626.243000", "112626.246000", "112626.248000", "112626.251000", "112626.254000", "112626.256000", "112626.259000", "112626.261000", "112626.264000", "112626.267000", "112626.269000", "112626.272000", "112626.274000", "112626.277000", "112626.280000", "112626.282000", "112626.285000", "112626.288000", "112626.290000", "112626.293000", "112626.296000", "112626.298000", "112706.214000", "112706.216000", "112706.219000", "112706.222000", "112706.224000", "112706.227000", "112706.230000", "112706.232000", "112706.235000", "112706.237000", "112706.240000", "112706.243000", "112706.245000", "112706.248000", "112706.250000", "112706.253000", "112706.255000", "112706.258000", "112706.261000", "112706.263000", "112706.266000", "112706.268000", "112706.271000", "112706.274000", "112706.276000", "112706.279000", "112706.281000", "112706.284000", "112706.299000", "112706.302000", "112706.305000", "112706.307000", "112706.310000", "112706.312000", "112708.528000", "112708.531000"],
      "InstanceCreationTime": ["112506.218000", "112506.221000", "112506.224000", "112506.231000", "112506.233000", "112506.236000", "112506.238000", "112506.241000", "112506.244000", "112506.246000", "112506.249000", "112506.251000", "112506.259000", "112506.262000", "112506.265000", "112506.267000", "112506.270000", "112506.273000", "112506.275000", "112506.278000", "112506.287000", "112506.289000", "112506.292000", "112546.213000", "112546.216000", "112546.219000", "112546.221000", "112546.224000", "112546.227000", "112546.229000", "112546.232000", "112546.234000", "112546.237000", "112546.240000", "112546.242000", "112546.245000", "112546.247000", "112546.250000", "112546.253000", "112546.255000", "112546.258000", "112546.261000", "112546.263000", "112546.266000", "112546.268000", "112546.271000", "112546.274000", "112546.276000", "112546.279000", "112546.281000", "112546.290000", "112546.293000", "112546.295000", "112546.298000", "112546.301000", "112546.303000", "112626.214000", "112626.217000", "112626.220000", "112626.223000", "112626.225000", "112626.228000", "112626.230000", "112626.233000", "112626.236000", "112626.238000", "112626.241000", "112626.243000", "112626.246000", "112626.248000", "112626.251000", "112626.254000", "112626.256000", "112626.259000", "112626.261000", "112626.264000", "112626.267000", "112626.269000", "112626.272000", "112626.274000", "112626.277000", "112626.280000", "112626.282000", "112626.285000", "112626.288000", "112626.290000", "112626.293000", "112626.296000", "112626.298000", "112706.214000", "112706.216000", "112706.219000", "112706.222000", "112706.224000", "112706.227000", "112706.230000", "112706.232000", "112706.235000", "112706.237000", "112706.240000", "112706.243000", "112706.245000", "112706.248000", "112706.250000", "112706.253000", "112706.255000", "112706.258000", "112706.261000", "112706.263000", "112706.266000", "112706.268000", "112706.271000", "112706.274000", "112706.276000", "112706.279000", "112706.281000", "112706.284000", "112706.299000", "112706.302000", "112706.305000", "112706.307000", "112706.310000", "112706.312000", "112708.528000", "112708.531000"],
      "InstanceNumber": [1, 2, 3, 4, 5, 6, 7, 8, 9, 10, 11, 12, 13, 14, 15, 16, 17, 18, 19, 20, 21, 22, 23, 24, 25, 26, 27, 28, 29, 30, 31, 32, 33, 34, 35, 36, 37, 38, 39, 40, 41, 42, 43, 44, 45, 46, 47, 48, 49, 50, 51, 52, 53, 54, 55, 56, 57, 58, 59, 60, 61, 62, 63, 64, 65, 66, 67, 68, 69, 70, 71, 72, 73, 74, 75, 76, 77, 78, 79, 80, 81, 82, 83, 84, 85, 86, 87, 88, 89, 90, 91, 92, 93, 94, 95, 96, 97, 98, 99, 100, 101, 102, 103, 104, 105, 106, 107, 108, 109, 110, 111, 112, 113, 114, 115, 116, 117, 118, 119, 120, 121, 122, 123, 124, 125],
      "LargestImagePixelValue": [1967, 1896, 1896, 1855, 1879, 1827, 1861, 1837, 1828, 1855, 1829, 1866, 1824, 1838, 1831, 1818, 1844, 1846, 1819, 1851, 1808, 1861, 1815, 1873, 1819, 1857, 1806, 1858, 1814, 1879, 1812, 1859, 1823, 1840, 1833, 1816, 1848, 1829, 1850, 1798, 1843, 1829, 1835, 1825, 1855, 1828, 1853, 1802, 1847, 1832, 1845, 1821, 1851, 1832, 1840, 1846, 1840, 1818, 1823, 1843, 1821, 1848, 1831, 1833, 1837, 1846, 1837, 1834, 1812, 1877, 1808, 1859, 1829, 1859, 1831, 1847, 1825, 1841, 1842, 1858, 1829, 1860, 1825, 1839, 1836, 1819, 1848, 1813, 1821, 1851, 1822, 1855, 1846, 1808, 1833, 1826, 1868, 1824, 1867, 1827, 1867, 1838, 1846, 1835, 1839, 1827, 1840, 1840, 1846, 1873, 1837, 1863, 1838, 1870, 1826, 1883, 1818, 1838, 1872, 1822, 1840, 1844, 1865, 1824, 1852],
      "WindowCenter": [568.0, 566.0, 566.0, 566.0, 567.0, 566.0, 567.0, 566.0, 565.0, 566.0, 566.0, 567.0, 566.0, 566.0, 565.0, 564.0, 565.0, 565.0, 565.0, 566.0, 565.0, 565.0, 565.0, 565.0, 564.0, 564.0, 563.0, 565.0, 566.0, 568.0, 566.0, 565.0, 564.0, 564.0, 564.0, 565.0, 567.0, 567.0, 567.0, 565.0, 565.0, 564.0, 564.0, 565.0, 566.0, 565.0, 565.0, 564.0, 564.0, 564.0, 564.0, 564.0, 565.0, 564.0, 564.0, 563.0, 563.0, 562.0, 563.0, 564.0, 564.0, 565.0, 565.0, 565.0, 565.0, 564.0, 564.0, 564.0, 563.0, 565.0, 564.0, 565.0, 564.0, 565.0, 565.0, 564.0, 564.0, 564.0, 564.0, 565.0, 564.0, 564.0, 563.0, 564.0, 565.0, 565.0, 565.0, 566.0, 566.0, 566.0, 565.0, 565.0, 564.0, 564.0, 565.0, 565.0, 565.0, 564.0, 564.0, 563.0, 564.0, 563.0, 564.0, 564.0, 565.0, 565.0, 566.0, 565.0, 565.0, 565.0, 564.0, 564.0, 564.0, 565.0, 564.0, 566.0, 565.0, 566.0, 567.0, 565.0, 566.0, 565.0, 565.0, 564.0, 565.0],
      "WindowWidth": [1203.0, 1198.0, 1199.0, 1199.0, 1201.0, 1199.0, 1200.0, 1198.0, 1196.0, 1198.0, 1198.0, 1199.0, 1198.0, 1197.0, 1195.0, 1194.0, 1195.0, 1195.0, 1195.0, 1197.0, 1195.0, 1196.0, 1195.0, 1196.0, 1194.0, 1193.0, 1192.0, 1196.0, 1198.0, 1201.0, 1198.0, 1196.0, 1194.0, 1194.0, 1194.0, 1196.0, 1200.0, 1201.0, 1200.0, 1196.0, 1195.0, 1193.0, 1194.0, 1195.0, 1197.0, 1195.0, 1195.0, 1193.0, 1193.0, 1193.0, 1194.0, 1194.0, 1196.0, 1194.0, 1192.0, 1191.0, 1190.0, 1189.0, 1191.0, 1193.0, 1194.0, 1195.0, 1195.0, 1196.0, 1195.0, 1194.0, 1193.0, 1193.0, 1192.0, 1194.0, 1193.0, 1195.0, 1194.0, 1196.0, 1195.0, 1194.0, 1193.0, 1193.0, 1193.0, 1195.0, 1194.0, 1194.0, 1192.0, 1194.0, 1195.0, 1195.0, 1197.0, 1197.0, 1197.0, 1197.0, 1195.0, 1195.0, 1193.0, 1193.0, 1195.0, 1196.0, 1196.0, 1193.0, 1193.0, 1192.0, 1193.0, 1192.0, 1192.0, 1194.0, 1195.0, 1196.0, 1197.0, 1197.0, 1196.0, 1194.0, 1193.0, 1193.0, 1193.0, 1195.0, 1194.0, 1196.0, 1196.0, 1198.0, 1199.0, 1197.0, 1197.0, 1195.0, 1195.0, 1193.0, 1195.0]
    },
    "slices": {}
  }
}