{
  "AcquisitionMatrixPE": 88,
  "AcquisitionNumber": 1,
  "AcquisitionTime": "11:15:59.590000",
  "BandwidthPerPixelPhaseEncode": 19.592,
  "BaseResolution": 88,
  "BodyPartExamined": "BRAIN",
  "ConsistencyInfo": "N4_VE11C_LATEST_20160120",
  "ConversionSoftware": "dcm2niix",
  "ConversionSoftwareVersion": "v1.0.20190902",
  "DerivedVendorReportedEchoSpacing": 0.000580014,
  "DeviceSerialNumber": "67050",
  "DwellTime": 2.6e-06,
  "EchoTime": 0.033,
  "EchoTrainLength": 88,
  "EffectiveEchoSpacing": 0.000580014,
  "FlipAngle": 62,
  "ImageOrientationPatientDICOM": [0.999151, -0.032854, 0.0248782, 0.0371611, 0.979239, -0.199276],
  "ImageType": [
    "ORIGINAL",
    "PRIMARY",
    "M",
    "ND",
    "MOSAIC"
],
  "ImagingFrequency": 123.251,
  "InPlanePhaseEncodingDirectionDICOM": "COL",
  "InstitutionAddress": "Olive_Street_60_Providence_RI_US_02912",
  "InstitutionName": "BROWN_UNIVERSITY_MRF",
  "InstitutionalDepartmentName": "Department",
  "MRAcquisitionType": "2D",
  "MagneticFieldStrength": 3,
  "Manufacturer": "Siemens",
  "ManufacturersModelName": "Prisma_fit",
  "Modality": "MR",
  "MultibandAccelerationFactor": 4,
  "PartialFourier": 1,
  "PatientPosition": "HFS",
  "PercentPhaseFOV": 100,
  "PhaseEncodingDirection": "j-",
  "PhaseEncodingSteps": 88,
  "PhaseResolution": 1,
  "PixelBandwidth": 2185,
  "ProcedureStepDescription": "ASHENHAV_1222",
  "ProtocolName": "func-bold_task-RDMcolor_run-03",
  "PulseSequenceDetails": "%SiemensSeq%_ep2d_bold",
  "ReceiveCoilActiveElements": "HC1-7;NC1",
  "ReceiveCoilName": "HeadNeck_64",
  "ReconMatrixPE": 88,
  "RefLinesPE": 8,
  "RepetitionTime": 1.2,
  "SAR": 0.0481143,
  "ScanOptions": "FS",
  "ScanningSequence": "EP",
  "SequenceName": "_epfid2d1_88",
  "SequenceVariant": "SK",
  "SeriesDescription": "func-bold_task-RDMcolor_run-03",
  "SeriesNumber": 12,
  "ShimSetting": [1742, -9059, 4360, 382, -119, -362, -24, -68],
  "SliceThickness": 2.4,
  "SliceTiming": [0.55, 0, 0.63, 0.0775, 0.7075, 0.1575, 0.7875, 0.235, 0.865, 0.315, 0.945, 0.3925, 1.0225, 0.4725, 1.1, 0.55, 0, 0.63, 0.0775, 0.7075, 0.1575, 0.7875, 0.235, 0.865, 0.315, 0.945, 0.3925, 1.0225, 0.4725, 1.1, 0.55, 0, 0.63, 0.0775, 0.7075, 0.1575, 0.7875, 0.235, 0.865, 0.315, 0.945, 0.3925, 1.0225, 0.4725, 1.1, 0.55, 0, 0.63, 0.0775, 0.7075, 0.1575, 0.7875, 0.235, 0.865, 0.315, 0.945, 0.3925, 1.0225, 0.4725, 1.1],
  "SoftwareVersions": "syngo_MR_E11",
  "SpacingBetweenSlices": 2.4,
  "StationName": "AWP67050",
  "TaskName": "RDMcolor",
  "TotalReadoutTime": 0.0504612,
  "TxRefAmp": 251.74,
  "dcmmeta_affine": [
    [-2.395690441131592, 0.0891021266579628, 0.04275523126125336, 100.81504821777344],
    [0.07877487689256668, 2.347946882247925, -0.4800748825073242, -76.80107879638672],
    [0.05965112894773483, 0.47780948877334595, 2.3511059284210205, -92.32898712158203],
    [0.0, 0.0, 0.0, 1.0]
],
  "dcmmeta_reorient_transform": [
    [0.0, -1.0, 0.0, 87.0],
    [1.0, 0.0, 0.0, 0.0],
    [0.0, 0.0, 1.0, 0.0],
    [0.0, 0.0, 0.0, 1.0]
],
  "dcmmeta_shape": [88, 88, 60, 392],
  "dcmmeta_slice_dim": 2,
  "dcmmeta_version": 0.6,
  "global": {
    "const": {
      "AcquisitionMatrix": [88, 0, 0, 88],
      "AngioFlag": "N",
      "BitsAllocated": 16,
      "BitsStored": 12,
      "BodyPartExamined": "BRAIN",
      "Columns": 704,
      "DeidentificationMethodCodeSequence": [
        {
          "CodeMeaning": "XNAT DicomEdit 6 Script",
          "CodeValue": "3",
          "CodingSchemeDesignator": "XNAT",
          "CodingSchemeVersion": "1.0"}
],
      "EchoNumbers": 1,
      "EchoTime": 33.0,
      "EchoTrainLength": 88,
      "FlipAngle": 62.0,
      "HighBit": 11,
      "ImageOrientationPatient": [0.99915048495405, -0.032853976555, 0.02487819608818, 0.03716107637795, 0.97923854786965, -0.1992759914505],
      "ImagePositionPatient": [-873.88301286131, -826.37530665648, 78.033206766272],
      "ImageType": [
        "ORIGINAL",
        "PRIMARY",
        "M",
        "ND",
        "MOSAIC"
],
      "ImagedNucleus": "1H",
      "ImagingFrequency": 123.250736,
      "InPlanePhaseEncodingDirection": "COL",
      "MRAcquisitionType": "2D",
      "MagneticFieldStrength": 3.0,
      "Manufacturer": "SIEMENS",
      "ManufacturerModelName": "Prisma_fit",
      "Modality": "MR",
      "NumberOfAverages": 1.0,
      "NumberOfPhaseEncodingSteps": 88,
      "PercentPhaseFieldOfView": 100.0,
      "PercentSampling": 100.0,
      "PerformedProcedureStepStartTime": "104137.407000",
      "PhotometricInterpretation": "MONOCHROME2",
      "PixelBandwidth": 2185.0,
      "PixelRepresentation": 0,
      "PixelSpacing": [2.3977272510529, 2.3977272510529],
      "ProtocolName": "func-bold_task-RDMcolor_run-03",
      "RepetitionTime": 1200.0,
      "Rows": 704,
      "SAR": 0.04811432864412,
      "SamplesPerPixel": 1,
      "ScanOptions": "FS",
      "ScanningSequence": "EP",
      "SequenceName": "*epfid2d1_88",
      "SequenceVariant": "SK",
      "SeriesDescription": "func-bold_task-RDMcolor_run-03",
      "SeriesNumber": 12,
      "SeriesTime": "111632.112000",
      "SliceLocation": -73.2894215974,
      "SliceThickness": 2.4000000953674,
      "SmallestImagePixelValue": 0,
      "SoftwareVersions": "syngo MR E11",
      "SpacingBetweenSlices": 2.3999998934776,
      "SpecificCharacterSet": "ISO_IR 100",
      "StudyID": "1",
      "StudyTime": "104137.264000",
      "TransmitCoilName": "Body",
      "VariableFlipAngleFlag": "N",
      "WindowCenterWidthExplanation": "Algo1",
      "dBdt": 0.0},
    "slices": {}
  },
  "time": {
    "samples": {
      "AcquisitionNumber": [1, 2, 3, 4, 5, 6, 7, 8, 9, 10, 11, 12, 13, 14, 15, 16, 17, 18, 19, 20, 21, 22, 23, 24, 25, 26, 27, 28, 29, 30, 31, 32, 33, 34, 35, 36, 37, 38, 39, 40, 41, 42, 43, 44, 45, 46, 47, 48, 49, 50, 51, 52, 53, 54, 55, 56, 57, 58, 59, 60, 61, 62, 63, 64, 65, 66, 67, 68, 69, 70, 71, 72, 73, 74, 75, 76, 77, 78, 79, 80, 81, 82, 83, 84, 85, 86, 87, 88, 89, 90, 91, 92, 93, 94, 95, 96, 97, 98, 99, 100, 101, 102, 103, 104, 105, 106, 107, 108, 109, 110, 111, 112, 113, 114, 115, 116, 117, 118, 119, 120, 121, 122, 123, 124, 125, 126, 127, 128, 129, 130, 131, 132, 133, 134, 135, 136, 137, 138, 139, 140, 141, 142, 143, 144, 145, 146, 147, 148, 149, 150, 151, 152, 153, 154, 155, 156, 157, 158, 159, 160, 161, 162, 163, 164, 165, 166, 167, 168, 169, 170, 171, 172, 173, 174, 175, 176, 177, 178, 179, 180, 181, 182, 183, 184, 185, 186, 187, 188, 189, 190, 191, 192, 193, 194, 195, 196, 197, 198, 199, 200, 201, 202, 203, 204, 205, 206, 207, 208, 209, 210, 211, 212, 213, 214, 215, 216, 217, 218, 219, 220, 221, 222, 223, 224, 225, 226, 227, 228, 229, 230, 231, 232, 233, 234, 235, 236, 237, 238, 239, 240, 241, 242, 243, 244, 245, 246, 247, 248, 249, 250, 251, 252, 253, 254, 255, 256, 257, 258, 259, 260, 261, 262, 263, 264, 265, 266, 267, 268, 269, 270, 271, 272, 273, 274, 275, 276, 277, 278, 279, 280, 281, 282, 283, 284, 285, 286, 287, 288, 289, 290, 291, 292, 293, 294, 295, 296, 297, 298, 299, 300, 301, 302, 303, 304, 305, 306, 307, 308, 309, 310, 311, 312, 313, 314, 315, 316, 317, 318, 319, 320, 321, 322, 323, 324, 325, 326, 327, 328, 329, 330, 331, 332, 333, 334, 335, 336, 337, 338, 339, 340, 341, 342, 343, 344, 345, 346, 347, 348, 349, 350, 351, 352, 353, 354, 355, 356, 357, 358, 359, 360, 361, 362, 363, 364, 365, 366, 367, 368, 369, 370, 371, 372, 373, 374, 375, 376, 377, 378, 379, 380, 381, 382, 383, 384, 385, 386, 387, 388, 389, 390, 391, 392],
      "AcquisitionTime": ["111559.590000", "111600.790000", "111601.990000", "111603.190000", "111604.390000", "111605.590000", "111606.790000", "111607.990000", "111609.190000", "111610.390000", "111611.590000", "111612.790000", "111613.990000", "111615.190000", "111616.390000", "111617.590000", "111618.790000", "111619.990000", "111621.190000", "111622.390000", "111623.590000", "111624.790000", "111625.990000", "111627.190000", "111628.390000", "111629.590000", "111630.790000", "111631.990000", "111633.190000", "111634.390000", "111635.590000", "111636.790000", "111637.990000", "111639.190000", "111640.390000", "111641.590000", "111642.790000", "111643.990000", "111645.190000", "111646.390000", "111647.590000", "111648.790000", "111649.990000", "111651.190000", "111652.390000", "111653.590000", "111654.790000", "111655.990000", "111657.190000", "111658.390000", "111659.590000", "111700.790000", "111701.990000", "111703.190000", "111704.390000", "111705.590000", "111706.790000", "111707.990000", "111709.190000", "111710.390000", "111711.590000", "111712.790000", "111713.990000", "111715.190000", "111716.390000", "111717.590000", "111718.790000", "111719.990000", "111721.190000", "111722.390000", "111723.590000", "111724.790000", "111725.990000", "111727.190000", "111728.390000", "111729.590000", "111730.790000", "111731.990000", "111733.190000", "111734.390000", "111735.590000", "111736.790000", "111737.990000", "111739.190000", "111740.390000", "111741.590000", "111742.790000", "111743.990000", "111745.190000", "111746.390000", "111747.590000", "111748.790000", "111749.990000", "111751.190000", "111752.390000", "111753.590000", "111754.790000", "111755.990000", "111757.190000", "111758.390000", "111759.590000", "111800.790000", "111801.990000", "111803.190000", "111804.390000", "111805.590000", "111806.790000", "111807.990000", "111809.190000", "111810.390000", "111811.590000", "111812.790000", "111813.990000", "111815.190000", "111816.390000", "111817.590000", "111818.790000", "111819.990000", "111821.190000", "111822.390000", "111823.590000", "111824.790000", "111825.990000", "111827.190000", "111828.390000", "111829.590000", "111830.790000", "111831.990000", "111833.190000", "111834.390000", "111835.590000", "111836.790000", "111837.990000", "111839.190000", "111840.390000", "111841.590000", "111842.790000", "111843.990000", "111845.190000", "111846.390000", "111847.590000", "111848.790000", "111849.990000", "111851.190000", "111852.390000", "111853.590000", "111854.790000", "111855.990000", "111857.190000", "111858.390000", "111859.590000", "111900.790000", "111901.990000", "111903.190000", "111904.390000", "111905.590000", "111906.790000", "111907.990000", "111909.190000", "111910.390000", "111911.590000", "111912.790000", "111913.990000", "111915.190000", "111916.390000", "111917.590000", "111918.790000", "111919.990000", "111921.190000", "111922.390000", "111923.590000", "111924.790000", "111925.990000", "111927.190000", "111928.390000", "111929.590000", "111930.790000", "111931.990000", "111933.190000", "111934.390000", "111935.590000", "111936.790000", "111937.990000", "111939.190000", "111940.390000", "111941.590000", "111942.790000", "111943.990000", "111945.190000", "111946.390000", "111947.590000", "111948.790000", "111949.990000", "111951.190000", "111952.390000", "111953.590000", "111954.790000", "111955.990000", "111957.190000", "111958.390000", "111959.590000", "112000.790000", "112001.990000", "112003.190000", "112004.390000", "112005.590000", "112006.790000", "112007.990000", "112009.190000", "112010.390000", "112011.590000", "112012.790000", "112013.990000", "112015.190000", "112016.390000", "112017.590000", "112018.790000", "112019.990000", "112021.190000", "112022.390000", "112023.590000", "112024.790000", "112025.990000", "112027.190000", "112028.390000", "112029.590000", "112030.790000", "112031.990000", "112033.190000", "112034.390000", "112035.590000", "112036.790000", "112037.990000", "112039.190000", "112040.390000", "112041.590000", "112042.790000", "112043.990000", "112045.190000", "112046.390000", "112047.590000", "112048.790000", "112049.990000", "112051.190000", "112052.390000", "112053.590000", "112054.790000", "112055.990000", "112057.190000", "112058.390000", "112059.590000", "112100.790000", "112101.990000", "112103.190000", "112104.390000", "112105.590000", "112106.790000", "112107.990000", "112109.190000", "112110.390000", "112111.590000", "112112.790000", "112113.990000", "112115.190000", "112116.390000", "112117.590000", "112118.790000", "112119.990000", "112121.190000", "112122.390000", "112123.590000", "112124.790000", "112125.990000", "112127.190000", "112128.390000", "112129.590000", "112130.790000", "112131.990000", "112133.190000", "112134.390000", "112135.590000", "112136.790000", "112137.990000", "112139.190000", "112140.390000", "112141.590000", "112142.790000", "112143.990000", "112145.190000", "112146.390000", "112147.590000", "112148.790000", "112149.990000", "112151.190000", "112152.390000", "112153.590000", "112154.790000", "112155.990000", "112157.190000", "112158.390000", "112159.590000", "112200.790000", "112201.990000", "112203.190000", "112204.390000", "112205.590000", "112206.790000", "112207.990000", "112209.190000", "112210.390000", "112211.590000", "112212.790000", "112213.990000", "112215.190000", "112216.390000", "112217.590000", "112218.790000", "112219.990000", "112221.190000", "112222.390000", "112223.590000", "112224.790000", "112225.990000", "112227.190000", "112228.390000", "112229.590000", "112230.790000", "112231.990000", "112233.190000", "112234.390000", "112235.590000", "112236.790000", "112237.990000", "112239.190000", "112240.390000", "112241.590000", "112242.790000", "112243.990000", "112245.190000", "112246.390000", "112247.590000", "112248.790000", "112249.990000", "112251.190000", "112252.390000", "112253.590000", "112254.790000", "112255.990000", "112257.190000", "112258.390000", "112259.590000", "112300.790000", "112301.990000", "112303.190000", "112304.390000", "112305.590000", "112306.790000", "112307.990000", "112309.190000", "112310.390000", "112311.590000", "112312.790000", "112313.990000", "112315.190000", "112316.390000", "112317.590000", "112318.790000", "112319.990000", "112321.190000", "112322.390000", "112323.590000", "112324.790000", "112325.990000", "112327.190000", "112328.390000", "112329.590000", "112330.790000", "112331.990000", "112333.190000", "112334.390000", "112335.590000", "112336.790000", "112337.990000", "112339.190000", "112340.390000", "112341.590000", "112342.790000", "112343.990000", "112345.190000", "112346.390000", "112347.590000", "112348.790000"],
      "ContentTime": ["111632.116000", "111632.119000", "111632.122000", "111632.124000", "111632.127000", "111632.130000", "111632.139000", "111632.142000", "111632.151000", "111632.154000", "111632.156000", "111632.159000", "111632.161000", "111632.168000", "111632.170000", "111632.173000", "111632.175000", "111632.178000", "111632.181000", "111632.183000", "111632.186000", "111632.188000", "111632.191000", "111632.193000", "111632.196000", "111632.199000", "111712.112000", "111712.114000", "111712.117000", "111712.120000", "111712.122000", "111712.125000", "111712.128000", "111712.130000", "111712.133000", "111712.135000", "111712.138000", "111712.140000", "111712.143000", "111712.146000", "111712.148000", "111712.151000", "111712.153000", "111712.156000", "111712.158000", "111712.169000", "111712.172000", "111712.175000", "111712.177000", "111712.180000", "111712.182000", "111712.185000", "111712.187000", "111712.190000", "111712.192000", "111712.195000", "111712.198000", "111712.200000", "111712.203000", "111732.112000", "111732.115000", "111732.117000", "111732.120000", "111732.122000", "111732.125000", "111732.128000", "111732.130000", "111732.133000", "111732.136000", "111732.138000", "111732.141000", "111732.143000", "111732.146000", "111732.148000", "111732.151000", "111732.153000", "111812.112000", "111812.114000", "111812.117000", "111812.120000", "111812.122000", "111812.125000", "111812.128000", "111812.130000", "111812.133000", "111812.135000", "111812.148000", "111812.151000", "111812.154000", "111812.156000", "111812.159000", "111812.161000", "111812.164000", "111812.166000", "111812.169000", "111812.172000", "111812.174000", "111812.177000", "111812.180000", "111812.183000", "111812.186000", "111812.188000", "111812.191000", "111812.193000", "111812.196000", "111812.199000", "111812.201000", "111812.204000", "111812.207000", "111852.112000", "111852.114000", "111852.117000", "111852.119000", "111852.122000", "111852.125000", "111852.128000", "111852.130000", "111852.141000", "111852.144000", "111852.146000", "111852.149000", "111852.151000", "111852.154000", "111852.157000", "111852.159000", "111852.162000", "111852.165000", "111852.167000", "111852.170000", "111852.172000", "111852.175000", "111852.194000", "111852.196000", "111852.199000", "111852.201000", "111852.212000", "111852.214000", "111852.217000", "111852.219000", "111852.222000", "111852.224000", "111852.227000", "111852.230000", "111932.112000", "111932.114000", "111932.117000", "111932.120000", "111932.122000", "111932.125000", "111932.128000", "111932.130000", "111932.133000", "111932.135000", "111932.138000", "111932.140000", "111932.143000", "111932.146000", "111932.148000", "111932.151000", "111932.154000", "111932.156000", "111932.159000", "111932.161000", "111932.164000", "111932.167000", "111932.169000", "111932.172000", "111932.174000", "111932.177000", "111932.179000", "111932.182000", "111932.185000", "111932.187000", "111932.190000", "111932.192000", "111932.195000", "112012.111000", "112012.114000", "112012.117000", "112012.120000", "112012.122000", "112012.125000", "112012.128000", "112012.130000", "112012.133000", "112012.136000", "112012.138000", "112012.141000", "112012.144000", "112012.146000", "112012.149000", "112012.151000", "112012.154000", "112012.156000", "112012.159000", "112012.162000", "112012.165000", "112012.167000", "112012.170000", "112012.172000", "112012.175000", "112012.178000", "112012.180000", "112012.183000", "112012.185000", "112012.188000", "112012.190000", "112012.193000", "112012.196000", "112052.112000", "112052.114000", "112052.117000", "112052.120000", "112052.122000", "112052.125000", "112052.127000", "112052.135000", "112052.137000", "112052.140000", "112052.142000", "112052.145000", "112052.148000", "112052.150000", "112052.153000", "112052.155000", "112052.158000", "112052.161000", "112052.163000", "112052.166000", "112052.168000", "112052.171000", "112052.173000", "112052.176000", "112052.179000", "112052.181000", "112052.184000", "112052.187000", "112052.189000", "112052.192000", "112052.194000", "112052.197000", "112052.200000", "112052.202000", "112132.112000", "112132.114000", "112132.117000", "112132.120000", "112132.122000", "112132.125000", "112132.128000", "112132.130000", "112132.133000", "112132.135000", "112132.138000", "112132.141000", "112132.143000", "112132.146000", "112132.148000", "112132.151000", "112132.154000", "112132.156000", "112132.159000", "112132.161000", "112132.164000", "112132.167000", "112132.169000", "112132.172000", "112132.174000", "112132.177000", "112132.180000", "112132.182000", "112132.185000", "112132.188000", "112132.190000", "112132.193000", "112132.195000", "112212.112000", "112212.114000", "112212.117000", "112212.120000", "112212.122000", "112212.125000", "112212.128000", "112212.130000", "112212.133000", "112212.135000", "112212.138000", "112212.141000", "112212.143000", "112212.146000", "112212.149000", "112212.151000", "112212.154000", "112212.156000", "112212.159000", "112212.162000", "112212.164000", "112212.167000", "112212.170000", "112212.172000", "112212.175000", "112212.177000", "112212.180000", "112212.183000", "112212.185000", "112212.188000", "112212.191000", "112212.193000", "112212.196000", "112252.112000", "112252.115000", "112252.117000", "112252.120000", "112252.123000", "112252.125000", "112252.128000", "112252.130000", "112252.133000", "112252.136000", "112252.138000", "112252.141000", "112252.144000", "112252.146000", "112252.149000", "112252.151000", "112252.154000", "112252.157000", "112252.181000", "112252.183000", "112252.186000", "112252.189000", "112252.191000", "112252.194000", "112252.197000", "112252.199000", "112252.202000", "112252.205000", "112252.207000", "112252.210000", "112252.213000", "112252.215000", "112252.218000", "112252.220000", "112332.112000", "112332.114000", "112332.117000", "112332.120000", "112332.122000", "112332.125000", "112332.128000", "112332.130000", "112332.133000", "112332.136000", "112332.138000", "112332.141000", "112332.143000", "112332.146000", "112332.149000", "112332.151000", "112332.154000", "112332.157000", "112332.159000", "112332.162000", "112332.164000", "112332.167000", "112332.170000", "112332.172000", "112332.175000", "112332.178000", "112332.180000", "112332.183000", "112332.185000", "112332.188000", "112332.190000", "112332.193000", "112332.196000", "112350.841000", "112350.844000", "112350.846000", "112350.849000", "112350.852000", "112350.855000", "112350.857000", "112350.860000", "112350.862000", "112350.865000", "112350.878000", "112350.881000", "112350.883000", "112350.886000", "112350.889000", "112350.891000"],
      "InstanceCreationTime": ["111632.116000", "111632.119000", "111632.122000", "111632.124000", "111632.127000", "111632.130000", "111632.139000", "111632.142000", "111632.151000", "111632.154000", "111632.156000", "111632.159000", "111632.161000", "111632.168000", "111632.170000", "111632.173000", "111632.175000", "111632.178000", "111632.181000", "111632.183000", "111632.186000", "111632.188000", "111632.191000", "111632.193000", "111632.196000", "111632.199000", "111712.112000", "111712.114000", "111712.117000", "111712.120000", "111712.122000", "111712.125000", "111712.128000", "111712.130000", "111712.133000", "111712.135000", "111712.138000", "111712.140000", "111712.143000", "111712.146000", "111712.148000", "111712.151000", "111712.153000", "111712.156000", "111712.158000", "111712.169000", "111712.172000", "111712.175000", "111712.177000", "111712.180000", "111712.182000", "111712.185000", "111712.187000", "111712.190000", "111712.192000", "111712.195000", "111712.198000", "111712.200000", "111712.203000", "111732.112000", "111732.115000", "111732.117000", "111732.120000", "111732.122000", "111732.125000", "111732.128000", "111732.130000", "111732.133000", "111732.136000", "111732.138000", "111732.141000", "111732.143000", "111732.146000", "111732.148000", "111732.151000", "111732.153000", "111812.112000", "111812.114000", "111812.117000", "111812.120000", "111812.122000", "111812.125000", "111812.128000", "111812.130000", "111812.133000", "111812.135000", "111812.148000", "111812.151000", "111812.154000", "111812.156000", "111812.159000", "111812.161000", "111812.164000", "111812.166000", "111812.169000", "111812.172000", "111812.174000", "111812.177000", "111812.180000", "111812.183000", "111812.186000", "111812.188000", "111812.191000", "111812.193000", "111812.196000", "111812.199000", "111812.201000", "111812.204000", "111812.207000", "111852.112000", "111852.114000", "111852.117000", "111852.119000", "111852.122000", "111852.125000", "111852.128000", "111852.130000", "111852.141000", "111852.144000", "111852.146000", "111852.149000", "111852.151000", "111852.154000", "111852.157000", "111852.159000", "111852.162000", "111852.165000", "111852.167000", "111852.170000", "111852.172000", "111852.175000", "111852.194000", "111852.196000", "111852.199000", "111852.201000", "111852.212000", "111852.214000", "111852.217000", "111852.219000", "111852.222000", "111852.224000", "111852.227000", "111852.230000", "111932.112000", "111932.114000", "111932.117000", "111932.120000", "111932.122000", "111932.125000", "111932.128000", "111932.130000", "111932.133000", "111932.135000", "111932.138000", "111932.140000", "111932.143000", "111932.146000", "111932.148000", "111932.151000", "111932.154000", "111932.156000", "111932.159000", "111932.161000", "111932.164000", "111932.167000", "111932.169000", "111932.172000", "111932.174000", "111932.177000", "111932.179000", "111932.182000", "111932.185000", "111932.187000", "111932.190000", "111932.192000", "111932.195000", "112012.111000", "112012.114000", "112012.117000", "112012.120000", "112012.122000", "112012.125000", "112012.128000", "112012.130000", "112012.133000", "112012.136000", "112012.138000", "112012.141000", "112012.144000", "112012.146000", "112012.149000", "112012.151000", "112012.154000", "112012.156000", "112012.159000", "112012.162000", "112012.165000", "112012.167000", "112012.170000", "112012.172000", "112012.175000", "112012.178000", "112012.180000", "112012.183000", "112012.185000", "112012.188000", "112012.190000", "112012.193000", "112012.196000", "112052.112000", "112052.114000", "112052.117000", "112052.120000", "112052.122000", "112052.125000", "112052.127000", "112052.135000", "112052.137000", "112052.140000", "112052.142000", "112052.145000", "112052.148000", "112052.150000", "112052.153000", "112052.155000", "112052.158000", "112052.161000", "112052.163000", "112052.166000", "112052.168000", "112052.171000", "112052.173000", "112052.176000", "112052.179000", "112052.181000", "112052.184000", "112052.187000", "112052.189000", "112052.192000", "112052.194000", "112052.197000", "112052.200000", "112052.202000", "112132.112000", "112132.114000", "112132.117000", "112132.120000", "112132.122000", "112132.125000", "112132.128000", "112132.130000", "112132.133000", "112132.135000", "112132.138000", "112132.141000", "112132.143000", "112132.146000", "112132.148000", "112132.151000", "112132.154000", "112132.156000", "112132.159000", "112132.161000", "112132.164000", "112132.167000", "112132.169000", "112132.172000", "112132.174000", "112132.177000", "112132.180000", "112132.182000", "112132.185000", "112132.188000", "112132.190000", "112132.193000", "112132.195000", "112212.112000", "112212.114000", "112212.117000", "112212.120000", "112212.122000", "112212.125000", "112212.128000", "112212.130000", "112212.133000", "112212.135000", "112212.138000", "112212.141000", "112212.143000", "112212.146000", "112212.149000", "112212.151000", "112212.154000", "112212.156000", "112212.159000", "112212.162000", "112212.164000", "112212.167000", "112212.170000", "112212.172000", "112212.175000", "112212.177000", "112212.180000", "112212.183000", "112212.185000", "112212.188000", "112212.191000", "112212.193000", "112212.196000", "112252.112000", "112252.115000", "112252.117000", "112252.120000", "112252.123000", "112252.125000", "112252.128000", "112252.130000", "112252.133000", "112252.136000", "112252.138000", "112252.141000", "112252.144000", "112252.146000", "112252.149000", "112252.151000", "112252.154000", "112252.157000", "112252.181000", "112252.183000", "112252.186000", "112252.189000", "112252.191000", "112252.194000", "112252.197000", "112252.199000", "112252.202000", "112252.205000", "112252.207000", "112252.210000", "112252.213000", "112252.215000", "112252.218000", "112252.220000", "112332.112000", "112332.114000", "112332.117000", "112332.120000", "112332.122000", "112332.125000", "112332.128000", "112332.130000", "112332.133000", "112332.136000", "112332.138000", "112332.141000", "112332.143000", "112332.146000", "112332.149000", "112332.151000", "112332.154000", "112332.157000", "112332.159000", "112332.162000", "112332.164000", "112332.167000", "112332.170000", "112332.172000", "112332.175000", "112332.178000", "112332.180000", "112332.183000", "112332.185000", "112332.188000", "112332.190000", "112332.193000", "112332.196000", "112350.841000", "112350.844000", "112350.846000", "112350.849000", "112350.852000", "112350.855000", "112350.857000", "112350.860000", "112350.862000", "112350.865000", "112350.878000", "112350.881000", "112350.883000", "112350.886000", "112350.889000", "112350.891000"],
      "InstanceNumber": [1, 2, 3, 4, 5, 6, 7, 8, 9, 10, 11, 12, 13, 14, 15, 16, 17, 18, 19, 20, 21, 22, 23, 24, 25, 26, 27, 28, 29, 30, 31, 32, 33, 34, 35, 36, 37, 38, 39, 40, 41, 42, 43, 44, 45, 46, 47, 48, 49, 50, 51, 52, 53, 54, 55, 56, 57, 58, 59, 60, 61, 62, 63, 64, 65, 66, 67, 68, 69, 70, 71, 72, 73, 74, 75, 76, 77, 78, 79, 80, 81, 82, 83, 84, 85, 86, 87, 88, 89, 90, 91, 92, 93, 94, 95, 96, 97, 98, 99, 100, 101, 102, 103, 104, 105, 106, 107, 108, 109, 110, 111, 112, 113, 114, 115, 116, 117, 118, 119, 120, 121, 122, 123, 124, 125, 126, 127, 128, 129, 130, 131, 132, 133, 134, 135, 136, 137, 138, 139, 140, 141, 142, 143, 144, 145, 146, 147, 148, 149, 150, 151, 152, 153, 154, 155, 156, 157, 158, 159, 160, 161, 162, 163, 164, 165, 166, 167, 168, 169, 170, 171, 172, 173, 174, 175, 176, 177, 178, 179, 180, 181, 182, 183, 184, 185, 186, 187, 188, 189, 190, 191, 192, 193, 194, 195, 196, 197, 198, 199, 200, 201, 202, 203, 204, 205, 206, 207, 208, 209, 210, 211, 212, 213, 214, 215, 216, 217, 218, 219, 220, 221, 222, 223, 224, 225, 226, 227, 228, 229, 230, 231, 232, 233, 234, 235, 236, 237, 238, 239, 240, 241, 242, 243, 244, 245, 246, 247, 248, 249, 250, 251, 252, 253, 254, 255, 256, 257, 258, 259, 260, 261, 262, 263, 264, 265, 266, 267, 268, 269, 270, 271, 272, 273, 274, 275, 276, 277, 278, 279, 280, 281, 282, 283, 284, 285, 286, 287, 288, 289, 290, 291, 292, 293, 294, 295, 296, 297, 298, 299, 300, 301, 302, 303, 304, 305, 306, 307, 308, 309, 310, 311, 312, 313, 314, 315, 316, 317, 318, 319, 320, 321, 322, 323, 324, 325, 326, 327, 328, 329, 330, 331, 332, 333, 334, 335, 336, 337, 338, 339, 340, 341, 342, 343, 344, 345, 346, 347, 348, 349, 350, 351, 352, 353, 354, 355, 356, 357, 358, 359, 360, 361, 362, 363, 364, 365, 366, 367, 368, 369, 370, 371, 372, 373, 374, 375, 376, 377, 378, 379, 380, 381, 382, 383, 384, 385, 386, 387, 388, 389, 390, 391, 392],
