{
  "AcquisitionMatrixPE": 88,
  "AcquisitionNumber": 1,
  "AcquisitionTime": "11:43:2.470000",
  "BandwidthPerPixelPhaseEncode": 19.592,
  "BaseResolution": 88,
  "BodyPartExamined": "BRAIN",
  "ConsistencyInfo": "N4_VE11C_LATEST_20160120",
  "ConversionSoftware": "dcm2niix",
  "ConversionSoftwareVersion": "v1.0.20190902",
  "DerivedVendorReportedEchoSpacing": 0.000580014,
  "DeviceSerialNumber": "67050",
  "DwellTime": 2.6e-06,
  "EchoTime": 0.033,
  "EchoTrainLength": 88,
  "EffectiveEchoSpacing": 0.000580014,
  "FlipAngle": 62,
  "ImageOrientationPatientDICOM": [0.997163, 0.0300884, 0.0689908, -0.0346474, 0.997227, 0.0658658],
  "ImageType": [
    "ORIGINAL",
    "PRIMARY",
    "M",
    "ND",
    "MOSAIC"
],
  "ImagingFrequency": 123.251,
  "InPlanePhaseEncodingDirectionDICOM": "COL",
  "InstitutionAddress": "Olive_Street_60_Providence_RI_US_02912",
  "InstitutionName": "BROWN_UNIVERSITY_MRF",
  "InstitutionalDepartmentName": "Department",
  "MRAcquisitionType": "2D",
  "MagneticFieldStrength": 3,
  "Manufacturer": "Siemens",
  "ManufacturersModelName": "Prisma_fit",
  "Modality": "MR",
  "MultibandAccelerationFactor": 4,
  "PartialFourier": 1,
  "PatientPosition": "HFS",
  "PercentPhaseFOV": 100,
  "PhaseEncodingDirection": "j-",
  "PhaseEncodingSteps": 88,
  "PhaseResolution": 1,
  "PixelBandwidth": 2185,
  "ProcedureStepDescription": "ASHENHAV_1222",
  "ProtocolName": "func-bold_task-RDMmotion_run-03",
  "PulseSequenceDetails": "%SiemensSeq%_ep2d_bold",
  "ReceiveCoilActiveElements": "HC1-7",
  "ReceiveCoilName": "HeadNeck_64",
  "ReconMatrixPE": 88,
  "RefLinesPE": 8,
  "RepetitionTime": 1.2,
  "SAR": 0.0539945,
  "ScanOptions": "FS",
  "ScanningSequence": "EP",
  "SequenceName": "_epfid2d1_88",
  "SequenceVariant": "SK",
  "SeriesDescription": "func-bold_task-RDMmotion_run-03",
  "SeriesNumber": 11,
  "ShimSetting": [1755, -9106, 4368, 521, -129, -289, -13, -24],
  "SliceThickness": 2.4,
  "SliceTiming": [0.55, 0, 0.6275, 0.0775, 0.7075, 0.1575, 0.785, 0.235, 0.865, 0.315, 0.9425, 0.3925, 1.0225, 0.4725, 1.1, 0.55, 0, 0.6275, 0.0775, 0.7075, 0.1575, 0.785, 0.235, 0.865, 0.315, 0.9425, 0.3925, 1.0225, 0.4725, 1.1, 0.55, 0, 0.6275, 0.0775, 0.7075, 0.1575, 0.785, 0.235, 0.865, 0.315, 0.9425, 0.3925, 1.0225, 0.4725, 1.1, 0.55, 0, 0.6275, 0.0775, 0.7075, 0.1575, 0.785, 0.235, 0.865, 0.315, 0.9425, 0.3925, 1.0225, 0.4725, 1.1],
  "SoftwareVersions": "syngo_MR_E11",
  "SpacingBetweenSlices": 2.4,
  "StationName": "AWP67050",
  "TaskName": "RDMmotion",
  "TotalReadoutTime": 0.0504612,
  "TxRefAmp": 233.939,
  "dcmmeta_affine": [
    [-2.390925884246826, -0.08307506144046783, 0.1603623926639557, 106.84453582763672],
    [-0.07214389741420746, 2.391077756881714, 0.16336631774902344, -98.88887786865234],
    [0.16542109847068787, -0.15792818367481232, 2.3890573978424072, -66.8197250366211],
    [0.0, 0.0, 0.0, 1.0]
],
  "dcmmeta_reorient_transform": [
    [0.0, -1.0, 0.0, 87.0],
    [1.0, 0.0, 0.0, 0.0],
    [0.0, 0.0, 1.0, 0.0],
    [0.0, 0.0, 0.0, 1.0]
],
  "dcmmeta_shape": [88, 88, 60, 125],
  "dcmmeta_slice_dim": 2,
  "dcmmeta_version": 0.6,
  "global": {
    "const": {
      "AcquisitionMatrix": [88, 0, 0, 88],
      "AngioFlag": "N",
      "BitsAllocated": 16,
      "BitsStored": 12,
      "BodyPartExamined": "BRAIN",
      "Columns": 704,
      "DeidentificationMethodCodeSequence": [
        {
          "CodeMeaning": "XNAT DicomEdit 6 Script",
          "CodeValue": "3",
          "CodingSchemeDesignator": "XNAT",
          "CodingSchemeVersion": "1.0"}
],
      "EchoNumbers": 1,
      "EchoTime": 33.0,
      "EchoTrainLength": 88,
      "FlipAngle": 62.0,
      "HighBit": 11,
      "ImageOrientationPatient": [0.99716345496954, 0.03008844891914, 0.06899079152214, -0.0346474184873, 0.99722678221535, 0.06586578189461],
      "ImagePositionPatient": [-810.43509057221, -867.80718548387, -180.15105447881],
      "ImageType": [
        "ORIGINAL",
        "PRIMARY",
        "M",
        "ND",
        "MOSAIC"
],
      "ImagedNucleus": "1H",
      "ImagingFrequency": 123.250726,
      "InPlanePhaseEncodingDirection": "COL",
      "MRAcquisitionType": "2D",
      "MagneticFieldStrength": 3.0,
      "Manufacturer": "SIEMENS",
      "ManufacturerModelName": "Prisma_fit",
      "Modality": "MR",
      "NumberOfAverages": 1.0,
      "NumberOfPhaseEncodingSteps": 88,
      "PercentPhaseFieldOfView": 100.0,
      "PercentSampling": 100.0,
      "PerformedProcedureStepStartTime": "110400.035000",
      "PhotometricInterpretation": "MONOCHROME2",
      "PixelBandwidth": 2185.0,
      "PixelRepresentation": 0,
      "PixelSpacing": [2.3977272510529, 2.3977272510529],
      "ProtocolName": "func-bold_task-RDMmotion_run-03",
      "RepetitionTime": 1200.0,
      "Rows": 704,
      "SAR": 0.05399452067544,
      "SamplesPerPixel": 1,
      "ScanOptions": "FS",
      "ScanningSequence": "EP",
      "SequenceName": "*epfid2d1_88",
      "SequenceVariant": "SK",
      "SeriesDescription": "func-bold_task-RDMmotion_run-03",
      "SeriesNumber": 11,
      "SeriesTime": "114335.011000",
      "SliceLocation": -66.107260365833,
      "SliceThickness": 2.4000000953674,
      "SmallestImagePixelValue": 0,
      "SoftwareVersions": "syngo MR E11",
      "SpacingBetweenSlices": 2.3999999364574,
      "SpecificCharacterSet": "ISO_IR 100",
      "StudyID": "1",
      "StudyTime": "110359.954000",
      "TransmitCoilName": "Body",
      "VariableFlipAngleFlag": "N",
      "WindowCenterWidthExplanation": "Algo1",
      "dBdt": 0.0},
    "slices": {}
  },
  "time": {
    "samples": {
      "AcquisitionNumber": [1, 2, 3, 4, 5, 6, 7, 8, 9, 10, 11, 12, 13, 14, 15, 16, 17, 18, 19, 20, 21, 22, 23, 24, 25, 26, 27, 28, 29, 30, 31, 32, 33, 34, 35, 36, 37, 38, 39, 40, 41, 42, 43, 44, 45, 46, 47, 48, 49, 50, 51, 52, 53, 54, 55, 56, 57, 58, 59, 60, 61, 62, 63, 64, 65, 66, 67, 68, 69, 70, 71, 72, 73, 74, 75, 76, 77, 78, 79, 80, 81, 82, 83, 84, 85, 86, 87, 88, 89, 90, 91, 92, 93, 94, 95, 96, 97, 98, 99, 100, 101, 102, 103, 104, 105, 106, 107, 108, 109, 110, 111, 112, 113, 114, 115, 116, 117, 118, 119, 120, 121, 122, 123, 124, 125],
      "AcquisitionTime": ["114302.470000", "114303.670000", "114304.870000", "114306.070000", "114307.270000", "114308.470000", "114309.670000", "114310.870000", "114312.070000", "114313.270000", "114314.470000", "114315.670000", "114316.870000", "114318.070000", "114319.270000", "114320.470000", "114321.670000", "114322.870000", "114324.070000", "114325.270000", "114326.470000", "114327.670000", "114328.870000", "114330.070000", "114331.270000", "114332.470000", "114333.670000", "114334.870000", "114336.070000", "114337.270000", "114338.470000", "114339.670000", "114340.870000", "114342.070000", "114343.270000", "114344.470000", "114345.670000", "114346.870000", "114348.070000", "114349.270000", "114350.470000", "114351.670000", "114352.870000", "114354.070000", "114355.270000", "114356.470000", "114357.670000", "114358.870000", "114400.070000", "114401.270000", "114402.470000", "114403.670000", "114404.870000", "114406.070000", "114407.270000", "114408.470000", "114409.670000", "114410.870000", "114412.070000", "114413.270000", "114414.470000", "114415.670000", "114416.870000", "114418.070000", "114419.270000", "114420.470000", "114421.670000", "114422.870000", "114424.070000", "114425.270000", "114426.470000", "114427.670000", "114428.870000", "114430.070000", "114431.270000", "114432.470000", "114433.670000", "114434.870000", "114436.070000", "114437.270000", "114438.470000", "114439.670000", "114440.870000", "114442.070000", "114443.270000", "114444.470000", "114445.670000", "114446.870000", "114448.070000", "114449.270000", "114450.470000", "114451.670000", "114452.870000", "114454.070000", "114455.270000", "114456.470000", "114457.670000", "114458.870000", "114500.070000", "114501.270000", "114502.470000", "114503.670000", "114504.870000", "114506.070000", "114507.270000", "114508.470000", "114509.670000", "114510.870000", "114512.070000", "114513.270000", "114514.470000", "114515.670000", "114516.870000", "114518.070000", "114519.270000", "114520.470000", "114521.670000", "114522.870000", "114524.070000", "114525.270000", "114526.470000", "114527.670000", "114528.870000", "114530.070000", "114531.270000"],
      "ContentTime": ["114335.015000", "114335.018000", "114335.021000", "114335.024000", "114335.033000", "114335.035000", "114335.038000", "114335.041000", "114335.043000", "114335.046000", "114335.048000", "114335.051000", "114335.053000", "114335.056000", "114335.059000", "114335.061000", "114335.064000", "114335.066000", "114335.069000", "114335.071000", "114335.074000", "114335.082000", "114335.085000", "114335.087000", "114335.090000", "114335.092000", "114415.010000", "114415.012000", "114415.015000", "114415.017000", "114415.020000", "114415.023000", "114415.025000", "114415.028000", "114415.030000", "114415.033000", "114415.041000", "114415.043000", "114415.046000", "114415.049000", "114415.051000", "114415.054000", "114415.056000", "114415.059000", "114415.061000", "114415.064000", "114415.066000", "114415.069000", "114415.071000", "114415.074000", "114415.076000", "114415.079000", "114415.082000", "114415.084000", "114415.087000", "114415.089000", "114415.092000", "114415.094000", "114415.097000", "114415.099000", "114455.010000", "114455.012000", "114455.015000", "114455.017000", "114455.020000", "114455.023000", "114455.025000", "114455.028000", "114455.030000", "114455.033000", "114455.035000", "114455.038000", "114455.040000", "114455.043000", "114455.045000", "114455.048000", "114455.050000", "114455.053000", "114455.056000", "114455.058000", "114455.068000", "114455.070000", "114455.073000", "114455.075000", "114455.078000", "114455.081000", "114455.083000", "114455.086000", "114455.088000", "114455.091000", "114455.093000", "114455.096000", "114455.099000", "114532.969000", "114532.973000", "114532.975000", "114532.978000", "114532.981000", "114532.986000", "114532.988000", "114532.991000", "114532.994000", "114532.996000", "114533.000000", "114533.002000", "114533.005000", "114533.008000", "114533.010000", "114533.013000", "114533.015000", "114533.018000", "114533.020000", "114533.023000", "114533.026000", "114533.028000", "114533.031000", "114533.033000", "114533.036000", "114533.038000", "114533.041000", "114533.043000", "114533.046000", "114533.049000", "114533.051000", "114533.054000"],
      "InstanceCreationTime": ["114335.015000", "114335.018000", "114335.021000", "114335.024000", "114335.033000", "114335.035000", "114335.038000", "114335.041000", "114335.043000", "114335.046000", "114335.048000", "114335.051000", "114335.053000", "114335.056000", "114335.059000", "114335.061000", "114335.064000", "114335.066000", "114335.069000", "114335.071000", "114335.074000", "114335.082000", "114335.085000", "114335.087000", "114335.090000", "114335.092000", "114415.010000", "114415.012000", "114415.015000", "114415.017000", "114415.020000", "114415.023000", "114415.025000", "114415.028000", "114415.030000", "114415.033000", "114415.041000", "114415.043000", "114415.046000", "114415.049000", "114415.051000", "114415.054000", "114415.056000", "114415.059000", "114415.061000", "114415.064000", "114415.066000", "114415.069000", "114415.071000", "114415.074000", "114415.076000", "114415.079000", "114415.082000", "114415.084000", "114415.087000", "114415.089000", "114415.092000", "114415.094000", "114415.097000", "114415.099000", "114455.010000", "114455.012000", "114455.015000", "114455.017000", "114455.020000", "114455.023000", "114455.025000", "114455.028000", "114455.030000", "114455.033000", "114455.035000", "114455.038000", "114455.040000", "114455.043000", "114455.045000", "114455.048000", "114455.050000", "114455.053000", "114455.056000", "114455.058000", "114455.068000", "114455.070000", "114455.073000", "114455.075000", "114455.078000", "114455.081000", "114455.083000", "114455.086000", "114455.088000", "114455.091000", "114455.093000", "114455.096000", "114455.099000", "114532.969000", "114532.973000", "114532.975000", "114532.978000", "114532.981000", "114532.986000", "114532.988000", "114532.991000", "114532.994000", "114532.996000", "114533.000000", "114533.002000", "114533.005000", "114533.008000", "114533.010000", "114533.013000", "114533.015000", "114533.018000", "114533.020000", "114533.023000", "114533.026000", "114533.028000", "114533.031000", "114533.033000", "114533.036000", "114533.038000", "114533.041000", "114533.043000", "114533.046000", "114533.049000", "114533.051000", "114533.054000"],
      "InstanceNumber": [1, 2, 3, 4, 5, 6, 7, 8, 9, 10, 11, 12, 13, 14, 15, 16, 17, 18, 19, 20, 21, 22, 23, 24, 25, 26, 27, 28, 29, 30, 31, 32, 33, 34, 35, 36, 37, 38, 39, 40, 41, 42, 43, 44, 45, 46, 47, 48, 49, 50, 51, 52, 53, 54, 55, 56, 57, 58, 59, 60, 61, 62, 63, 64, 65, 66, 67, 68, 69, 70, 71, 72, 73, 74, 75, 76, 77, 78, 79, 80, 81, 82, 83, 84, 85, 86, 87, 88, 89, 90, 91, 92, 93, 94, 95, 96, 97, 98, 99, 100, 101, 102, 103, 104, 105, 106, 107, 108, 109, 110, 111, 112, 113, 114, 115, 116, 117, 118, 119, 120, 121, 122, 123, 124, 125],
      "LargestImagePixelValue": [1664, 1628, 1586, 1599, 1578, 1590, 1587, 1581, 1581, 1582, 1592, 1599, 1578, 1579, 1598, 1579, 1592, 1583, 1586, 1586, 1594, 1565, 1568, 1574, 1581, 1566, 1562, 1579, 1583, 1586, 1572, 1592, 1594, 1600, 1599, 1609, 1605, 1587, 1594, 1598, 1587, 1585, 1614, 1583, 1584, 1596, 1582, 1595, 1582, 1581, 1596, 1585, 1581, 1581, 1577, 1596, 1572, 1571, 1605, 1574, 1587, 1568, 1586, 1610, 1590, 1599, 1596, 1597, 1591, 1586, 1576, 1589, 1570, 1591, 1600, 1582, 1599, 1618, 1584, 1609, 1597, 1582, 1609, 1586, 1602, 1597, 1582, 1609, 1581, 1590, 1606, 1583, 1600, 1592, 1593, 1585, 1583, 1581, 1597, 1582, 1605, 1590, 1597, 1595, 1609, 1589, 1595, 1582, 1586, 1576, 1581, 1580, 1573, 1587, 1586, 1580, 1590, 1573, 1555, 1603, 1598, 1568, 1591, 1577, 1587],
      "WindowCenter": [560.0, 557.0, 556.0, 556.0, 556.0, 556.0, 556.0, 556.0, 556.0, 557.0, 557.0, 557.0, 557.0, 557.0, 558.0, 557.0, 558.0, 558.0, 558.0, 557.0, 557.0, 556.0, 556.0, 557.0, 558.0, 557.0, 557.0, 558.0, 559.0, 559.0, 558.0, 559.0, 559.0, 559.0, 558.0, 558.0, 558.0, 557.0, 558.0, 558.0, 557.0, 557.0, 558.0, 557.0, 557.0, 557.0, 556.0, 556.0, 556.0, 557.0, 557.0, 557.0, 558.0, 558.0, 558.0, 558.0, 557.0, 557.0, 558.0, 557.0, 557.0, 557.0, 558.0, 558.0, 558.0, 558.0, 558.0, 558.0, 558.0, 558.0, 557.0, 557.0, 557.0, 558.0, 558.0, 558.0, 559.0, 559.0, 558.0, 558.0, 558.0, 558.0, 557.0, 557.0, 558.0, 557.0, 557.0, 558.0, 557.0, 558.0, 558.0, 557.0, 558.0, 558.0, 558.0, 557.0, 557.0, 557.0, 558.0, 558.0, 558.0, 558.0, 558.0, 558.0, 557.0, 557.0, 558.0, 557.0, 557.0, 558.0, 558.0, 558.0, 558.0, 558.0, 558.0, 558.0, 558.0, 557.0, 557.0, 558.0, 558.0, 557.0, 558.0, 557.0, 557.0],
      "WindowWidth": [1187.0, 1183.0, 1180.0, 1180.0, 1180.0, 1181.0, 1180.0, 1180.0, 1180.0, 1181.0, 1182.0, 1182.0, 1181.0, 1182.0, 1183.0, 1183.0, 1184.0, 1185.0, 1184.0, 1183.0, 1182.0, 1180.0, 1180.0, 1181.0, 1183.0, 1183.0, 1183.0, 1185.0, 1186.0, 1186.0, 1186.0, 1186.0, 1186.0, 1186.0, 1185.0, 1185.0, 1185.0, 1183.0, 1184.0, 1184.0, 1182.0, 1183.0, 1183.0, 1182.0, 1182.0, 1182.0, 1181.0, 1181.0, 1181.0, 1181.0, 1182.0, 1183.0, 1183.0, 1184.0, 1183.0, 1184.0, 1182.0, 1182.0, 1183.0, 1182.0, 1183.0, 1182.0, 1183.0, 1184.0, 1183.0, 1183.0, 1184.0, 1185.0, 1185.0, 1184.0, 1183.0, 1183.0, 1183.0, 1184.0, 1185.0, 1185.0, 1186.0, 1185.0, 1184.0, 1184.0, 1184.0, 1184.0, 1183.0, 1182.0, 1183.0, 1183.0, 1183.0, 1183.0, 1183.0, 1184.0, 1185.0, 1183.0, 1184.0, 1183.0, 1183.0, 1182.0, 1183.0, 1183.0, 1183.0, 1184.0, 1185.0, 1184.0, 1185.0, 1183.0, 1183.0, 1183.0, 1184.0, 1183.0, 1183.0, 1184.0, 1184.0, 1185.0, 1185.0, 1184.0, 1184.0, 1184.0, 1184.0, 1182.0, 1182.0, 1184.0, 1184.0, 1183.0, 1184.0, 1183.0, 1183.0]
    },
    "slices": {}
  }
}