{
  "AcquisitionMatrixPE": 88,
  "AcquisitionNumber": 1,
  "AcquisitionTime": "11:19:27.685000",
  "BandwidthPerPixelPhaseEncode": 19.592,
  "BaseResolution": 88,
  "BodyPartExamined": "BRAIN",
  "ConsistencyInfo": "N4_VE11C_LATEST_20160120",
  "ConversionSoftware": "dcm2niix",
  "ConversionSoftwareVersion": "v1.0.20190902",
  "DerivedVendorReportedEchoSpacing": 0.000580014,
  "DeviceSerialNumber": "67050",
  "DwellTime": 2.6e-06,
  "EchoTime": 0.033,
  "EchoTrainLength": 88,
  "EffectiveEchoSpacing": 0.000580014,
  "FlipAngle": 62,
  "ImageOrientationPatientDICOM": [0.997163, 0.0300884, 0.0689908, -0.0346474, 0.997227, 0.0658658],
  "ImageType": [
    "ORIGINAL",
    "PRIMARY",
    "M",
    "ND",
    "MOSAIC"
],
  "ImagingFrequency": 123.251,
  "InPlanePhaseEncodingDirectionDICOM": "COL",
  "InstitutionAddress": "Olive_Street_60_Providence_RI_US_02912",
  "InstitutionName": "BROWN_UNIVERSITY_MRF",
  "InstitutionalDepartmentName": "Department",
  "MRAcquisitionType": "2D",
  "MagneticFieldStrength": 3,
  "Manufacturer": "Siemens",
  "ManufacturersModelName": "Prisma_fit",
  "Modality": "MR",
  "MultibandAccelerationFactor": 4,
  "PartialFourier": 1,
  "PatientPosition": "HFS",
  "PercentPhaseFOV": 100,
  "PhaseEncodingDirection": "j-",
  "PhaseEncodingSteps": 88,
  "PhaseResolution": 1,
  "PixelBandwidth": 2185,
  "ProcedureStepDescription": "ASHENHAV_1222",
  "ProtocolName": "func-bold_task-RDMmotion_run-01",
  "PulseSequenceDetails": "%SiemensSeq%_ep2d_bold",
  "ReceiveCoilActiveElements": "HC1-7",
  "ReceiveCoilName": "HeadNeck_64",
  "ReconMatrixPE": 88,
  "RefLinesPE": 8,
  "RepetitionTime": 1.2,
  "SAR": 0.0539945,
  "ScanOptions": "FS",
  "ScanningSequence": "EP",
  "SequenceName": "_epfid2d1_88",
  "SequenceVariant": "SK",
  "SeriesDescription": "func-bold_task-RDMmotion_run-01",
  "SeriesNumber": 7,
  "ShimSetting": [1755, -9106, 4368, 521, -129, -289, -13, -24],
  "SliceThickness": 2.4,
  "SliceTiming": [0.55, 0, 0.6275, 0.0775, 0.7075, 0.155, 0.785, 0.235, 0.865, 0.3125, 0.9425, 0.3925, 1.0225, 0.47, 1.1, 0.55, 0, 0.6275, 0.0775, 0.7075, 0.155, 0.785, 0.235, 0.865, 0.3125, 0.9425, 0.3925, 1.0225, 0.47, 1.1, 0.55, 0, 0.6275, 0.0775, 0.7075, 0.155, 0.785, 0.235, 0.865, 0.3125, 0.9425, 0.3925, 1.0225, 0.47, 1.1, 0.55, 0, 0.6275, 0.0775, 0.7075, 0.155, 0.785, 0.235, 0.865, 0.3125, 0.9425, 0.3925, 1.0225, 0.47, 1.1],
  "SoftwareVersions": "syngo_MR_E11",
  "SpacingBetweenSlices": 2.4,
  "StationName": "AWP67050",
  "TaskName": "RDMmotion",
  "TotalReadoutTime": 0.0504612,
  "TxRefAmp": 233.939,
  "dcmmeta_affine": [
    [-2.390925884246826, -0.08307506144046783, 0.1603623926639557, 106.84453582763672],
    [-0.07214389741420746, 2.391077756881714, 0.16336631774902344, -98.88887786865234],
    [0.16542109847068787, -0.15792818367481232, 2.3890573978424072, -66.8197250366211],
    [0.0, 0.0, 0.0, 1.0]
],
  "dcmmeta_reorient_transform": [
    [0.0, -1.0, 0.0, 87.0],
    [1.0, 0.0, 0.0, 0.0],
    [0.0, 0.0, 1.0, 0.0],
    [0.0, 0.0, 0.0, 1.0]
],
  "dcmmeta_shape": [88, 88, 60, 125],
  "dcmmeta_slice_dim": 2,
  "dcmmeta_version": 0.6,
  "global": {
    "const": {
      "AcquisitionMatrix": [88, 0, 0, 88],
      "AngioFlag": "N",
      "BitsAllocated": 16,
      "BitsStored": 12,
      "BodyPartExamined": "BRAIN",
      "Columns": 704,
      "DeidentificationMethodCodeSequence": [
        {
          "CodeMeaning": "XNAT DicomEdit 6 Script",
          "CodeValue": "3",
          "CodingSchemeDesignator": "XNAT",
          "CodingSchemeVersion": "1.0"}
],
      "EchoNumbers": 1,
      "EchoTime": 33.0,
      "EchoTrainLength": 88,
      "FlipAngle": 62.0,
      "HighBit": 11,
      "ImageOrientationPatient": [0.99716345496954, 0.03008844891914, 0.06899079152214, -0.0346474184873, 0.99722678221535, 0.06586578189461],
      "ImagePositionPatient": [-810.43509057221, -867.80718548387, -180.15105447881],
      "ImageType": [
        "ORIGINAL",
        "PRIMARY",
        "M",
        "ND",
        "MOSAIC"
],
      "ImagedNucleus": "1H",
      "ImagingFrequency": 123.250719,
      "InPlanePhaseEncodingDirection": "COL",
      "MRAcquisitionType": "2D",
      "MagneticFieldStrength": 3.0,
      "Manufacturer": "SIEMENS",
      "ManufacturerModelName": "Prisma_fit",
      "Modality": "MR",
      "NumberOfAverages": 1.0,
      "NumberOfPhaseEncodingSteps": 88,
      "PercentPhaseFieldOfView": 100.0,
      "PercentSampling": 100.0,
      "PerformedProcedureStepStartTime": "110400.035000",
      "PhotometricInterpretation": "MONOCHROME2",
      "PixelBandwidth": 2185.0,
      "PixelRepresentation": 0,
      "PixelSpacing": [2.3977272510529, 2.3977272510529],
      "ProtocolName": "func-bold_task-RDMmotion_run-01",
      "RepetitionTime": 1200.0,
      "Rows": 704,
      "SAR": 0.05399452067544,
      "SamplesPerPixel": 1,
      "ScanOptions": "FS",
      "ScanningSequence": "EP",
      "SequenceName": "*epfid2d1_88",
      "SequenceVariant": "SK",
      "SeriesDescription": "func-bold_task-RDMmotion_run-01",
      "SeriesNumber": 7,
      "SeriesTime": "112009.044000",
      "SliceLocation": -66.107260365833,
      "SliceThickness": 2.4000000953674,
      "SmallestImagePixelValue": 0,
      "SoftwareVersions": "syngo MR E11",
      "SpacingBetweenSlices": 2.3999999364574,
      "SpecificCharacterSet": "ISO_IR 100",
      "StudyID": "1",
      "StudyTime": "110359.954000",
      "TransmitCoilName": "Body",
      "VariableFlipAngleFlag": "N",
      "WindowCenterWidthExplanation": "Algo1",
      "dBdt": 0.0},
    "slices": {}
  },
  "time": {
    "samples": {
      "AcquisitionNumber": [1, 2, 3, 4, 5, 6, 7, 8, 9, 10, 11, 12, 13, 14, 15, 16, 17, 18, 19, 20, 21, 22, 23, 24, 25, 26, 27, 28, 29, 30, 31, 32, 33, 34, 35, 36, 37, 38, 39, 40, 41, 42, 43, 44, 45, 46, 47, 48, 49, 50, 51, 52, 53, 54, 55, 56, 57, 58, 59, 60, 61, 62, 63, 64, 65, 66, 67, 68, 69, 70, 71, 72, 73, 74, 75, 76, 77, 78, 79, 80, 81, 82, 83, 84, 85, 86, 87, 88, 89, 90, 91, 92, 93, 94, 95, 96, 97, 98, 99, 100, 101, 102, 103, 104, 105, 106, 107, 108, 109, 110, 111, 112, 113, 114, 115, 116, 117, 118, 119, 120, 121, 122, 123, 124, 125],
      "AcquisitionTime": ["111927.685000", "111928.885000", "111930.085000", "111931.285000", "111932.485000", "111933.685000", "111934.885000", "111936.085000", "111937.285000", "111938.485000", "111939.685000", "111940.885000", "111942.085000", "111943.285000", "111944.485000", "111945.685000", "111946.885000", "111948.085000", "111949.285000", "111950.485000", "111951.685000", "111952.885000", "111954.085000", "111955.285000", "111956.485000", "111957.685000", "111958.885000", "112000.085000", "112001.285000", "112002.485000", "112003.685000", "112004.885000", "112006.085000", "112007.285000", "112008.485000", "112009.685000", "112010.885000", "112012.085000", "112013.285000", "112014.485000", "112015.685000", "112016.885000", "112018.085000", "112019.285000", "112020.485000", "112021.685000", "112022.885000", "112024.085000", "112025.285000", "112026.485000", "112027.685000", "112028.885000", "112030.085000", "112031.285000", "112032.485000", "112033.685000", "112034.885000", "112036.085000", "112037.285000", "112038.485000", "112039.685000", "112040.885000", "112042.085000", "112043.285000", "112044.485000", "112045.685000", "112046.885000", "112048.085000", "112049.285000", "112050.485000", "112051.685000", "112052.885000", "112054.085000", "112055.285000", "112056.485000", "112057.685000", "112058.885000", "112100.085000", "112101.285000", "112102.485000", "112103.685000", "112104.885000", "112106.085000", "112107.285000", "112108.485000", "112109.685000", "112110.885000", "112112.085000", "112113.285000", "112114.485000", "112115.685000", "112116.885000", "112118.085000", "112119.285000", "112120.485000", "112121.685000", "112122.885000", "112124.085000", "112125.285000", "112126.485000", "112127.685000", "112128.885000", "112130.085000", "112131.285000", "112132.485000", "112133.685000", "112134.885000", "112136.085000", "112137.285000", "112138.485000", "112139.685000", "112140.885000", "112142.085000", "112143.285000", "112144.485000", "112145.685000", "112146.885000", "112148.085000", "112149.285000", "112150.485000", "112151.685000", "112152.885000", "112154.085000", "112155.285000", "112156.485000"],
      "ContentTime": ["112009.047000", "112009.050000", "112009.053000", "112009.055000", "112009.058000", "112009.061000", "112009.063000", "112009.066000", "112009.068000", "112009.108000", "112009.110000", "112009.113000", "112009.115000", "112009.118000", "112009.121000", "112009.123000", "112009.126000", "112009.132000", "112009.135000", "112009.137000", "112009.140000", "112009.143000", "112009.145000", "112009.148000", "112009.150000", "112009.153000", "112009.170000", "112009.179000", "112009.181000", "112009.184000", "112009.186000", "112009.189000", "112009.191000", "112009.194000", "112049.042000", "112049.045000", "112049.048000", "112049.051000", "112049.053000", "112049.056000", "112049.073000", "112049.075000", "112049.078000", "112049.081000", "112049.083000", "112049.086000", "112049.088000", "112049.091000", "112049.094000", "112049.096000", "112049.099000", "112049.102000", "112049.104000", "112049.107000", "112049.110000", "112049.112000", "112049.115000", "112049.118000", "112049.120000", "112049.123000", "112049.126000", "112049.128000", "112049.131000", "112049.133000", "112049.136000", "112049.139000", "112049.142000", "112129.043000", "112129.046000", "112129.048000", "112129.051000", "112129.054000", "112129.056000", "112129.059000", "112129.062000", "112129.064000", "112129.067000", "112129.073000", "112129.076000", "112129.079000", "112129.081000", "112129.084000", "112129.086000", "112129.089000", "112129.092000", "112129.094000", "112129.105000", "112129.107000", "112129.110000", "112129.113000", "112129.115000", "112129.118000", "112129.120000", "112129.123000", "112129.126000", "112129.128000", "112129.131000", "112129.133000", "112129.136000", "112129.139000", "112149.043000", "112149.045000", "112149.048000", "112149.051000", "112149.070000", "112149.073000", "112149.076000", "112149.078000", "112149.081000", "112149.084000", "112149.086000", "112149.089000", "112149.091000", "112149.094000", "112149.097000", "112149.099000", "112149.102000", "112158.227000", "112158.230000", "112158.233000", "112158.236000", "112158.238000", "112158.241000", "112158.244000", "112158.246000"],
      "InstanceCreationTime": ["112009.047000", "112009.050000", "112009.053000", "112009.055000", "112009.058000", "112009.061000", "112009.063000", "112009.066000", "112009.068000", "112009.108000", "112009.110000", "112009.113000", "112009.115000", "112009.118000", "112009.121000", "112009.123000", "112009.126000", "112009.132000", "112009.135000", "112009.137000", "112009.140000", "112009.143000", "112009.145000", "112009.148000", "112009.150000", "112009.153000", "112009.170000", "112009.179000", "112009.181000", "112009.184000", "112009.186000", "112009.189000", "112009.191000", "112009.194000", "112049.042000", "112049.045000", "112049.048000", "112049.051000", "112049.053000", "112049.056000", "112049.073000", "112049.075000", "112049.078000", "112049.081000", "112049.083000", "112049.086000", "112049.088000", "112049.091000", "112049.094000", "112049.096000", "112049.099000", "112049.102000", "112049.104000", "112049.107000", "112049.110000", "112049.112000", "112049.115000", "112049.118000", "112049.120000", "112049.123000", "112049.126000", "112049.128000", "112049.131000", "112049.133000", "112049.136000", "112049.139000", "112049.142000", "112129.043000", "112129.046000", "112129.048000", "112129.051000", "112129.054000", "112129.056000", "112129.059000", "112129.062000", "112129.064000", "112129.067000", "112129.073000", "112129.076000", "112129.079000", "112129.081000", "112129.084000", "112129.086000", "112129.089000", "112129.092000", "112129.094000", "112129.105000", "112129.107000", "112129.110000", "112129.113000", "112129.115000", "112129.118000", "112129.120000", "112129.123000", "112129.126000", "112129.128000", "112129.131000", "112129.133000", "112129.136000", "112129.139000", "112149.043000", "112149.045000", "112149.048000", "112149.051000", "112149.070000", "112149.073000", "112149.076000", "112149.078000", "112149.081000", "112149.084000", "112149.086000", "112149.089000", "112149.091000", "112149.094000", "112149.097000", "112149.099000", "112149.102000", "112158.227000", "112158.230000", "112158.233000", "112158.236000", "112158.238000", "112158.241000", "112158.244000", "112158.246000"],
      "InstanceNumber": [1, 2, 3, 4, 5, 6, 7, 8, 9, 10, 11, 12, 13, 14, 15, 16, 17, 18, 19, 20, 21, 22, 23, 24, 25, 26, 27, 28, 29, 30, 31, 32, 33, 34, 35, 36, 37, 38, 39, 40, 41, 42, 43, 44, 45, 46, 47, 48, 49, 50, 51, 52, 53, 54, 55, 56, 57, 58, 59, 60, 61, 62, 63, 64, 65, 66, 67, 68, 69, 70, 71, 72, 73, 74, 75, 76, 77, 78, 79, 80, 81, 82, 83, 84, 85, 86, 87, 88, 89, 90, 91, 92, 93, 94, 95, 96, 97, 98, 99, 100, 101, 102, 103, 104, 105, 106, 107, 108, 109, 110, 111, 112, 113, 114, 115, 116, 117, 118, 119, 120, 121, 122, 123, 124, 125],
      "LargestImagePixelValue": [1750, 1712, 1703, 1673, 1689, 1674, 1665, 1668, 1659, 1655, 1672, 1656, 1678, 1659, 1669, 1673, 1658, 1661, 1670, 1662, 1657, 1666, 1677, 1674, 1663, 1656, 1664, 1662, 1671, 1651, 1657, 1675, 1666, 1659, 1661, 1667, 1663, 1661, 1652, 1659, 1674, 1653, 1656, 1666, 1666, 1668, 1665, 1668, 1669, 1669, 1665, 1660, 1653, 1647, 1682, 1664, 1661, 1671, 1654, 1667, 1662, 1655, 1657, 1657, 1653, 1642, 1660, 1656, 1651, 1658, 1657, 1657, 1650, 1664, 1653, 1655, 1651, 1644, 1651, 1649, 1652, 1647, 1649, 1663, 1673, 1651, 1665, 1649, 1645, 1658, 1636, 1650, 1654, 1653, 1658, 1653, 1642, 1659, 1652, 1653, 1646, 1646, 1645, 1676, 1650, 1645, 1651, 1663, 1651, 1654, 1649, 1655, 1651, 1665, 1657, 1660, 1650, 1658, 1669, 1646, 1642, 1670, 1669, 1654, 1673],
      "WindowCenter": [566.0, 564.0, 564.0, 564.0, 564.0, 565.0, 565.0, 565.0, 564.0, 564.0, 564.0, 564.0, 564.0, 564.0, 564.0, 565.0, 564.0, 564.0, 564.0, 564.0, 564.0, 564.0, 564.0, 564.0, 563.0, 564.0, 564.0, 563.0, 564.0, 563.0, 563.0, 564.0, 563.0, 563.0, 563.0, 564.0, 564.0, 564.0, 563.0, 564.0, 564.0, 564.0, 564.0, 564.0, 564.0, 564.0, 564.0, 564.0, 564.0, 564.0, 563.0, 563.0, 563.0, 563.0, 564.0, 564.0, 565.0, 565.0, 564.0, 563.0, 563.0, 562.0, 562.0, 562.0, 563.0, 562.0, 563.0, 563.0, 563.0, 563.0, 563.0, 563.0, 563.0, 563.0, 563.0, 562.0, 562.0, 562.0, 562.0, 562.0, 563.0, 563.0, 564.0, 564.0, 564.0, 563.0, 563.0, 563.0, 563.0, 562.0, 562.0, 562.0, 562.0, 563.0, 563.0, 563.0, 563.0, 563.0, 563.0, 562.0, 562.0, 561.0, 562.0, 562.0, 562.0, 562.0, 563.0, 563.0, 563.0, 563.0, 563.0, 564.0, 564.0, 563.0, 563.0, 563.0, 562.0, 562.0, 562.0, 562.0, 562.0, 563.0, 563.0, 562.0, 563.0],
      "WindowWidth": [1200.0, 1196.0, 1196.0, 1196.0, 1197.0, 1198.0, 1198.0, 1198.0, 1197.0, 1197.0, 1197.0, 1195.0, 1196.0, 1196.0, 1196.0, 1198.0, 1197.0, 1196.0, 1197.0, 1196.0, 1196.0, 1195.0, 1196.0, 1196.0, 1195.0, 1196.0, 1195.0, 1195.0, 1196.0, 1195.0, 1194.0, 1196.0, 1195.0, 1195.0, 1195.0, 1195.0, 1195.0, 1195.0, 1195.0, 1196.0, 1197.0, 1196.0, 1196.0, 1197.0, 1197.0, 1197.0, 1197.0, 1197.0, 1196.0, 1196.0, 1195.0, 1194.0, 1194.0, 1194.0, 1195.0, 1196.0, 1198.0, 1197.0, 1195.0, 1195.0, 1193.0, 1192.0, 1193.0, 1193.0, 1194.0, 1193.0, 1194.0, 1194.0, 1195.0, 1195.0, 1194.0, 1194.0, 1194.0, 1194.0, 1194.0, 1193.0, 1193.0, 1192.0, 1193.0, 1192.0, 1194.0, 1194.0, 1195.0, 1196.0, 1196.0, 1195.0, 1194.0, 1193.0, 1193.0, 1193.0, 1191.0, 1193.0, 1193.0, 1193.0, 1194.0, 1195.0, 1195.0, 1194.0, 1193.0, 1192.0, 1192.0, 1191.0, 1192.0, 1193.0, 1193.0, 1193.0, 1194.0, 1195.0, 1195.0, 1195.0, 1195.0, 1196.0, 1196.0, 1195.0, 1194.0, 1194.0, 1192.0, 1192.0, 1191.0, 1192.0, 1192.0, 1193.0, 1193.0, 1193.0, 1194.0]
    },
    "slices": {}
  }
}